# Temperatura_=_20.0
# Concentracion g/m^3_=_10000.0
# C_Vs_to_Am_M_A/Vsm_=_65563218390.804596
# pendiente_HvsI_1/m_=_3716.3
# ordenada_HvsI_A/m_=_1297.0
# frecuencia_Hz_=_81170.43901468013

Tiempo_(s)	Campo_(V.s)	Magnetizacion_(V.s)	Campo_(kA/m)	Magnetizacion_(A/m)
0.000000e+00	-4.130727e-06	-8.409938e-09	-3.103625e+01	-5.460460e+02
1.000000e-08	-4.130997e-06	-8.532423e-09	-3.103828e+01	-5.462384e+02
2.000000e-08	-4.131243e-06	-8.535110e-09	-3.104012e+01	-5.464184e+02
3.000000e-08	-4.131326e-06	-8.430670e-09	-3.104074e+01	-5.465822e+02
4.000000e-08	-4.131314e-06	-8.413164e-09	-3.104066e+01	-5.467267e+02
5.000000e-08	-4.131248e-06	-8.310603e-09	-3.104016e+01	-5.468492e+02
6.000000e-08	-4.131134e-06	-8.325963e-09	-3.103931e+01	-5.469480e+02
7.000000e-08	-4.130991e-06	-8.280976e-09	-3.103823e+01	-5.470222e+02
8.000000e-08	-4.130781e-06	-8.198534e-09	-3.103665e+01	-5.470717e+02
9.000000e-08	-4.130507e-06	-8.263043e-09	-3.103459e+01	-5.470971e+02
1.000000e-07	-4.130086e-06	-8.234097e-09	-3.103143e+01	-5.470998e+02
1.100000e-07	-4.129544e-06	-8.483774e-09	-3.102736e+01	-5.470818e+02
1.200000e-07	-4.128980e-06	-8.457967e-09	-3.102312e+01	-5.470456e+02
1.300000e-07	-4.128409e-06	-8.319407e-09	-3.101883e+01	-5.469940e+02
1.400000e-07	-4.127761e-06	-8.343328e-09	-3.101396e+01	-5.469300e+02
1.500000e-07	-4.126931e-06	-8.322870e-09	-3.100773e+01	-5.468566e+02
1.600000e-07	-4.126051e-06	-8.458626e-09	-3.100112e+01	-5.467768e+02
1.700000e-07	-4.125025e-06	-8.286636e-09	-3.099341e+01	-5.466932e+02
1.800000e-07	-4.123872e-06	-8.252427e-09	-3.098474e+01	-5.466080e+02
1.900000e-07	-4.122593e-06	-8.293300e-09	-3.097513e+01	-5.465229e+02
2.000000e-07	-4.121120e-06	-8.346644e-09	-3.096406e+01	-5.464390e+02
2.100000e-07	-4.119617e-06	-8.415203e-09	-3.095277e+01	-5.463568e+02
2.200000e-07	-4.117938e-06	-8.241781e-09	-3.094016e+01	-5.462759e+02
2.300000e-07	-4.116033e-06	-8.298134e-09	-3.092585e+01	-5.461955e+02
2.400000e-07	-4.113861e-06	-8.295021e-09	-3.090953e+01	-5.461141e+02
2.500000e-07	-4.111510e-06	-8.385211e-09	-3.089186e+01	-5.460296e+02
2.600000e-07	-4.109012e-06	-8.366227e-09	-3.087309e+01	-5.459396e+02
2.700000e-07	-4.106262e-06	-8.226126e-09	-3.085243e+01	-5.458410e+02
2.800000e-07	-4.103338e-06	-8.266374e-09	-3.083046e+01	-5.457310e+02
2.900000e-07	-4.100274e-06	-8.263186e-09	-3.080744e+01	-5.456064e+02
3.000000e-07	-4.097137e-06	-8.388556e-09	-3.078387e+01	-5.454641e+02
3.100000e-07	-4.093699e-06	-8.274902e-09	-3.075804e+01	-5.453013e+02
3.200000e-07	-4.090057e-06	-8.220922e-09	-3.073067e+01	-5.451154e+02
3.300000e-07	-4.086402e-06	-8.275568e-09	-3.070321e+01	-5.449044e+02
3.400000e-07	-4.082609e-06	-8.326581e-09	-3.067471e+01	-5.446666e+02
3.500000e-07	-4.078725e-06	-8.356323e-09	-3.064553e+01	-5.444010e+02
3.600000e-07	-4.074759e-06	-8.176127e-09	-3.061573e+01	-5.441073e+02
3.700000e-07	-4.070762e-06	-8.208539e-09	-3.058570e+01	-5.437856e+02
3.800000e-07	-4.066761e-06	-8.245603e-09	-3.055564e+01	-5.434368e+02
3.900000e-07	-4.062645e-06	-8.279056e-09	-3.052471e+01	-5.430624e+02
4.000000e-07	-4.058450e-06	-8.222469e-09	-3.049319e+01	-5.426642e+02
4.100000e-07	-4.054207e-06	-8.147626e-09	-3.046132e+01	-5.422448e+02
4.200000e-07	-4.049936e-06	-8.249639e-09	-3.042922e+01	-5.418069e+02
4.300000e-07	-4.045695e-06	-8.245171e-09	-3.039736e+01	-5.413536e+02
4.400000e-07	-4.041357e-06	-8.258113e-09	-3.036477e+01	-5.408883e+02
4.500000e-07	-4.036954e-06	-8.159399e-09	-3.033168e+01	-5.404143e+02
4.600000e-07	-4.032560e-06	-8.131158e-09	-3.029867e+01	-5.399349e+02
4.700000e-07	-4.028020e-06	-8.176135e-09	-3.026456e+01	-5.394534e+02
4.800000e-07	-4.023370e-06	-8.166626e-09	-3.022962e+01	-5.389730e+02
4.900000e-07	-4.018524e-06	-8.179316e-09	-3.019321e+01	-5.384964e+02
5.000000e-07	-4.013481e-06	-8.094305e-09	-3.015532e+01	-5.380262e+02
5.100000e-07	-4.008380e-06	-8.147882e-09	-3.011699e+01	-5.375645e+02
5.200000e-07	-4.003254e-06	-8.173180e-09	-3.007848e+01	-5.371132e+02
5.300000e-07	-3.998062e-06	-8.151721e-09	-3.003947e+01	-5.366736e+02
5.400000e-07	-3.992748e-06	-8.094036e-09	-2.999954e+01	-5.362467e+02
5.500000e-07	-3.987366e-06	-8.035584e-09	-2.995910e+01	-5.358331e+02
5.600000e-07	-3.981875e-06	-8.108683e-09	-2.991785e+01	-5.354330e+02
5.700000e-07	-3.976215e-06	-8.090115e-09	-2.987532e+01	-5.350463e+02
5.800000e-07	-3.970449e-06	-8.080725e-09	-2.983200e+01	-5.346725e+02
5.900000e-07	-3.964531e-06	-8.038577e-09	-2.978753e+01	-5.343109e+02
6.000000e-07	-3.958583e-06	-8.056476e-09	-2.974284e+01	-5.339604e+02
6.100000e-07	-3.952617e-06	-8.099760e-09	-2.969802e+01	-5.336198e+02
6.200000e-07	-3.946540e-06	-8.054316e-09	-2.965236e+01	-5.332878e+02
6.300000e-07	-3.940351e-06	-8.044910e-09	-2.960585e+01	-5.329628e+02
6.400000e-07	-3.933975e-06	-8.011460e-09	-2.955795e+01	-5.326433e+02
6.500000e-07	-3.927499e-06	-8.055870e-09	-2.950929e+01	-5.323277e+02
6.600000e-07	-3.920937e-06	-8.047832e-09	-2.945999e+01	-5.320142e+02
6.700000e-07	-3.914355e-06	-8.006146e-09	-2.941053e+01	-5.317012e+02
6.800000e-07	-3.907762e-06	-7.994184e-09	-2.936100e+01	-5.313872e+02
6.900000e-07	-3.901072e-06	-7.979079e-09	-2.931073e+01	-5.310706e+02
7.000000e-07	-3.894222e-06	-8.019449e-09	-2.925926e+01	-5.307500e+02
7.100000e-07	-3.887216e-06	-7.986951e-09	-2.920663e+01	-5.304242e+02
7.200000e-07	-3.880098e-06	-7.980516e-09	-2.915314e+01	-5.300918e+02
7.300000e-07	-3.872849e-06	-7.974045e-09	-2.909868e+01	-5.297519e+02
7.400000e-07	-3.865541e-06	-7.982041e-09	-2.904377e+01	-5.294037e+02
7.500000e-07	-3.858101e-06	-7.992059e-09	-2.898787e+01	-5.290463e+02
7.600000e-07	-3.850375e-06	-7.939294e-09	-2.892982e+01	-5.286791e+02
7.700000e-07	-3.842525e-06	-7.935395e-09	-2.887084e+01	-5.283018e+02
7.800000e-07	-3.834775e-06	-7.923353e-09	-2.881261e+01	-5.279140e+02
7.900000e-07	-3.826983e-06	-7.944770e-09	-2.875407e+01	-5.275154e+02
8.000000e-07	-3.819027e-06	-7.928642e-09	-2.869429e+01	-5.271059e+02
8.100000e-07	-3.811007e-06	-7.901484e-09	-2.863403e+01	-5.266854e+02
8.200000e-07	-3.802948e-06	-7.914364e-09	-2.857348e+01	-5.262539e+02
8.300000e-07	-3.794801e-06	-7.906167e-09	-2.851226e+01	-5.258110e+02
8.400000e-07	-3.786564e-06	-7.912212e-09	-2.845037e+01	-5.253569e+02
8.500000e-07	-3.778338e-06	-7.866030e-09	-2.838857e+01	-5.248911e+02
8.600000e-07	-3.770105e-06	-7.851385e-09	-2.832671e+01	-5.244135e+02
8.700000e-07	-3.761772e-06	-7.851797e-09	-2.826410e+01	-5.239234e+02
8.800000e-07	-3.753353e-06	-7.848940e-09	-2.820084e+01	-5.234204e+02
8.900000e-07	-3.744851e-06	-7.849513e-09	-2.813697e+01	-5.229035e+02
9.000000e-07	-3.736234e-06	-7.821238e-09	-2.807222e+01	-5.223720e+02
9.100000e-07	-3.727637e-06	-7.835866e-09	-2.800763e+01	-5.218248e+02
9.200000e-07	-3.719041e-06	-7.829405e-09	-2.794304e+01	-5.212606e+02
9.300000e-07	-3.710320e-06	-7.819581e-09	-2.787751e+01	-5.206783e+02
9.400000e-07	-3.701434e-06	-7.788319e-09	-2.781075e+01	-5.200766e+02
9.500000e-07	-3.692500e-06	-7.757799e-09	-2.774362e+01	-5.194541e+02
9.600000e-07	-3.683489e-06	-7.760192e-09	-2.767592e+01	-5.188098e+02
9.700000e-07	-3.674313e-06	-7.741141e-09	-2.760698e+01	-5.181424e+02
9.800000e-07	-3.664990e-06	-7.735638e-09	-2.753693e+01	-5.174513e+02
9.900000e-07	-3.655465e-06	-7.709995e-09	-2.746536e+01	-5.167357e+02
1.000000e-06	-3.645911e-06	-7.710402e-09	-2.739358e+01	-5.159953e+02
1.010000e-06	-3.636157e-06	-7.711547e-09	-2.732029e+01	-5.152302e+02
1.020000e-06	-3.626128e-06	-7.690652e-09	-2.724494e+01	-5.144408e+02
1.030000e-06	-3.615818e-06	-7.674104e-09	-2.716747e+01	-5.136280e+02
1.040000e-06	-3.605282e-06	-7.641758e-09	-2.708831e+01	-5.127931e+02
1.050000e-06	-3.594629e-06	-7.637534e-09	-2.700827e+01	-5.119378e+02
1.060000e-06	-3.583745e-06	-7.615752e-09	-2.692649e+01	-5.110640e+02
1.070000e-06	-3.572881e-06	-7.594178e-09	-2.684487e+01	-5.101744e+02
1.080000e-06	-3.561997e-06	-7.577507e-09	-2.676309e+01	-5.092716e+02
1.090000e-06	-3.550812e-06	-7.565875e-09	-2.667905e+01	-5.083584e+02
1.100000e-06	-3.539482e-06	-7.568754e-09	-2.659392e+01	-5.074381e+02
1.110000e-06	-3.528106e-06	-7.544160e-09	-2.650845e+01	-5.065136e+02
1.120000e-06	-3.516564e-06	-7.527552e-09	-2.642173e+01	-5.055880e+02
1.130000e-06	-3.504903e-06	-7.505267e-09	-2.633411e+01	-5.046643e+02
1.140000e-06	-3.493111e-06	-7.494549e-09	-2.624552e+01	-5.037452e+02
1.150000e-06	-3.481257e-06	-7.480491e-09	-2.615645e+01	-5.028329e+02
1.160000e-06	-3.469383e-06	-7.450718e-09	-2.606723e+01	-5.019295e+02
1.170000e-06	-3.457433e-06	-7.435607e-09	-2.597745e+01	-5.010365e+02
1.180000e-06	-3.445400e-06	-7.420204e-09	-2.588704e+01	-5.001549e+02
1.190000e-06	-3.433336e-06	-7.421564e-09	-2.579639e+01	-4.992855e+02
1.200000e-06	-3.421187e-06	-7.408345e-09	-2.570511e+01	-4.984282e+02
1.210000e-06	-3.408975e-06	-7.392982e-09	-2.561336e+01	-4.975826e+02
1.220000e-06	-3.396674e-06	-7.382314e-09	-2.552093e+01	-4.967480e+02
1.230000e-06	-3.384220e-06	-7.367981e-09	-2.542736e+01	-4.959231e+02
1.240000e-06	-3.371713e-06	-7.356483e-09	-2.533339e+01	-4.951065e+02
1.250000e-06	-3.359206e-06	-7.326430e-09	-2.523942e+01	-4.942963e+02
1.260000e-06	-3.346621e-06	-7.308549e-09	-2.514486e+01	-4.934908e+02
1.270000e-06	-3.333922e-06	-7.294655e-09	-2.504945e+01	-4.926879e+02
1.280000e-06	-3.321180e-06	-7.288920e-09	-2.495371e+01	-4.918857e+02
1.290000e-06	-3.308214e-06	-7.283808e-09	-2.485629e+01	-4.910825e+02
1.300000e-06	-3.295150e-06	-7.269652e-09	-2.475814e+01	-4.902764e+02
1.310000e-06	-3.282082e-06	-7.262512e-09	-2.465994e+01	-4.894660e+02
1.320000e-06	-3.268842e-06	-7.245339e-09	-2.456047e+01	-4.886502e+02
1.330000e-06	-3.255485e-06	-7.230782e-09	-2.446011e+01	-4.878280e+02
1.340000e-06	-3.242074e-06	-7.206995e-09	-2.435934e+01	-4.869987e+02
1.350000e-06	-3.228645e-06	-7.187531e-09	-2.425845e+01	-4.861619e+02
1.360000e-06	-3.215095e-06	-7.175860e-09	-2.415664e+01	-4.853174e+02
1.370000e-06	-3.201309e-06	-7.161026e-09	-2.405306e+01	-4.844653e+02
1.380000e-06	-3.187446e-06	-7.150540e-09	-2.394890e+01	-4.836057e+02
1.390000e-06	-3.173491e-06	-7.132606e-09	-2.384405e+01	-4.827387e+02
1.400000e-06	-3.159472e-06	-7.125516e-09	-2.373872e+01	-4.818646e+02
1.410000e-06	-3.145480e-06	-7.115043e-09	-2.363359e+01	-4.809836e+02
1.420000e-06	-3.131386e-06	-7.099638e-09	-2.352769e+01	-4.800956e+02
1.430000e-06	-3.117094e-06	-7.080277e-09	-2.342031e+01	-4.792006e+02
1.440000e-06	-3.102793e-06	-7.055242e-09	-2.331286e+01	-4.782981e+02
1.450000e-06	-3.088536e-06	-7.042131e-09	-2.320574e+01	-4.773874e+02
1.460000e-06	-3.074080e-06	-7.026476e-09	-2.309712e+01	-4.764678e+02
1.470000e-06	-3.059526e-06	-7.013096e-09	-2.298777e+01	-4.755381e+02
1.480000e-06	-3.044973e-06	-6.995636e-09	-2.287842e+01	-4.745968e+02
1.490000e-06	-3.030309e-06	-6.980612e-09	-2.276825e+01	-4.736424e+02
1.500000e-06	-3.015574e-06	-6.972389e-09	-2.265754e+01	-4.726730e+02
1.510000e-06	-3.000880e-06	-6.956220e-09	-2.254713e+01	-4.716867e+02
1.520000e-06	-2.985982e-06	-6.937847e-09	-2.243520e+01	-4.706817e+02
1.530000e-06	-2.970927e-06	-6.914745e-09	-2.232208e+01	-4.696560e+02
1.540000e-06	-2.955828e-06	-6.900040e-09	-2.220864e+01	-4.686077e+02
1.550000e-06	-2.940547e-06	-6.881774e-09	-2.209382e+01	-4.675353e+02
1.560000e-06	-2.925136e-06	-6.857156e-09	-2.197803e+01	-4.664372e+02
1.570000e-06	-2.909641e-06	-6.834310e-09	-2.186161e+01	-4.653124e+02
1.580000e-06	-2.893927e-06	-6.810071e-09	-2.174354e+01	-4.641599e+02
1.590000e-06	-2.878080e-06	-6.795815e-09	-2.162448e+01	-4.629794e+02
1.600000e-06	-2.862283e-06	-6.775537e-09	-2.150578e+01	-4.617707e+02
1.610000e-06	-2.846318e-06	-6.755763e-09	-2.138583e+01	-4.605340e+02
1.620000e-06	-2.830090e-06	-6.737895e-09	-2.126390e+01	-4.592701e+02
1.630000e-06	-2.813867e-06	-6.718600e-09	-2.114201e+01	-4.579799e+02
1.640000e-06	-2.797691e-06	-6.700666e-09	-2.102047e+01	-4.566647e+02
1.650000e-06	-2.781334e-06	-6.674356e-09	-2.089758e+01	-4.553259e+02
1.660000e-06	-2.764872e-06	-6.648404e-09	-2.077388e+01	-4.539654e+02
1.670000e-06	-2.748226e-06	-6.621088e-09	-2.064881e+01	-4.525849e+02
1.680000e-06	-2.731464e-06	-6.600728e-09	-2.052288e+01	-4.511865e+02
1.690000e-06	-2.714716e-06	-6.581883e-09	-2.039704e+01	-4.497721e+02
1.700000e-06	-2.697996e-06	-6.560561e-09	-2.027142e+01	-4.483436e+02
1.710000e-06	-2.681118e-06	-6.543937e-09	-2.014460e+01	-4.469029e+02
1.720000e-06	-2.664112e-06	-6.523473e-09	-2.001682e+01	-4.454519e+02
1.730000e-06	-2.647115e-06	-6.500945e-09	-1.988912e+01	-4.439921e+02
1.740000e-06	-2.629970e-06	-6.471816e-09	-1.976030e+01	-4.425252e+02
1.750000e-06	-2.612642e-06	-6.444609e-09	-1.963010e+01	-4.410523e+02
1.760000e-06	-2.595284e-06	-6.422709e-09	-1.949969e+01	-4.395748e+02
1.770000e-06	-2.577947e-06	-6.400953e-09	-1.936942e+01	-4.380936e+02
1.780000e-06	-2.560445e-06	-6.379349e-09	-1.923792e+01	-4.366096e+02
1.790000e-06	-2.542889e-06	-6.355051e-09	-1.910602e+01	-4.351237e+02
1.800000e-06	-2.525407e-06	-6.337578e-09	-1.897466e+01	-4.336365e+02
1.810000e-06	-2.507849e-06	-6.321249e-09	-1.884274e+01	-4.321486e+02
1.820000e-06	-2.490209e-06	-6.301487e-09	-1.871021e+01	-4.306606e+02
1.830000e-06	-2.472618e-06	-6.279410e-09	-1.857803e+01	-4.291730e+02
1.840000e-06	-2.454928e-06	-6.254785e-09	-1.844512e+01	-4.276862e+02
1.850000e-06	-2.437174e-06	-6.232709e-09	-1.831172e+01	-4.262008e+02
1.860000e-06	-2.419572e-06	-6.209349e-09	-1.817947e+01	-4.247171e+02
1.870000e-06	-2.401873e-06	-6.185394e-09	-1.804649e+01	-4.232355e+02
1.880000e-06	-2.384000e-06	-6.163829e-09	-1.791220e+01	-4.217563e+02
1.890000e-06	-2.366129e-06	-6.145769e-09	-1.777793e+01	-4.202797e+02
1.900000e-06	-2.348187e-06	-6.126224e-09	-1.764312e+01	-4.188059e+02
1.910000e-06	-2.330256e-06	-6.103870e-09	-1.750839e+01	-4.173350e+02
1.920000e-06	-2.312297e-06	-6.084328e-09	-1.737346e+01	-4.158668e+02
1.930000e-06	-2.294323e-06	-6.063169e-09	-1.723841e+01	-4.144011e+02
1.940000e-06	-2.276368e-06	-6.040874e-09	-1.710351e+01	-4.129374e+02
1.950000e-06	-2.258354e-06	-6.013498e-09	-1.696816e+01	-4.114751e+02
1.960000e-06	-2.240263e-06	-5.983955e-09	-1.683223e+01	-4.100135e+02
1.970000e-06	-2.222103e-06	-5.959165e-09	-1.669579e+01	-4.085515e+02
1.980000e-06	-2.203840e-06	-5.937643e-09	-1.655857e+01	-4.070881e+02
1.990000e-06	-2.185489e-06	-5.920865e-09	-1.642069e+01	-4.056220e+02
2.000000e-06	-2.167220e-06	-5.903791e-09	-1.628342e+01	-4.041516e+02
2.010000e-06	-2.148926e-06	-5.888976e-09	-1.614597e+01	-4.026757e+02
2.020000e-06	-2.130456e-06	-5.870987e-09	-1.600719e+01	-4.011925e+02
2.030000e-06	-2.111972e-06	-5.848339e-09	-1.586832e+01	-3.997005e+02
2.040000e-06	-2.093365e-06	-5.822597e-09	-1.572851e+01	-3.981983e+02
2.050000e-06	-2.074704e-06	-5.795604e-09	-1.558830e+01	-3.966842e+02
2.060000e-06	-2.056155e-06	-5.769309e-09	-1.544894e+01	-3.951570e+02
2.070000e-06	-2.037611e-06	-5.742181e-09	-1.530960e+01	-3.936152e+02
2.080000e-06	-2.018960e-06	-5.720346e-09	-1.516947e+01	-3.920579e+02
2.090000e-06	-2.000118e-06	-5.700419e-09	-1.502790e+01	-3.904840e+02
2.100000e-06	-1.981213e-06	-5.683778e-09	-1.488586e+01	-3.888927e+02
2.110000e-06	-1.962321e-06	-5.667445e-09	-1.474391e+01	-3.872834e+02
2.120000e-06	-1.943337e-06	-5.645316e-09	-1.460128e+01	-3.856554e+02
2.130000e-06	-1.924238e-06	-5.619554e-09	-1.445778e+01	-3.840084e+02
2.140000e-06	-1.905070e-06	-5.589038e-09	-1.431375e+01	-3.823420e+02
2.150000e-06	-1.885840e-06	-5.558146e-09	-1.416927e+01	-3.806561e+02
2.160000e-06	-1.866509e-06	-5.528732e-09	-1.402403e+01	-3.789503e+02
2.170000e-06	-1.847073e-06	-5.502745e-09	-1.387800e+01	-3.772244e+02
2.180000e-06	-1.827725e-06	-5.482436e-09	-1.373263e+01	-3.754781e+02
2.190000e-06	-1.808277e-06	-5.463880e-09	-1.358650e+01	-3.737112e+02
2.200000e-06	-1.788736e-06	-5.445621e-09	-1.343968e+01	-3.719232e+02
2.210000e-06	-1.769150e-06	-5.422573e-09	-1.329252e+01	-3.701136e+02
2.220000e-06	-1.749465e-06	-5.394267e-09	-1.314462e+01	-3.682819e+02
2.230000e-06	-1.729709e-06	-5.361219e-09	-1.299618e+01	-3.664272e+02
2.240000e-06	-1.709975e-06	-5.328053e-09	-1.284791e+01	-3.645490e+02
2.250000e-06	-1.690264e-06	-5.297979e-09	-1.269981e+01	-3.626463e+02
2.260000e-06	-1.670397e-06	-5.268329e-09	-1.255054e+01	-3.607183e+02
2.270000e-06	-1.650455e-06	-5.238392e-09	-1.240071e+01	-3.587644e+02
2.280000e-06	-1.630489e-06	-5.208356e-09	-1.225069e+01	-3.567836e+02
2.290000e-06	-1.610581e-06	-5.180624e-09	-1.210111e+01	-3.547756e+02
2.300000e-06	-1.590659e-06	-5.152444e-09	-1.195143e+01	-3.527396e+02
2.310000e-06	-1.570669e-06	-5.124238e-09	-1.180123e+01	-3.506757e+02
2.320000e-06	-1.550658e-06	-5.095937e-09	-1.165088e+01	-3.485836e+02
2.330000e-06	-1.530680e-06	-5.066783e-09	-1.150077e+01	-3.464638e+02
2.340000e-06	-1.510690e-06	-5.037690e-09	-1.135058e+01	-3.443167e+02
2.350000e-06	-1.490731e-06	-5.004285e-09	-1.120062e+01	-3.421433e+02
2.360000e-06	-1.470748e-06	-4.969119e-09	-1.105047e+01	-3.399447e+02
2.370000e-06	-1.450633e-06	-4.932554e-09	-1.089934e+01	-3.377224e+02
2.380000e-06	-1.430464e-06	-4.896327e-09	-1.074780e+01	-3.354782e+02
2.390000e-06	-1.410279e-06	-4.864800e-09	-1.059614e+01	-3.332139e+02
2.400000e-06	-1.390095e-06	-4.834233e-09	-1.044449e+01	-3.309319e+02
2.410000e-06	-1.369898e-06	-4.802877e-09	-1.029274e+01	-3.286344e+02
2.420000e-06	-1.349700e-06	-4.772413e-09	-1.014098e+01	-3.263239e+02
2.430000e-06	-1.329515e-06	-4.744364e-09	-9.989322e+00	-3.240027e+02
2.440000e-06	-1.309306e-06	-4.715936e-09	-9.837481e+00	-3.216732e+02
2.450000e-06	-1.289093e-06	-4.684640e-09	-9.685612e+00	-3.193377e+02
2.460000e-06	-1.268907e-06	-4.648182e-09	-9.533941e+00	-3.169984e+02
2.470000e-06	-1.248686e-06	-4.608011e-09	-9.382015e+00	-3.146572e+02
2.480000e-06	-1.228425e-06	-4.569278e-09	-9.229779e+00	-3.123157e+02
2.490000e-06	-1.208126e-06	-4.534811e-09	-9.077262e+00	-3.099754e+02
2.500000e-06	-1.187826e-06	-4.504392e-09	-8.924739e+00	-3.076372e+02
2.510000e-06	-1.167587e-06	-4.474214e-09	-8.772671e+00	-3.053021e+02
2.520000e-06	-1.147373e-06	-4.443613e-09	-8.620794e+00	-3.029704e+02
2.530000e-06	-1.127121e-06	-4.413540e-09	-8.468628e+00	-3.006422e+02
2.540000e-06	-1.106808e-06	-4.380691e-09	-8.316013e+00	-2.983175e+02
2.550000e-06	-1.086496e-06	-4.344577e-09	-8.163392e+00	-2.959958e+02
2.560000e-06	-1.066216e-06	-4.305082e-09	-8.011024e+00	-2.936764e+02
2.570000e-06	-1.045912e-06	-4.267997e-09	-7.858464e+00	-2.913585e+02
2.580000e-06	-1.025617e-06	-4.236972e-09	-7.705983e+00	-2.890411e+02
2.590000e-06	-1.005303e-06	-4.207898e-09	-7.553353e+00	-2.867230e+02
2.600000e-06	-9.849263e-07	-4.179244e-09	-7.400251e+00	-2.844031e+02
2.610000e-06	-9.645207e-07	-4.149503e-09	-7.246934e+00	-2.820801e+02
2.620000e-06	-9.441056e-07	-4.117539e-09	-7.093544e+00	-2.797526e+02
2.630000e-06	-9.237264e-07	-4.082525e-09	-6.940425e+00	-2.774195e+02
2.640000e-06	-9.033308e-07	-4.045317e-09	-6.787182e+00	-2.750795e+02
2.650000e-06	-8.828744e-07	-4.005470e-09	-6.633483e+00	-2.727314e+02
2.660000e-06	-8.624277e-07	-3.967786e-09	-6.479857e+00	-2.703740e+02
2.670000e-06	-8.419659e-07	-3.932357e-09	-6.326117e+00	-2.680061e+02
2.680000e-06	-8.214797e-07	-3.898729e-09	-6.172193e+00	-2.656267e+02
2.690000e-06	-8.010284e-07	-3.868567e-09	-6.018532e+00	-2.632347e+02
2.700000e-06	-7.805935e-07	-3.837552e-09	-5.864995e+00	-2.608289e+02
2.710000e-06	-7.601199e-07	-3.805217e-09	-5.711166e+00	-2.584083e+02
2.720000e-06	-7.394980e-07	-3.768181e-09	-5.556223e+00	-2.559718e+02
2.730000e-06	-7.188592e-07	-3.729207e-09	-5.401154e+00	-2.535181e+02
2.740000e-06	-6.982860e-07	-3.689521e-09	-5.246577e+00	-2.510460e+02
2.750000e-06	-6.777432e-07	-3.650199e-09	-5.092228e+00	-2.485544e+02
2.760000e-06	-6.572495e-07	-3.615448e-09	-4.938249e+00	-2.460417e+02
2.770000e-06	-6.366964e-07	-3.580083e-09	-4.783823e+00	-2.435065e+02
2.780000e-06	-6.160720e-07	-3.545759e-09	-4.628862e+00	-2.409475e+02
2.790000e-06	-5.954409e-07	-3.513173e-09	-4.473850e+00	-2.383631e+02
2.800000e-06	-5.748113e-07	-3.479552e-09	-4.318849e+00	-2.357517e+02
2.810000e-06	-5.541860e-07	-3.441183e-09	-4.163880e+00	-2.331119e+02
2.820000e-06	-5.335107e-07	-3.397939e-09	-4.008536e+00	-2.304421e+02
2.830000e-06	-5.127712e-07	-3.355592e-09	-3.852710e+00	-2.277408e+02
2.840000e-06	-4.920273e-07	-3.316167e-09	-3.696851e+00	-2.250068e+02
