# Temperatura_=_20.0
# Concentracion g/m^3_=_10000.0
# C_Vs_to_Am_M_A/Vsm_=_65563218390.804596
# pendiente_HvsI_1/m_=_3716.3
# ordenada_HvsI_A/m_=_1297.0
# frecuencia_Hz_=_81171.02833696261

Tiempo_(s)	Campo_(V.s)	Magnetizacion_(V.s)	Campo_(kA/m)	Magnetizacion_(A/m)
0.000000e+00	-4.139513e-06	-8.436033e-09	-3.103555e+01	-5.463002e+02
1.000000e-08	-4.139677e-06	-8.397823e-09	-3.103678e+01	-5.464560e+02
2.000000e-08	-4.139764e-06	-8.413332e-09	-3.103743e+01	-5.466057e+02
3.000000e-08	-4.139830e-06	-8.448150e-09	-3.103793e+01	-5.467474e+02
4.000000e-08	-4.139816e-06	-8.285858e-09	-3.103782e+01	-5.468792e+02
5.000000e-08	-4.139720e-06	-8.203443e-09	-3.103710e+01	-5.469995e+02
6.000000e-08	-4.139496e-06	-8.349076e-09	-3.103542e+01	-5.471069e+02
7.000000e-08	-4.139177e-06	-8.251264e-09	-3.103303e+01	-5.472007e+02
8.000000e-08	-4.138846e-06	-8.332923e-09	-3.103055e+01	-5.472803e+02
9.000000e-08	-4.138501e-06	-8.421488e-09	-3.102796e+01	-5.473453e+02
1.000000e-07	-4.137999e-06	-8.463959e-09	-3.102420e+01	-5.473960e+02
1.100000e-07	-4.137415e-06	-8.464568e-09	-3.101982e+01	-5.474326e+02
1.200000e-07	-4.136836e-06	-8.304380e-09	-3.101548e+01	-5.474558e+02
1.300000e-07	-4.136173e-06	-8.399978e-09	-3.101051e+01	-5.474666e+02
1.400000e-07	-4.135378e-06	-8.286130e-09	-3.100455e+01	-5.474657e+02
1.500000e-07	-4.134428e-06	-8.222492e-09	-3.099743e+01	-5.474544e+02
1.600000e-07	-4.133313e-06	-8.390369e-09	-3.098907e+01	-5.474337e+02
1.700000e-07	-4.132175e-06	-8.370312e-09	-3.098053e+01	-5.474048e+02
1.800000e-07	-4.131010e-06	-8.377915e-09	-3.097180e+01	-5.473685e+02
1.900000e-07	-4.129660e-06	-8.293315e-09	-3.096167e+01	-5.473259e+02
2.000000e-07	-4.128146e-06	-8.422606e-09	-3.095033e+01	-5.472775e+02
2.100000e-07	-4.126444e-06	-8.420607e-09	-3.093757e+01	-5.472238e+02
2.200000e-07	-4.124488e-06	-8.241122e-09	-3.092290e+01	-5.471650e+02
2.300000e-07	-4.122397e-06	-8.310689e-09	-3.090722e+01	-5.471012e+02
2.400000e-07	-4.120242e-06	-8.324452e-09	-3.089106e+01	-5.470319e+02
2.500000e-07	-4.117931e-06	-8.420542e-09	-3.087374e+01	-5.469567e+02
2.600000e-07	-4.115344e-06	-8.274399e-09	-3.085434e+01	-5.468746e+02
2.700000e-07	-4.112646e-06	-8.275913e-09	-3.083412e+01	-5.467848e+02
2.800000e-07	-4.109738e-06	-8.359094e-09	-3.081231e+01	-5.466859e+02
2.900000e-07	-4.106551e-06	-8.324360e-09	-3.078842e+01	-5.465766e+02
3.000000e-07	-4.103297e-06	-8.349126e-09	-3.076403e+01	-5.464554e+02
3.100000e-07	-4.099805e-06	-8.256040e-09	-3.073784e+01	-5.463208e+02
3.200000e-07	-4.096172e-06	-8.332374e-09	-3.071061e+01	-5.461712e+02
3.300000e-07	-4.092459e-06	-8.290817e-09	-3.068277e+01	-5.460052e+02
3.400000e-07	-4.088657e-06	-8.295750e-09	-3.065426e+01	-5.458213e+02
3.500000e-07	-4.084814e-06	-8.308274e-09	-3.062545e+01	-5.456184e+02
3.600000e-07	-4.080900e-06	-8.230785e-09	-3.059610e+01	-5.453955e+02
3.700000e-07	-4.076892e-06	-8.263242e-09	-3.056606e+01	-5.451517e+02
3.800000e-07	-4.072728e-06	-8.240197e-09	-3.053484e+01	-5.448868e+02
3.900000e-07	-4.068520e-06	-8.340190e-09	-3.050328e+01	-5.446003e+02
4.000000e-07	-4.064285e-06	-8.266026e-09	-3.047154e+01	-5.442926e+02
4.100000e-07	-4.059986e-06	-8.205592e-09	-3.043930e+01	-5.439642e+02
4.200000e-07	-4.055630e-06	-8.259181e-09	-3.040664e+01	-5.436158e+02
4.300000e-07	-4.051235e-06	-8.263309e-09	-3.037370e+01	-5.432487e+02
4.400000e-07	-4.046860e-06	-8.254548e-09	-3.034090e+01	-5.428642e+02
4.500000e-07	-4.042389e-06	-8.132204e-09	-3.030737e+01	-5.424642e+02
4.600000e-07	-4.037827e-06	-8.212756e-09	-3.027317e+01	-5.420505e+02
4.700000e-07	-4.033201e-06	-8.253610e-09	-3.023848e+01	-5.416252e+02
4.800000e-07	-4.028381e-06	-8.220451e-09	-3.020235e+01	-5.411907e+02
4.900000e-07	-4.023512e-06	-8.192060e-09	-3.016585e+01	-5.407492e+02
5.000000e-07	-4.018600e-06	-8.165553e-09	-3.012901e+01	-5.403030e+02
5.100000e-07	-4.013544e-06	-8.219219e-09	-3.009111e+01	-5.398544e+02
5.200000e-07	-4.008358e-06	-8.153138e-09	-3.005223e+01	-5.394055e+02
5.300000e-07	-4.002992e-06	-8.163472e-09	-3.001199e+01	-5.389584e+02
5.400000e-07	-3.997478e-06	-8.139619e-09	-2.997066e+01	-5.385148e+02
5.500000e-07	-3.991955e-06	-8.121056e-09	-2.992925e+01	-5.380762e+02
5.600000e-07	-3.986328e-06	-8.150837e-09	-2.988706e+01	-5.376438e+02
5.700000e-07	-3.980610e-06	-8.130475e-09	-2.984419e+01	-5.372187e+02
5.800000e-07	-3.974857e-06	-8.136912e-09	-2.980106e+01	-5.368013e+02
5.900000e-07	-3.968853e-06	-8.072954e-09	-2.975605e+01	-5.363920e+02
6.000000e-07	-3.962782e-06	-8.114230e-09	-2.971053e+01	-5.359909e+02
6.100000e-07	-3.956669e-06	-8.125302e-09	-2.966469e+01	-5.355975e+02
6.200000e-07	-3.950422e-06	-8.088228e-09	-2.961786e+01	-5.352114e+02
6.300000e-07	-3.944160e-06	-8.078261e-09	-2.957091e+01	-5.348318e+02
6.400000e-07	-3.937801e-06	-8.059725e-09	-2.952323e+01	-5.344576e+02
6.500000e-07	-3.931348e-06	-8.098926e-09	-2.947486e+01	-5.340878e+02
6.600000e-07	-3.924817e-06	-8.048439e-09	-2.942589e+01	-5.337212e+02
6.700000e-07	-3.918220e-06	-8.034957e-09	-2.937643e+01	-5.333565e+02
6.800000e-07	-3.911530e-06	-8.025884e-09	-2.932627e+01	-5.329924e+02
6.900000e-07	-3.904731e-06	-8.033930e-09	-2.927530e+01	-5.326277e+02
7.000000e-07	-3.897780e-06	-8.058668e-09	-2.922318e+01	-5.322612e+02
7.100000e-07	-3.890554e-06	-8.017590e-09	-2.916900e+01	-5.318917e+02
7.200000e-07	-3.883251e-06	-8.024334e-09	-2.911425e+01	-5.315183e+02
7.300000e-07	-3.875907e-06	-8.005040e-09	-2.905919e+01	-5.311399e+02
7.400000e-07	-3.868328e-06	-8.019416e-09	-2.900237e+01	-5.307559e+02
7.500000e-07	-3.860688e-06	-7.998151e-09	-2.894509e+01	-5.303654e+02
7.600000e-07	-3.852951e-06	-7.968906e-09	-2.888708e+01	-5.299677e+02
7.700000e-07	-3.845080e-06	-7.986735e-09	-2.882807e+01	-5.295624e+02
7.800000e-07	-3.837270e-06	-7.976556e-09	-2.876952e+01	-5.291487e+02
7.900000e-07	-3.829382e-06	-7.992706e-09	-2.871038e+01	-5.287262e+02
8.000000e-07	-3.821345e-06	-7.958206e-09	-2.865012e+01	-5.282943e+02
8.100000e-07	-3.813210e-06	-7.949878e-09	-2.858913e+01	-5.278524e+02
8.200000e-07	-3.804974e-06	-7.943909e-09	-2.852738e+01	-5.273997e+02
8.300000e-07	-3.796754e-06	-7.932709e-09	-2.846575e+01	-5.269356e+02
8.400000e-07	-3.788519e-06	-7.931528e-09	-2.840401e+01	-5.264592e+02
8.500000e-07	-3.780234e-06	-7.891355e-09	-2.834190e+01	-5.259697e+02
8.600000e-07	-3.771886e-06	-7.899485e-09	-2.827930e+01	-5.254660e+02
8.700000e-07	-3.763484e-06	-7.891386e-09	-2.821631e+01	-5.249471e+02
8.800000e-07	-3.755005e-06	-7.892996e-09	-2.815274e+01	-5.244119e+02
8.900000e-07	-3.746489e-06	-7.874003e-09	-2.808890e+01	-5.238595e+02
9.000000e-07	-3.738050e-06	-7.851965e-09	-2.802563e+01	-5.232887e+02
9.100000e-07	-3.729475e-06	-7.864458e-09	-2.796133e+01	-5.226987e+02
9.200000e-07	-3.720741e-06	-7.844021e-09	-2.789585e+01	-5.220885e+02
9.300000e-07	-3.712029e-06	-7.836763e-09	-2.783054e+01	-5.214574e+02
9.400000e-07	-3.703216e-06	-7.806218e-09	-2.776446e+01	-5.208050e+02
9.500000e-07	-3.694240e-06	-7.800566e-09	-2.769717e+01	-5.201309e+02
9.600000e-07	-3.685153e-06	-7.795032e-09	-2.762903e+01	-5.194351e+02
9.700000e-07	-3.676010e-06	-7.773930e-09	-2.756048e+01	-5.187177e+02
9.800000e-07	-3.666750e-06	-7.767233e-09	-2.749106e+01	-5.179792e+02
9.900000e-07	-3.657186e-06	-7.742881e-09	-2.741935e+01	-5.172203e+02
1.000000e-06	-3.647509e-06	-7.748070e-09	-2.734680e+01	-5.164421e+02
1.010000e-06	-3.637740e-06	-7.731704e-09	-2.727356e+01	-5.156456e+02
1.020000e-06	-3.627705e-06	-7.716389e-09	-2.719832e+01	-5.148324e+02
1.030000e-06	-3.617375e-06	-7.698056e-09	-2.712088e+01	-5.140041e+02
1.040000e-06	-3.607116e-06	-7.674667e-09	-2.704396e+01	-5.131624e+02
1.050000e-06	-3.596676e-06	-7.668671e-09	-2.696568e+01	-5.123091e+02
1.060000e-06	-3.585872e-06	-7.638185e-09	-2.688468e+01	-5.114461e+02
1.070000e-06	-3.574958e-06	-7.627342e-09	-2.680286e+01	-5.105754e+02
1.080000e-06	-3.564031e-06	-7.612618e-09	-2.672093e+01	-5.096988e+02
1.090000e-06	-3.552949e-06	-7.611620e-09	-2.663785e+01	-5.088180e+02
1.100000e-06	-3.541529e-06	-7.606403e-09	-2.655223e+01	-5.079348e+02
1.110000e-06	-3.530013e-06	-7.581703e-09	-2.646589e+01	-5.070506e+02
1.120000e-06	-3.518407e-06	-7.568414e-09	-2.637887e+01	-5.061669e+02
1.130000e-06	-3.506715e-06	-7.540580e-09	-2.629122e+01	-5.052847e+02
1.140000e-06	-3.494938e-06	-7.527483e-09	-2.620292e+01	-5.044051e+02
1.150000e-06	-3.483003e-06	-7.503839e-09	-2.611343e+01	-5.035289e+02
1.160000e-06	-3.470988e-06	-7.487325e-09	-2.602335e+01	-5.026566e+02
1.170000e-06	-3.458922e-06	-7.481484e-09	-2.593289e+01	-5.017887e+02
1.180000e-06	-3.446726e-06	-7.472094e-09	-2.584145e+01	-5.009256e+02
1.190000e-06	-3.434521e-06	-7.469660e-09	-2.574995e+01	-5.000673e+02
1.200000e-06	-3.422288e-06	-7.446501e-09	-2.565823e+01	-4.992138e+02
1.210000e-06	-3.409922e-06	-7.432880e-09	-2.556552e+01	-4.983650e+02
1.220000e-06	-3.397453e-06	-7.413881e-09	-2.547203e+01	-4.975209e+02
1.230000e-06	-3.384924e-06	-7.396312e-09	-2.537810e+01	-4.966810e+02
1.240000e-06	-3.372342e-06	-7.378850e-09	-2.528377e+01	-4.958452e+02
1.250000e-06	-3.359692e-06	-7.356967e-09	-2.518892e+01	-4.950129e+02
1.260000e-06	-3.346963e-06	-7.351441e-09	-2.509349e+01	-4.941839e+02
1.270000e-06	-3.334110e-06	-7.338125e-09	-2.499713e+01	-4.933576e+02
1.280000e-06	-3.321068e-06	-7.332915e-09	-2.489935e+01	-4.925335e+02
1.290000e-06	-3.307998e-06	-7.319094e-09	-2.480135e+01	-4.917110e+02
1.300000e-06	-3.294909e-06	-7.302552e-09	-2.470322e+01	-4.908895e+02
1.310000e-06	-3.281749e-06	-7.287437e-09	-2.460456e+01	-4.900682e+02
1.320000e-06	-3.268489e-06	-7.267946e-09	-2.450514e+01	-4.892465e+02
1.330000e-06	-3.255099e-06	-7.257893e-09	-2.440475e+01	-4.884234e+02
1.340000e-06	-3.241731e-06	-7.236307e-09	-2.430452e+01	-4.875980e+02
1.350000e-06	-3.228195e-06	-7.221666e-09	-2.420304e+01	-4.867693e+02
1.360000e-06	-3.214399e-06	-7.206797e-09	-2.409961e+01	-4.859363e+02
1.370000e-06	-3.200545e-06	-7.192825e-09	-2.399574e+01	-4.850977e+02
1.380000e-06	-3.186692e-06	-7.178436e-09	-2.389188e+01	-4.842526e+02
1.390000e-06	-3.172790e-06	-7.158247e-09	-2.378765e+01	-4.833995e+02
1.400000e-06	-3.158769e-06	-7.150365e-09	-2.368253e+01	-4.825374e+02
1.410000e-06	-3.144712e-06	-7.138210e-09	-2.357713e+01	-4.816651e+02
1.420000e-06	-3.130602e-06	-7.127600e-09	-2.347135e+01	-4.807813e+02
1.430000e-06	-3.116351e-06	-7.108305e-09	-2.336450e+01	-4.798850e+02
1.440000e-06	-3.102090e-06	-7.088654e-09	-2.325758e+01	-4.789752e+02
1.450000e-06	-3.087733e-06	-7.075744e-09	-2.314995e+01	-4.780510e+02
1.460000e-06	-3.073276e-06	-7.057403e-09	-2.304155e+01	-4.771114e+02
1.470000e-06	-3.058840e-06	-7.041743e-09	-2.293332e+01	-4.761559e+02
1.480000e-06	-3.044281e-06	-7.019580e-09	-2.282417e+01	-4.751838e+02
1.490000e-06	-3.029529e-06	-7.007696e-09	-2.271357e+01	-4.741946e+02
1.500000e-06	-3.014610e-06	-6.997483e-09	-2.260171e+01	-4.731880e+02
1.510000e-06	-2.999672e-06	-6.981169e-09	-2.248971e+01	-4.721638e+02
1.520000e-06	-2.984801e-06	-6.963182e-09	-2.237822e+01	-4.711217e+02
1.530000e-06	-2.969843e-06	-6.940621e-09	-2.226608e+01	-4.700617e+02
1.540000e-06	-2.954577e-06	-6.924536e-09	-2.215162e+01	-4.689837e+02
1.550000e-06	-2.939183e-06	-6.900506e-09	-2.203620e+01	-4.678877e+02
1.560000e-06	-2.923831e-06	-6.876672e-09	-2.192110e+01	-4.667737e+02
1.570000e-06	-2.908387e-06	-6.855393e-09	-2.180532e+01	-4.656416e+02
1.580000e-06	-2.892706e-06	-6.839692e-09	-2.168775e+01	-4.644915e+02
1.590000e-06	-2.876971e-06	-6.828871e-09	-2.156978e+01	-4.633233e+02
1.600000e-06	-2.861260e-06	-6.810648e-09	-2.145198e+01	-4.621368e+02
1.610000e-06	-2.845239e-06	-6.796379e-09	-2.133187e+01	-4.609321e+02
1.620000e-06	-2.829109e-06	-6.776101e-09	-2.121094e+01	-4.597090e+02
1.630000e-06	-2.812951e-06	-6.755987e-09	-2.108979e+01	-4.584674e+02
1.640000e-06	-2.796563e-06	-6.733068e-09	-2.096692e+01	-4.572073e+02
1.650000e-06	-2.780079e-06	-6.702407e-09	-2.084334e+01	-4.559284e+02
1.660000e-06	-2.763534e-06	-6.676623e-09	-2.071930e+01	-4.546310e+02
1.670000e-06	-2.746980e-06	-6.654439e-09	-2.059519e+01	-4.533150e+02
1.680000e-06	-2.730310e-06	-6.637821e-09	-2.047020e+01	-4.519807e+02
1.690000e-06	-2.713493e-06	-6.618162e-09	-2.034412e+01	-4.506284e+02
1.700000e-06	-2.696630e-06	-6.598662e-09	-2.021769e+01	-4.492585e+02
1.710000e-06	-2.679684e-06	-6.581667e-09	-2.009064e+01	-4.478717e+02
1.720000e-06	-2.662614e-06	-6.560927e-09	-1.996266e+01	-4.464687e+02
1.730000e-06	-2.645439e-06	-6.537206e-09	-1.983389e+01	-4.450505e+02
1.740000e-06	-2.628205e-06	-6.509055e-09	-1.970468e+01	-4.436181e+02
1.750000e-06	-2.610885e-06	-6.487004e-09	-1.957483e+01	-4.421726e+02
1.760000e-06	-2.593519e-06	-6.465725e-09	-1.944463e+01	-4.407154e+02
1.770000e-06	-2.576085e-06	-6.443367e-09	-1.931392e+01	-4.392476e+02
1.780000e-06	-2.558682e-06	-6.420419e-09	-1.918344e+01	-4.377707e+02
1.790000e-06	-2.541211e-06	-6.396466e-09	-1.905245e+01	-4.362861e+02
1.800000e-06	-2.523692e-06	-6.378478e-09	-1.892111e+01	-4.347949e+02
1.810000e-06	-2.506176e-06	-6.356740e-09	-1.878978e+01	-4.332984e+02
1.820000e-06	-2.488563e-06	-6.337852e-09	-1.865773e+01	-4.317976e+02
1.830000e-06	-2.470778e-06	-6.314981e-09	-1.852439e+01	-4.302936e+02
1.840000e-06	-2.452970e-06	-6.287056e-09	-1.839088e+01	-4.287871e+02
1.850000e-06	-2.435236e-06	-6.260806e-09	-1.825792e+01	-4.272787e+02
1.860000e-06	-2.417449e-06	-6.234813e-09	-1.812456e+01	-4.257688e+02
1.870000e-06	-2.399573e-06	-6.215394e-09	-1.799053e+01	-4.242577e+02
1.880000e-06	-2.381633e-06	-6.191399e-09	-1.785604e+01	-4.227453e+02
1.890000e-06	-2.363642e-06	-6.172140e-09	-1.772115e+01	-4.212317e+02
1.900000e-06	-2.345643e-06	-6.155855e-09	-1.758621e+01	-4.197165e+02
1.910000e-06	-2.327697e-06	-6.135387e-09	-1.745166e+01	-4.181993e+02
1.920000e-06	-2.309645e-06	-6.112475e-09	-1.731631e+01	-4.166798e+02
1.930000e-06	-2.291524e-06	-6.082875e-09	-1.718046e+01	-4.151574e+02
1.940000e-06	-2.273402e-06	-6.055256e-09	-1.704459e+01	-4.136316e+02
1.950000e-06	-2.255287e-06	-6.027410e-09	-1.690877e+01	-4.121019e+02
1.960000e-06	-2.237142e-06	-6.001415e-09	-1.677273e+01	-4.105677e+02
1.970000e-06	-2.218860e-06	-5.978361e-09	-1.663566e+01	-4.090285e+02
1.980000e-06	-2.200530e-06	-5.958796e-09	-1.649824e+01	-4.074840e+02
1.990000e-06	-2.182197e-06	-5.945414e-09	-1.636079e+01	-4.059338e+02
2.000000e-06	-2.163762e-06	-5.927756e-09	-1.622257e+01	-4.043775e+02
2.010000e-06	-2.145210e-06	-5.903843e-09	-1.608348e+01	-4.028148e+02
2.020000e-06	-2.126678e-06	-5.874865e-09	-1.594454e+01	-4.012455e+02
2.030000e-06	-2.108176e-06	-5.844304e-09	-1.580582e+01	-3.996692e+02
2.040000e-06	-2.089491e-06	-5.816707e-09	-1.566573e+01	-3.980855e+02
2.050000e-06	-2.070657e-06	-5.792956e-09	-1.552453e+01	-3.964942e+02
2.060000e-06	-2.051919e-06	-5.771159e-09	-1.538404e+01	-3.948946e+02
2.070000e-06	-2.033210e-06	-5.746713e-09	-1.524377e+01	-3.932862e+02
2.080000e-06	-2.014474e-06	-5.725582e-09	-1.510330e+01	-3.916681e+02
2.090000e-06	-1.995654e-06	-5.706202e-09	-1.496220e+01	-3.900396e+02
2.100000e-06	-1.976634e-06	-5.688879e-09	-1.481960e+01	-3.883995e+02
2.110000e-06	-1.957614e-06	-5.666918e-09	-1.467700e+01	-3.867465e+02
2.120000e-06	-1.938642e-06	-5.638690e-09	-1.453475e+01	-3.850795e+02
2.130000e-06	-1.919492e-06	-5.610651e-09	-1.439119e+01	-3.833967e+02
2.140000e-06	-1.900230e-06	-5.581486e-09	-1.424677e+01	-3.816968e+02
2.150000e-06	-1.881018e-06	-5.553957e-09	-1.410272e+01	-3.799779e+02
2.160000e-06	-1.861721e-06	-5.526216e-09	-1.395805e+01	-3.782385e+02
2.170000e-06	-1.842316e-06	-5.501692e-09	-1.381256e+01	-3.764769e+02
2.180000e-06	-1.822675e-06	-5.482540e-09	-1.366531e+01	-3.746915e+02
2.190000e-06	-1.803018e-06	-5.465484e-09	-1.351793e+01	-3.728810e+02
2.200000e-06	-1.783454e-06	-5.446052e-09	-1.337125e+01	-3.710440e+02
2.210000e-06	-1.763856e-06	-5.418446e-09	-1.322432e+01	-3.691794e+02
2.220000e-06	-1.744331e-06	-5.385881e-09	-1.307793e+01	-3.672864e+02
2.230000e-06	-1.724710e-06	-5.352331e-09	-1.293083e+01	-3.653645e+02
2.240000e-06	-1.704874e-06	-5.319861e-09	-1.278211e+01	-3.634134e+02
2.250000e-06	-1.684895e-06	-5.288309e-09	-1.263232e+01	-3.614331e+02
2.260000e-06	-1.664977e-06	-5.255546e-09	-1.248298e+01	-3.594238e+02
2.270000e-06	-1.645107e-06	-5.224631e-09	-1.233401e+01	-3.573862e+02
2.280000e-06	-1.625146e-06	-5.196535e-09	-1.218435e+01	-3.553211e+02
2.290000e-06	-1.605160e-06	-5.169033e-09	-1.203451e+01	-3.532294e+02
2.300000e-06	-1.585195e-06	-5.137989e-09	-1.188483e+01	-3.511125e+02
2.310000e-06	-1.565166e-06	-5.107265e-09	-1.173466e+01	-3.489718e+02
2.320000e-06	-1.545074e-06	-5.080282e-09	-1.158402e+01	-3.468086e+02
2.330000e-06	-1.524957e-06	-5.052773e-09	-1.143320e+01	-3.446246e+02
2.340000e-06	-1.504800e-06	-5.021950e-09	-1.128207e+01	-3.424214e+02
2.350000e-06	-1.484648e-06	-4.987492e-09	-1.113099e+01	-3.402004e+02
2.360000e-06	-1.464535e-06	-4.953014e-09	-1.098019e+01	-3.379633e+02
2.370000e-06	-1.444353e-06	-4.915904e-09	-1.082888e+01	-3.357114e+02
2.380000e-06	-1.424120e-06	-4.879337e-09	-1.067718e+01	-3.334463e+02
2.390000e-06	-1.403919e-06	-4.847160e-09	-1.052573e+01	-3.311690e+02
2.400000e-06	-1.383719e-06	-4.818339e-09	-1.037428e+01	-3.288808e+02
2.410000e-06	-1.363493e-06	-4.791927e-09	-1.022264e+01	-3.265828e+02
2.420000e-06	-1.343227e-06	-4.762336e-09	-1.007070e+01	-3.242758e+02
2.430000e-06	-1.322939e-06	-4.729476e-09	-9.918588e+00	-3.219609e+02
2.440000e-06	-1.302651e-06	-4.695430e-09	-9.766486e+00	-3.196388e+02
2.450000e-06	-1.282382e-06	-4.658097e-09	-9.614522e+00	-3.173102e+02
2.460000e-06	-1.262101e-06	-4.615765e-09	-9.462468e+00	-3.149758e+02
2.470000e-06	-1.241811e-06	-4.575146e-09	-9.310345e+00	-3.126363e+02
2.480000e-06	-1.221510e-06	-4.543011e-09	-9.158136e+00	-3.102923e+02
2.490000e-06	-1.201193e-06	-4.518129e-09	-9.005817e+00	-3.079443e+02
2.500000e-06	-1.180873e-06	-4.494809e-09	-8.853468e+00	-3.055929e+02
2.510000e-06	-1.160529e-06	-4.465804e-09	-8.700938e+00	-3.032385e+02
2.520000e-06	-1.140173e-06	-4.428835e-09	-8.548327e+00	-3.008815e+02
2.530000e-06	-1.119786e-06	-4.388282e-09	-8.395474e+00	-2.985224e+02
2.540000e-06	-1.099394e-06	-4.347504e-09	-8.242584e+00	-2.961614e+02
2.550000e-06	-1.078998e-06	-4.305486e-09	-8.089670e+00	-2.937986e+02
2.560000e-06	-1.058647e-06	-4.265636e-09	-7.937094e+00	-2.914340e+02
2.570000e-06	-1.038348e-06	-4.233025e-09	-7.784902e+00	-2.890675e+02
2.580000e-06	-1.017997e-06	-4.211520e-09	-7.632321e+00	-2.866987e+02
2.590000e-06	-9.976250e-07	-4.192149e-09	-7.479585e+00	-2.843273e+02
2.600000e-06	-9.772121e-07	-4.161986e-09	-7.326542e+00	-2.819525e+02
2.610000e-06	-9.567264e-07	-4.122181e-09	-7.172952e+00	-2.795735e+02
2.620000e-06	-9.362267e-07	-4.077670e-09	-7.019258e+00	-2.771892e+02
2.630000e-06	-9.157272e-07	-4.034193e-09	-6.865565e+00	-2.747985e+02
2.640000e-06	-8.952517e-07	-3.992241e-09	-6.712052e+00	-2.724000e+02
2.650000e-06	-8.747557e-07	-3.956136e-09	-6.558386e+00	-2.699925e+02
2.660000e-06	-8.542007e-07	-3.925480e-09	-6.404277e+00	-2.675742e+02
2.670000e-06	-8.335907e-07	-3.898817e-09	-6.249756e+00	-2.651437e+02
2.680000e-06	-8.130453e-07	-3.874036e-09	-6.095718e+00	-2.626995e+02
2.690000e-06	-7.925270e-07	-3.841186e-09	-5.941885e+00	-2.602400e+02
2.700000e-06	-7.719832e-07	-3.801362e-09	-5.787860e+00	-2.577637e+02
2.710000e-06	-7.514424e-07	-3.753408e-09	-5.633858e+00	-2.552694e+02
2.720000e-06	-7.308521e-07	-3.705964e-09	-5.479484e+00	-2.527557e+02
2.730000e-06	-7.102751e-07	-3.664648e-09	-5.325210e+00	-2.502214e+02
2.740000e-06	-6.897416e-07	-3.628007e-09	-5.171263e+00	-2.476658e+02
2.750000e-06	-6.691389e-07	-3.599921e-09	-5.016796e+00	-2.450878e+02
2.760000e-06	-6.484460e-07	-3.569860e-09	-4.861654e+00	-2.424869e+02
2.770000e-06	-6.278092e-07	-3.539402e-09	-4.706931e+00	-2.398625e+02
2.780000e-06	-6.071653e-07	-3.506740e-09	-4.552156e+00	-2.372140e+02
2.790000e-06	-5.864222e-07	-3.469408e-09	-4.396637e+00	-2.345412e+02
2.800000e-06	-5.655862e-07	-3.427701e-09	-4.240421e+00	-2.318438e+02
2.810000e-06	-5.448402e-07	-3.379181e-09	-4.084880e+00	-2.291214e+02
2.820000e-06	-5.241389e-07	-3.335020e-09	-3.929675e+00	-2.263739e+02
2.830000e-06	-5.033826e-07	-3.295482e-09	-3.774056e+00	-2.236010e+02
2.840000e-06	-4.825982e-07	-3.260771e-09	-3.618228e+00	-2.208023e+02
