# Temperatura_=_20.0
# Concentracion g/m^3_=_10000.0
# C_Vs_to_Am_M_A/Vsm_=_65563218390.804596
# pendiente_HvsI_1/m_=_3716.3
# ordenada_HvsI_A/m_=_1297.0
# frecuencia_Hz_=_81166.37648248323

Tiempo_(s)	Campo_(V.s)	Magnetizacion_(V.s)	Campo_(kA/m)	Magnetizacion_(A/m)
0.000000e+00	-4.132603e-06	-8.232384e-09	-3.099625e+01	-5.450890e+02
1.000000e-08	-4.132809e-06	-8.304658e-09	-3.099780e+01	-5.452700e+02
2.000000e-08	-4.132899e-06	-8.422526e-09	-3.099847e+01	-5.454453e+02
3.000000e-08	-4.132992e-06	-8.373423e-09	-3.099917e+01	-5.456120e+02
4.000000e-08	-4.133037e-06	-8.360405e-09	-3.099951e+01	-5.457673e+02
5.000000e-08	-4.132979e-06	-8.290893e-09	-3.099908e+01	-5.459088e+02
6.000000e-08	-4.132858e-06	-8.236941e-09	-3.099816e+01	-5.460344e+02
7.000000e-08	-4.132741e-06	-8.128581e-09	-3.099729e+01	-5.461426e+02
8.000000e-08	-4.132463e-06	-8.015243e-09	-3.099520e+01	-5.462322e+02
9.000000e-08	-4.132027e-06	-8.199201e-09	-3.099193e+01	-5.463027e+02
1.000000e-07	-4.131406e-06	-8.157917e-09	-3.098728e+01	-5.463538e+02
1.100000e-07	-4.130767e-06	-8.309723e-09	-3.098248e+01	-5.463858e+02
1.200000e-07	-4.130176e-06	-8.435213e-09	-3.097805e+01	-5.463994e+02
1.300000e-07	-4.129467e-06	-8.367871e-09	-3.097273e+01	-5.463954e+02
1.400000e-07	-4.128783e-06	-8.415186e-09	-3.096760e+01	-5.463751e+02
1.500000e-07	-4.127885e-06	-8.243156e-09	-3.096087e+01	-5.463398e+02
1.600000e-07	-4.126830e-06	-8.423390e-09	-3.095296e+01	-5.462908e+02
1.700000e-07	-4.125769e-06	-8.267701e-09	-3.094500e+01	-5.462294e+02
1.800000e-07	-4.124530e-06	-8.060454e-09	-3.093570e+01	-5.461569e+02
1.900000e-07	-4.123232e-06	-8.186071e-09	-3.092596e+01	-5.460743e+02
2.000000e-07	-4.121662e-06	-8.213604e-09	-3.091419e+01	-5.459824e+02
2.100000e-07	-4.119869e-06	-8.345035e-09	-3.090074e+01	-5.458817e+02
2.200000e-07	-4.118037e-06	-8.080845e-09	-3.088700e+01	-5.457725e+02
2.300000e-07	-4.116159e-06	-8.215642e-09	-3.087292e+01	-5.456544e+02
2.400000e-07	-4.114193e-06	-8.324682e-09	-3.085817e+01	-5.455272e+02
2.500000e-07	-4.111981e-06	-8.263230e-09	-3.084158e+01	-5.453900e+02
2.600000e-07	-4.109488e-06	-8.252909e-09	-3.082288e+01	-5.452419e+02
2.700000e-07	-4.106623e-06	-8.088769e-09	-3.080139e+01	-5.450817e+02
2.800000e-07	-4.103422e-06	-8.286039e-09	-3.077739e+01	-5.449082e+02
2.900000e-07	-4.100031e-06	-8.187888e-09	-3.075195e+01	-5.447199e+02
3.000000e-07	-4.096648e-06	-8.213311e-09	-3.072658e+01	-5.445156e+02
3.100000e-07	-4.093318e-06	-8.169655e-09	-3.070160e+01	-5.442941e+02
3.200000e-07	-4.089774e-06	-8.112665e-09	-3.067502e+01	-5.440543e+02
3.300000e-07	-4.086126e-06	-8.233067e-09	-3.064766e+01	-5.437954e+02
3.400000e-07	-4.082386e-06	-8.174246e-09	-3.061960e+01	-5.435169e+02
3.500000e-07	-4.078495e-06	-8.273761e-09	-3.059042e+01	-5.432186e+02
3.600000e-07	-4.074550e-06	-8.086690e-09	-3.056083e+01	-5.429006e+02
3.700000e-07	-4.070608e-06	-8.098833e-09	-3.053126e+01	-5.425636e+02
3.800000e-07	-4.066549e-06	-8.170616e-09	-3.050082e+01	-5.422084e+02
3.900000e-07	-4.062329e-06	-8.141241e-09	-3.046917e+01	-5.418362e+02
4.000000e-07	-4.058042e-06	-8.118486e-09	-3.043702e+01	-5.414486e+02
4.100000e-07	-4.053674e-06	-7.976147e-09	-3.040425e+01	-5.410475e+02
4.200000e-07	-4.049322e-06	-8.177618e-09	-3.037161e+01	-5.406349e+02
4.300000e-07	-4.044931e-06	-8.185563e-09	-3.033868e+01	-5.402131e+02
4.400000e-07	-4.040510e-06	-8.133382e-09	-3.030552e+01	-5.397843e+02
4.500000e-07	-4.035993e-06	-8.053767e-09	-3.027164e+01	-5.393510e+02
4.600000e-07	-4.031331e-06	-8.039646e-09	-3.023667e+01	-5.389155e+02
4.700000e-07	-4.026603e-06	-8.155332e-09	-3.020121e+01	-5.384801e+02
4.800000e-07	-4.021795e-06	-8.030517e-09	-3.016514e+01	-5.380470e+02
4.900000e-07	-4.016864e-06	-8.046648e-09	-3.012816e+01	-5.376180e+02
5.000000e-07	-4.011938e-06	-8.008910e-09	-3.009122e+01	-5.371950e+02
5.100000e-07	-4.007004e-06	-8.078149e-09	-3.005421e+01	-5.367795e+02
5.200000e-07	-4.002005e-06	-8.108605e-09	-3.001672e+01	-5.363726e+02
5.300000e-07	-3.996808e-06	-8.033257e-09	-2.997773e+01	-5.359754e+02
5.400000e-07	-3.991470e-06	-8.045564e-09	-2.993769e+01	-5.355885e+02
5.500000e-07	-3.986092e-06	-7.969842e-09	-2.989736e+01	-5.352125e+02
5.600000e-07	-3.980560e-06	-8.058887e-09	-2.985586e+01	-5.348473e+02
5.700000e-07	-3.974883e-06	-8.020099e-09	-2.981329e+01	-5.344930e+02
5.800000e-07	-3.969016e-06	-7.977848e-09	-2.976928e+01	-5.341492e+02
5.900000e-07	-3.962916e-06	-7.967484e-09	-2.972353e+01	-5.338155e+02
6.000000e-07	-3.956755e-06	-7.970990e-09	-2.967732e+01	-5.334912e+02
6.100000e-07	-3.950660e-06	-8.053574e-09	-2.963161e+01	-5.331755e+02
6.200000e-07	-3.944395e-06	-7.963188e-09	-2.958461e+01	-5.328674e+02
6.300000e-07	-3.937934e-06	-7.971307e-09	-2.953615e+01	-5.325659e+02
6.400000e-07	-3.931523e-06	-7.962125e-09	-2.948807e+01	-5.322698e+02
6.500000e-07	-3.925123e-06	-7.994729e-09	-2.944007e+01	-5.319780e+02
6.600000e-07	-3.918496e-06	-7.989276e-09	-2.939036e+01	-5.316891e+02
6.700000e-07	-3.911792e-06	-7.901255e-09	-2.934008e+01	-5.314019e+02
6.800000e-07	-3.905079e-06	-7.923831e-09	-2.928973e+01	-5.311150e+02
6.900000e-07	-3.898217e-06	-7.902541e-09	-2.923826e+01	-5.308270e+02
7.000000e-07	-3.891163e-06	-7.952136e-09	-2.918535e+01	-5.305366e+02
7.100000e-07	-3.883937e-06	-7.912608e-09	-2.913115e+01	-5.302423e+02
7.200000e-07	-3.876654e-06	-7.896956e-09	-2.907653e+01	-5.299429e+02
7.300000e-07	-3.869347e-06	-7.929834e-09	-2.902172e+01	-5.296368e+02
7.400000e-07	-3.861866e-06	-7.917751e-09	-2.896561e+01	-5.293228e+02
7.500000e-07	-3.854107e-06	-7.938397e-09	-2.890742e+01	-5.289995e+02
7.600000e-07	-3.846347e-06	-7.862665e-09	-2.884922e+01	-5.286657e+02
7.700000e-07	-3.838552e-06	-7.874515e-09	-2.879075e+01	-5.283201e+02
7.800000e-07	-3.830577e-06	-7.872085e-09	-2.873093e+01	-5.279614e+02
7.900000e-07	-3.822602e-06	-7.866769e-09	-2.867112e+01	-5.275886e+02
8.000000e-07	-3.814624e-06	-7.861955e-09	-2.861128e+01	-5.272007e+02
8.100000e-07	-3.806579e-06	-7.823044e-09	-2.855094e+01	-5.267966e+02
8.200000e-07	-3.798501e-06	-7.866147e-09	-2.849035e+01	-5.263754e+02
8.300000e-07	-3.790298e-06	-7.850458e-09	-2.842883e+01	-5.259365e+02
8.400000e-07	-3.781931e-06	-7.853114e-09	-2.836607e+01	-5.254789e+02
8.500000e-07	-3.773577e-06	-7.808701e-09	-2.830341e+01	-5.250021e+02
8.600000e-07	-3.765266e-06	-7.785485e-09	-2.824107e+01	-5.245055e+02
8.700000e-07	-3.756910e-06	-7.800407e-09	-2.817840e+01	-5.239886e+02
8.800000e-07	-3.748446e-06	-7.768878e-09	-2.811492e+01	-5.234511e+02
8.900000e-07	-3.739942e-06	-7.776095e-09	-2.805113e+01	-5.228927e+02
9.000000e-07	-3.731364e-06	-7.748408e-09	-2.798679e+01	-5.223130e+02
9.100000e-07	-3.722720e-06	-7.776131e-09	-2.792196e+01	-5.217119e+02
9.200000e-07	-3.713968e-06	-7.774251e-09	-2.785632e+01	-5.210894e+02
9.300000e-07	-3.705165e-06	-7.745331e-09	-2.779029e+01	-5.204455e+02
9.400000e-07	-3.696279e-06	-7.729174e-09	-2.772364e+01	-5.197803e+02
9.500000e-07	-3.687111e-06	-7.690750e-09	-2.765488e+01	-5.190940e+02
9.600000e-07	-3.677860e-06	-7.700908e-09	-2.758549e+01	-5.183870e+02
9.700000e-07	-3.668530e-06	-7.664939e-09	-2.751551e+01	-5.176597e+02
9.800000e-07	-3.659169e-06	-7.654117e-09	-2.744530e+01	-5.169128e+02
9.900000e-07	-3.649684e-06	-7.643056e-09	-2.737416e+01	-5.161471e+02
1.000000e-06	-3.639818e-06	-7.638511e-09	-2.730016e+01	-5.153636e+02
1.010000e-06	-3.629829e-06	-7.647099e-09	-2.722524e+01	-5.145633e+02
1.020000e-06	-3.619840e-06	-7.611615e-09	-2.715031e+01	-5.137476e+02
1.030000e-06	-3.609698e-06	-7.603695e-09	-2.707425e+01	-5.129180e+02
1.040000e-06	-3.599356e-06	-7.570798e-09	-2.699667e+01	-5.120763e+02
1.050000e-06	-3.588852e-06	-7.561750e-09	-2.691789e+01	-5.112241e+02
1.060000e-06	-3.578111e-06	-7.539956e-09	-2.683733e+01	-5.103634e+02
1.070000e-06	-3.567212e-06	-7.514058e-09	-2.675558e+01	-5.094963e+02
1.080000e-06	-3.556158e-06	-7.514969e-09	-2.667268e+01	-5.086249e+02
1.090000e-06	-3.544877e-06	-7.498408e-09	-2.658806e+01	-5.077514e+02
1.100000e-06	-3.533571e-06	-7.504934e-09	-2.650326e+01	-5.068777e+02
1.110000e-06	-3.522219e-06	-7.476368e-09	-2.641812e+01	-5.060059e+02
1.120000e-06	-3.510700e-06	-7.460732e-09	-2.633172e+01	-5.051378e+02
1.130000e-06	-3.499130e-06	-7.444031e-09	-2.624494e+01	-5.042751e+02
1.140000e-06	-3.487430e-06	-7.424216e-09	-2.615719e+01	-5.034194e+02
1.150000e-06	-3.475559e-06	-7.418296e-09	-2.606815e+01	-5.025716e+02
1.160000e-06	-3.463674e-06	-7.387828e-09	-2.597900e+01	-5.017326e+02
1.170000e-06	-3.451633e-06	-7.385529e-09	-2.588869e+01	-5.009031e+02
1.180000e-06	-3.439416e-06	-7.372429e-09	-2.579706e+01	-5.000830e+02
1.190000e-06	-3.427168e-06	-7.368250e-09	-2.570519e+01	-4.992723e+02
1.200000e-06	-3.414780e-06	-7.356701e-09	-2.561228e+01	-4.984704e+02
1.210000e-06	-3.402403e-06	-7.338016e-09	-2.551945e+01	-4.976764e+02
1.220000e-06	-3.390056e-06	-7.333238e-09	-2.542684e+01	-4.968892e+02
1.230000e-06	-3.377535e-06	-7.308685e-09	-2.533292e+01	-4.961074e+02
1.240000e-06	-3.364839e-06	-7.301042e-09	-2.523770e+01	-4.953294e+02
1.250000e-06	-3.352048e-06	-7.279768e-09	-2.514176e+01	-4.945535e+02
1.260000e-06	-3.339310e-06	-7.265624e-09	-2.504622e+01	-4.937780e+02
1.270000e-06	-3.326625e-06	-7.256846e-09	-2.495108e+01	-4.930011e+02
1.280000e-06	-3.313786e-06	-7.246003e-09	-2.485478e+01	-4.922209e+02
1.290000e-06	-3.300711e-06	-7.245193e-09	-2.475671e+01	-4.914360e+02
1.300000e-06	-3.287657e-06	-7.226013e-09	-2.465880e+01	-4.906448e+02
1.310000e-06	-3.274653e-06	-7.216057e-09	-2.456127e+01	-4.898461e+02
1.320000e-06	-3.261475e-06	-7.198329e-09	-2.446243e+01	-4.890388e+02
1.330000e-06	-3.248119e-06	-7.183369e-09	-2.436225e+01	-4.882220e+02
1.340000e-06	-3.234779e-06	-7.166800e-09	-2.426220e+01	-4.873953e+02
1.350000e-06	-3.221268e-06	-7.151113e-09	-2.416086e+01	-4.865581e+02
1.360000e-06	-3.207490e-06	-7.149984e-09	-2.405752e+01	-4.857105e+02
1.370000e-06	-3.193558e-06	-7.138001e-09	-2.395302e+01	-4.848523e+02
1.380000e-06	-3.179605e-06	-7.126040e-09	-2.384837e+01	-4.839836e+02
1.390000e-06	-3.165606e-06	-7.103325e-09	-2.374337e+01	-4.831047e+02
1.400000e-06	-3.151544e-06	-7.088569e-09	-2.363790e+01	-4.822158e+02
1.410000e-06	-3.137341e-06	-7.072748e-09	-2.353137e+01	-4.813170e+02
1.420000e-06	-3.122945e-06	-7.049579e-09	-2.342339e+01	-4.804084e+02
1.430000e-06	-3.108554e-06	-7.037346e-09	-2.331546e+01	-4.794900e+02
1.440000e-06	-3.094217e-06	-7.029617e-09	-2.320792e+01	-4.785616e+02
1.450000e-06	-3.079883e-06	-7.031325e-09	-2.310041e+01	-4.776228e+02
1.460000e-06	-3.065459e-06	-7.018396e-09	-2.299223e+01	-4.766730e+02
1.470000e-06	-3.050967e-06	-6.998035e-09	-2.288353e+01	-4.757114e+02
1.480000e-06	-3.036389e-06	-6.974065e-09	-2.277419e+01	-4.747371e+02
1.490000e-06	-3.021712e-06	-6.948648e-09	-2.266411e+01	-4.737489e+02
1.500000e-06	-3.006972e-06	-6.929143e-09	-2.255355e+01	-4.727456e+02
1.510000e-06	-2.992153e-06	-6.904940e-09	-2.244240e+01	-4.717257e+02
1.520000e-06	-2.977355e-06	-6.895701e-09	-2.233141e+01	-4.706879e+02
1.530000e-06	-2.962533e-06	-6.892409e-09	-2.222024e+01	-4.696308e+02
1.540000e-06	-2.947330e-06	-6.888989e-09	-2.210621e+01	-4.685531e+02
1.550000e-06	-2.931881e-06	-6.871067e-09	-2.199034e+01	-4.674536e+02
1.560000e-06	-2.916433e-06	-6.837156e-09	-2.187447e+01	-4.663313e+02
1.570000e-06	-2.901015e-06	-6.808409e-09	-2.175883e+01	-4.651855e+02
1.580000e-06	-2.885635e-06	-6.777224e-09	-2.164347e+01	-4.640156e+02
1.590000e-06	-2.870052e-06	-6.752893e-09	-2.152659e+01	-4.628214e+02
1.600000e-06	-2.854270e-06	-6.733216e-09	-2.140822e+01	-4.616029e+02
1.610000e-06	-2.838210e-06	-6.727144e-09	-2.128777e+01	-4.603606e+02
1.620000e-06	-2.822152e-06	-6.722235e-09	-2.116732e+01	-4.590949e+02
1.630000e-06	-2.806096e-06	-6.703726e-09	-2.104689e+01	-4.578068e+02
1.640000e-06	-2.789931e-06	-6.681709e-09	-2.092565e+01	-4.564973e+02
1.650000e-06	-2.773626e-06	-6.648007e-09	-2.080336e+01	-4.551678e+02
1.660000e-06	-2.757138e-06	-6.616950e-09	-2.067969e+01	-4.538196e+02
1.670000e-06	-2.740743e-06	-6.590984e-09	-2.055672e+01	-4.524542e+02
1.680000e-06	-2.724189e-06	-6.567940e-09	-2.043256e+01	-4.510731e+02
1.690000e-06	-2.707333e-06	-6.549514e-09	-2.030613e+01	-4.496777e+02
1.700000e-06	-2.690556e-06	-6.530707e-09	-2.018029e+01	-4.482697e+02
1.710000e-06	-2.673777e-06	-6.516028e-09	-2.005445e+01	-4.468501e+02
1.720000e-06	-2.656789e-06	-6.494799e-09	-1.992703e+01	-4.454204e+02
1.730000e-06	-2.639716e-06	-6.471510e-09	-1.979898e+01	-4.439815e+02
1.740000e-06	-2.622473e-06	-6.448834e-09	-1.966965e+01	-4.425345e+02
1.750000e-06	-2.605236e-06	-6.425349e-09	-1.954037e+01	-4.410801e+02
1.760000e-06	-2.587862e-06	-6.403019e-09	-1.941005e+01	-4.396191e+02
1.770000e-06	-2.570362e-06	-6.378096e-09	-1.927879e+01	-4.381519e+02
1.780000e-06	-2.552922e-06	-6.356121e-09	-1.914798e+01	-4.366792e+02
1.790000e-06	-2.535448e-06	-6.331484e-09	-1.901692e+01	-4.352013e+02
1.800000e-06	-2.517779e-06	-6.313701e-09	-1.888439e+01	-4.337186e+02
1.810000e-06	-2.500022e-06	-6.298261e-09	-1.875121e+01	-4.322316e+02
1.820000e-06	-2.482313e-06	-6.281602e-09	-1.861839e+01	-4.307406e+02
1.830000e-06	-2.464525e-06	-6.263139e-09	-1.848497e+01	-4.292463e+02
1.840000e-06	-2.446702e-06	-6.233857e-09	-1.835129e+01	-4.277490e+02
1.850000e-06	-2.428836e-06	-6.206367e-09	-1.821729e+01	-4.262493e+02
1.860000e-06	-2.411062e-06	-6.180051e-09	-1.808398e+01	-4.247479e+02
1.870000e-06	-2.393309e-06	-6.159912e-09	-1.795082e+01	-4.232454e+02
1.880000e-06	-2.375444e-06	-6.139968e-09	-1.781682e+01	-4.217425e+02
1.890000e-06	-2.357575e-06	-6.118856e-09	-1.768280e+01	-4.202398e+02
1.900000e-06	-2.339598e-06	-6.102344e-09	-1.754796e+01	-4.187378e+02
1.910000e-06	-2.321512e-06	-6.078120e-09	-1.741231e+01	-4.172372e+02
1.920000e-06	-2.303450e-06	-6.054192e-09	-1.727684e+01	-4.157381e+02
1.930000e-06	-2.285332e-06	-6.030036e-09	-1.714095e+01	-4.142408e+02
1.940000e-06	-2.267172e-06	-6.006913e-09	-1.700474e+01	-4.127452e+02
1.950000e-06	-2.249054e-06	-5.983965e-09	-1.686885e+01	-4.112511e+02
1.960000e-06	-2.230836e-06	-5.959241e-09	-1.673221e+01	-4.097581e+02
1.970000e-06	-2.212601e-06	-5.938396e-09	-1.659543e+01	-4.082652e+02
1.980000e-06	-2.194336e-06	-5.916402e-09	-1.645844e+01	-4.067717e+02
1.990000e-06	-2.176004e-06	-5.898800e-09	-1.632094e+01	-4.052762e+02
2.000000e-06	-2.157544e-06	-5.879947e-09	-1.618248e+01	-4.037773e+02
2.010000e-06	-2.139080e-06	-5.860983e-09	-1.604400e+01	-4.022734e+02
2.020000e-06	-2.120546e-06	-5.842577e-09	-1.590498e+01	-4.007628e+02
2.030000e-06	-2.101913e-06	-5.817620e-09	-1.576523e+01	-3.992438e+02
2.040000e-06	-2.083310e-06	-5.792195e-09	-1.562569e+01	-3.977144e+02
2.050000e-06	-2.064608e-06	-5.764435e-09	-1.548542e+01	-3.961730e+02
2.060000e-06	-2.045881e-06	-5.741035e-09	-1.534496e+01	-3.946178e+02
2.070000e-06	-2.027105e-06	-5.721077e-09	-1.520414e+01	-3.930473e+02
2.080000e-06	-2.008274e-06	-5.701155e-09	-1.506289e+01	-3.914602e+02
2.090000e-06	-1.989414e-06	-5.681081e-09	-1.492144e+01	-3.898551e+02
2.100000e-06	-1.970441e-06	-5.660187e-09	-1.477913e+01	-3.882311e+02
2.110000e-06	-1.951429e-06	-5.644251e-09	-1.463654e+01	-3.865876e+02
2.120000e-06	-1.932328e-06	-5.624596e-09	-1.449327e+01	-3.849239e+02
2.130000e-06	-1.913222e-06	-5.599458e-09	-1.434997e+01	-3.832398e+02
2.140000e-06	-1.894120e-06	-5.570681e-09	-1.420669e+01	-3.815351e+02
2.150000e-06	-1.874926e-06	-5.539516e-09	-1.406273e+01	-3.798099e+02
2.160000e-06	-1.855691e-06	-5.509373e-09	-1.391846e+01	-3.780642e+02
2.170000e-06	-1.836278e-06	-5.481525e-09	-1.377286e+01	-3.762981e+02
2.180000e-06	-1.816859e-06	-5.461447e-09	-1.362721e+01	-3.745119e+02
2.190000e-06	-1.797545e-06	-5.444230e-09	-1.348234e+01	-3.727056e+02
2.200000e-06	-1.778157e-06	-5.425189e-09	-1.333692e+01	-3.708793e+02
2.210000e-06	-1.758524e-06	-5.401466e-09	-1.318967e+01	-3.690329e+02
2.220000e-06	-1.738822e-06	-5.371038e-09	-1.304189e+01	-3.671661e+02
2.230000e-06	-1.719087e-06	-5.338208e-09	-1.289387e+01	-3.652785e+02
2.240000e-06	-1.699289e-06	-5.305180e-09	-1.274538e+01	-3.633696e+02
2.250000e-06	-1.679441e-06	-5.273957e-09	-1.259651e+01	-3.614387e+02
2.260000e-06	-1.659600e-06	-5.242253e-09	-1.244769e+01	-3.594850e+02
2.270000e-06	-1.639734e-06	-5.212137e-09	-1.229869e+01	-3.575077e+02
2.280000e-06	-1.619709e-06	-5.184858e-09	-1.214849e+01	-3.555060e+02
2.290000e-06	-1.599663e-06	-5.157319e-09	-1.199814e+01	-3.534789e+02
2.300000e-06	-1.579667e-06	-5.129252e-09	-1.184817e+01	-3.514257e+02
2.310000e-06	-1.559702e-06	-5.098161e-09	-1.169842e+01	-3.493459e+02
2.320000e-06	-1.539747e-06	-5.067304e-09	-1.154875e+01	-3.472391e+02
2.330000e-06	-1.519713e-06	-5.035631e-09	-1.139848e+01	-3.451053e+02
2.340000e-06	-1.499642e-06	-5.003122e-09	-1.124795e+01	-3.429446e+02
2.350000e-06	-1.479538e-06	-4.971030e-09	-1.109716e+01	-3.407577e+02
2.360000e-06	-1.459320e-06	-4.938857e-09	-1.094551e+01	-3.385455e+02
2.370000e-06	-1.439081e-06	-4.904612e-09	-1.079371e+01	-3.363094e+02
2.380000e-06	-1.418839e-06	-4.870700e-09	-1.064189e+01	-3.340510e+02
2.390000e-06	-1.398624e-06	-4.842990e-09	-1.049026e+01	-3.317723e+02
2.400000e-06	-1.378457e-06	-4.809566e-09	-1.033901e+01	-3.294758e+02
2.410000e-06	-1.358251e-06	-4.774086e-09	-1.018745e+01	-3.271638e+02
2.420000e-06	-1.337983e-06	-4.740692e-09	-1.003543e+01	-3.248393e+02
2.430000e-06	-1.317715e-06	-4.707773e-09	-9.883417e+00	-3.225048e+02
2.440000e-06	-1.297470e-06	-4.681471e-09	-9.731570e+00	-3.201634e+02
2.450000e-06	-1.277190e-06	-4.651081e-09	-9.579458e+00	-3.178177e+02
2.460000e-06	-1.256922e-06	-4.616788e-09	-9.427442e+00	-3.154702e+02
2.470000e-06	-1.236659e-06	-4.579736e-09	-9.275462e+00	-3.131234e+02
2.480000e-06	-1.216372e-06	-4.541846e-09	-9.123300e+00	-3.107793e+02
2.490000e-06	-1.196063e-06	-4.505616e-09	-8.970970e+00	-3.084396e+02
2.500000e-06	-1.175690e-06	-4.467588e-09	-8.818170e+00	-3.061056e+02
2.510000e-06	-1.155332e-06	-4.437289e-09	-8.665474e+00	-3.037782e+02
2.520000e-06	-1.135059e-06	-4.411338e-09	-8.513419e+00	-3.014579e+02
2.530000e-06	-1.114747e-06	-4.385543e-09	-8.361070e+00	-2.991446e+02
2.540000e-06	-1.094372e-06	-4.355861e-09	-8.208252e+00	-2.968381e+02
2.550000e-06	-1.073984e-06	-4.321788e-09	-8.055332e+00	-2.945375e+02
2.560000e-06	-1.053605e-06	-4.286590e-09	-7.902482e+00	-2.922417e+02
2.570000e-06	-1.033233e-06	-4.247773e-09	-7.749678e+00	-2.899494e+02
2.580000e-06	-1.012890e-06	-4.211980e-09	-7.597099e+00	-2.876591e+02
2.590000e-06	-9.925081e-07	-4.177952e-09	-7.444226e+00	-2.853688e+02
2.600000e-06	-9.720686e-07	-4.150851e-09	-7.290922e+00	-2.830769e+02
2.610000e-06	-9.516284e-07	-4.128225e-09	-7.137612e+00	-2.807813e+02
2.620000e-06	-9.311804e-07	-4.101185e-09	-6.984243e+00	-2.784802e+02
2.630000e-06	-9.107644e-07	-4.070010e-09	-6.831114e+00	-2.761718e+02
2.640000e-06	-8.903467e-07	-4.034101e-09	-6.677973e+00	-2.738543e+02
2.650000e-06	-8.699386e-07	-3.998770e-09	-6.524904e+00	-2.715260e+02
2.660000e-06	-8.494978e-07	-3.960330e-09	-6.371590e+00	-2.691853e+02
2.670000e-06	-8.289173e-07	-3.924384e-09	-6.217227e+00	-2.668310e+02
2.680000e-06	-8.083103e-07	-3.891815e-09	-6.062666e+00	-2.644616e+02
2.690000e-06	-7.877520e-07	-3.859867e-09	-5.908470e+00	-2.620760e+02
2.700000e-06	-7.671431e-07	-3.830820e-09	-5.753895e+00	-2.596730e+02
2.710000e-06	-7.465249e-07	-3.797741e-09	-5.599249e+00	-2.572517e+02
2.720000e-06	-7.259038e-07	-3.764752e-09	-5.444583e+00	-2.548108e+02
2.730000e-06	-7.052294e-07	-3.730831e-09	-5.289516e+00	-2.523494e+02
2.740000e-06	-6.845866e-07	-3.694566e-09	-5.134686e+00	-2.498664e+02
2.750000e-06	-6.639977e-07	-3.655684e-09	-4.980261e+00	-2.473607e+02
2.760000e-06	-6.434022e-07	-3.615869e-09	-4.825786e+00	-2.448311e+02
2.770000e-06	-6.227493e-07	-3.582253e-09	-4.670881e+00	-2.422765e+02
2.780000e-06	-6.021034e-07	-3.550553e-09	-4.516028e+00	-2.396954e+02
2.790000e-06	-5.814489e-07	-3.517682e-09	-4.361111e+00	-2.370866e+02
2.800000e-06	-5.606927e-07	-3.484093e-09	-4.205430e+00	-2.344488e+02
2.810000e-06	-5.400512e-07	-3.451043e-09	-4.050610e+00	-2.317807e+02
2.820000e-06	-5.194291e-07	-3.413776e-09	-3.895936e+00	-2.290808e+02
2.830000e-06	-4.987067e-07	-3.370396e-09	-3.740509e+00	-2.263481e+02
2.840000e-06	-4.780565e-07	-3.327407e-09	-3.585624e+00	-2.235814e+02
