# Temperatura_=_20.0
# Concentracion g/m^3_=_10000.0
# C_Vs_to_Am_M_A/Vsm_=_65563218390.804596
# pendiente_HvsI_1/m_=_3716.3
# ordenada_HvsI_A/m_=_1297.0
# frecuencia_Hz_=_81166.39482801015

Tiempo_(s)	Campo_(V.s)	Magnetizacion_(V.s)	Campo_(kA/m)	Magnetizacion_(A/m)
0.000000e+00	-4.130901e-06	-8.215385e-09	-3.099417e+01	-5.434920e+02
1.000000e-08	-4.131107e-06	-8.172988e-09	-3.099572e+01	-5.435365e+02
2.000000e-08	-4.131165e-06	-8.245561e-09	-3.099615e+01	-5.435870e+02
3.000000e-08	-4.131183e-06	-8.226888e-09	-3.099628e+01	-5.436414e+02
4.000000e-08	-4.131247e-06	-8.279236e-09	-3.099677e+01	-5.436980e+02
5.000000e-08	-4.131193e-06	-8.401774e-09	-3.099636e+01	-5.437547e+02
6.000000e-08	-4.130885e-06	-8.556284e-09	-3.099405e+01	-5.438098e+02
7.000000e-08	-4.130575e-06	-8.503919e-09	-3.099173e+01	-5.438619e+02
8.000000e-08	-4.130343e-06	-8.206959e-09	-3.098999e+01	-5.439095e+02
9.000000e-08	-4.130079e-06	-8.109557e-09	-3.098800e+01	-5.439516e+02
1.000000e-07	-4.129708e-06	-8.035618e-09	-3.098522e+01	-5.439874e+02
1.100000e-07	-4.129229e-06	-8.034823e-09	-3.098163e+01	-5.440165e+02
1.200000e-07	-4.128607e-06	-8.083785e-09	-3.097696e+01	-5.440385e+02
1.300000e-07	-4.127871e-06	-8.131791e-09	-3.097144e+01	-5.440534e+02
1.400000e-07	-4.127093e-06	-8.244064e-09	-3.096560e+01	-5.440615e+02
1.500000e-07	-4.126263e-06	-8.290279e-09	-3.095937e+01	-5.440629e+02
1.600000e-07	-4.125325e-06	-8.453461e-09	-3.095234e+01	-5.440580e+02
1.700000e-07	-4.124230e-06	-8.387668e-09	-3.094412e+01	-5.440474e+02
1.800000e-07	-4.123155e-06	-8.122973e-09	-3.093605e+01	-5.440313e+02
1.900000e-07	-4.121995e-06	-8.084632e-09	-3.092735e+01	-5.440101e+02
2.000000e-07	-4.120685e-06	-8.246181e-09	-3.091752e+01	-5.439839e+02
2.100000e-07	-4.119154e-06	-8.365542e-09	-3.090603e+01	-5.439527e+02
2.200000e-07	-4.117308e-06	-8.170575e-09	-3.089218e+01	-5.439162e+02
2.300000e-07	-4.115363e-06	-8.116209e-09	-3.087759e+01	-5.438739e+02
2.400000e-07	-4.113252e-06	-8.283941e-09	-3.086175e+01	-5.438252e+02
2.500000e-07	-4.110904e-06	-8.361173e-09	-3.084413e+01	-5.437690e+02
2.600000e-07	-4.108454e-06	-8.238841e-09	-3.082575e+01	-5.437041e+02
2.700000e-07	-4.105924e-06	-8.071235e-09	-3.080677e+01	-5.436291e+02
2.800000e-07	-4.103089e-06	-8.174405e-09	-3.078550e+01	-5.435423e+02
2.900000e-07	-4.099967e-06	-8.277318e-09	-3.076207e+01	-5.434419e+02
3.000000e-07	-4.096767e-06	-8.286298e-09	-3.073807e+01	-5.433261e+02
3.100000e-07	-4.093380e-06	-8.193289e-09	-3.071265e+01	-5.431931e+02
3.200000e-07	-4.089754e-06	-8.105823e-09	-3.068544e+01	-5.430409e+02
3.300000e-07	-4.086029e-06	-8.141003e-09	-3.065750e+01	-5.428678e+02
3.400000e-07	-4.082243e-06	-8.196731e-09	-3.062909e+01	-5.426723e+02
3.500000e-07	-4.078389e-06	-8.259553e-09	-3.060017e+01	-5.424528e+02
3.600000e-07	-4.074420e-06	-8.166070e-09	-3.057039e+01	-5.422082e+02
3.700000e-07	-4.070371e-06	-8.105510e-09	-3.054001e+01	-5.419376e+02
3.800000e-07	-4.066238e-06	-8.189002e-09	-3.050901e+01	-5.416406e+02
3.900000e-07	-4.062013e-06	-8.256000e-09	-3.047731e+01	-5.413169e+02
4.000000e-07	-4.057798e-06	-8.159488e-09	-3.044568e+01	-5.409667e+02
4.100000e-07	-4.053497e-06	-7.972808e-09	-3.041341e+01	-5.405905e+02
4.200000e-07	-4.049141e-06	-8.046428e-09	-3.038073e+01	-5.401894e+02
4.300000e-07	-4.044805e-06	-8.197461e-09	-3.034819e+01	-5.397645e+02
4.400000e-07	-4.040412e-06	-8.181558e-09	-3.031523e+01	-5.393174e+02
4.500000e-07	-4.035897e-06	-8.041787e-09	-3.028136e+01	-5.388501e+02
4.600000e-07	-4.031333e-06	-8.013539e-09	-3.024711e+01	-5.383647e+02
4.700000e-07	-4.026741e-06	-8.129018e-09	-3.021266e+01	-5.378635e+02
4.800000e-07	-4.022122e-06	-8.111565e-09	-3.017800e+01	-5.373491e+02
4.900000e-07	-4.017483e-06	-8.021238e-09	-3.014320e+01	-5.368241e+02
5.000000e-07	-4.012761e-06	-7.964865e-09	-3.010777e+01	-5.362910e+02
5.100000e-07	-4.007875e-06	-8.018839e-09	-3.007111e+01	-5.357528e+02
5.200000e-07	-4.002735e-06	-8.084677e-09	-3.003254e+01	-5.352118e+02
5.300000e-07	-3.997548e-06	-8.066252e-09	-2.999362e+01	-5.346706e+02
5.400000e-07	-3.992351e-06	-8.019005e-09	-2.995463e+01	-5.341316e+02
5.500000e-07	-3.986902e-06	-7.961904e-09	-2.991375e+01	-5.335970e+02
5.600000e-07	-3.981354e-06	-8.002228e-09	-2.987212e+01	-5.330686e+02
5.700000e-07	-3.975711e-06	-8.026525e-09	-2.982978e+01	-5.325483e+02
5.800000e-07	-3.969857e-06	-7.967617e-09	-2.978585e+01	-5.320375e+02
5.900000e-07	-3.963954e-06	-7.892885e-09	-2.974156e+01	-5.315372e+02
6.000000e-07	-3.958020e-06	-7.898510e-09	-2.969704e+01	-5.310486e+02
6.100000e-07	-3.952033e-06	-7.983265e-09	-2.965213e+01	-5.305720e+02
6.200000e-07	-3.946029e-06	-7.961867e-09	-2.960707e+01	-5.301080e+02
6.300000e-07	-3.939776e-06	-7.899128e-09	-2.956016e+01	-5.296565e+02
6.400000e-07	-3.933366e-06	-7.887681e-09	-2.951206e+01	-5.292175e+02
6.500000e-07	-3.927024e-06	-7.943564e-09	-2.946448e+01	-5.287905e+02
6.600000e-07	-3.920503e-06	-7.959928e-09	-2.941555e+01	-5.283751e+02
6.700000e-07	-3.913797e-06	-7.881449e-09	-2.936524e+01	-5.279706e+02
6.800000e-07	-3.907071e-06	-7.839653e-09	-2.931478e+01	-5.275761e+02
6.900000e-07	-3.900332e-06	-7.850783e-09	-2.926421e+01	-5.271907e+02
7.000000e-07	-3.893634e-06	-7.893437e-09	-2.921396e+01	-5.268135e+02
7.100000e-07	-3.886703e-06	-7.875398e-09	-2.916195e+01	-5.264433e+02
7.200000e-07	-3.879573e-06	-7.832731e-09	-2.910846e+01	-5.260791e+02
7.300000e-07	-3.872401e-06	-7.838942e-09	-2.905464e+01	-5.257199e+02
7.400000e-07	-3.865146e-06	-7.864422e-09	-2.900021e+01	-5.253645e+02
7.500000e-07	-3.857750e-06	-7.878432e-09	-2.894472e+01	-5.250120e+02
7.600000e-07	-3.850021e-06	-7.826279e-09	-2.888673e+01	-5.246612e+02
7.700000e-07	-3.842234e-06	-7.790422e-09	-2.882830e+01	-5.243112e+02
7.800000e-07	-3.834470e-06	-7.798016e-09	-2.877005e+01	-5.239609e+02
7.900000e-07	-3.826617e-06	-7.819634e-09	-2.871113e+01	-5.236094e+02
8.000000e-07	-3.818649e-06	-7.815925e-09	-2.865134e+01	-5.232556e+02
8.100000e-07	-3.810582e-06	-7.777340e-09	-2.859081e+01	-5.228986e+02
8.200000e-07	-3.802481e-06	-7.783220e-09	-2.853003e+01	-5.225371e+02
8.300000e-07	-3.794284e-06	-7.807899e-09	-2.846853e+01	-5.221703e+02
8.400000e-07	-3.786012e-06	-7.814546e-09	-2.840647e+01	-5.217968e+02
8.500000e-07	-3.777709e-06	-7.771112e-09	-2.834417e+01	-5.214155e+02
8.600000e-07	-3.769355e-06	-7.726578e-09	-2.828149e+01	-5.210252e+02
8.700000e-07	-3.760919e-06	-7.730019e-09	-2.821819e+01	-5.206244e+02
8.800000e-07	-3.752513e-06	-7.732070e-09	-2.815512e+01	-5.202118e+02
8.900000e-07	-3.744066e-06	-7.720359e-09	-2.809175e+01	-5.197859e+02
9.000000e-07	-3.735582e-06	-7.696177e-09	-2.802809e+01	-5.193452e+02
9.100000e-07	-3.727041e-06	-7.707910e-09	-2.796400e+01	-5.188884e+02
9.200000e-07	-3.718373e-06	-7.731752e-09	-2.789897e+01	-5.184138e+02
9.300000e-07	-3.709653e-06	-7.723800e-09	-2.783354e+01	-5.179200e+02
9.400000e-07	-3.700802e-06	-7.690877e-09	-2.776713e+01	-5.174058e+02
9.500000e-07	-3.691812e-06	-7.652495e-09	-2.769968e+01	-5.168700e+02
9.600000e-07	-3.682789e-06	-7.650242e-09	-2.763198e+01	-5.163113e+02
9.700000e-07	-3.673692e-06	-7.646711e-09	-2.756373e+01	-5.157291e+02
9.800000e-07	-3.664525e-06	-7.632075e-09	-2.749495e+01	-5.151226e+02
9.900000e-07	-3.655066e-06	-7.616011e-09	-2.742398e+01	-5.144914e+02
1.000000e-06	-3.645320e-06	-7.613328e-09	-2.735085e+01	-5.138355e+02
1.010000e-06	-3.635601e-06	-7.623356e-09	-2.727793e+01	-5.131549e+02
1.020000e-06	-3.625778e-06	-7.608069e-09	-2.720423e+01	-5.124501e+02
1.030000e-06	-3.615687e-06	-7.581385e-09	-2.712851e+01	-5.117219e+02
1.040000e-06	-3.605425e-06	-7.551298e-09	-2.705152e+01	-5.109713e+02
1.050000e-06	-3.595005e-06	-7.539984e-09	-2.697334e+01	-5.101996e+02
1.060000e-06	-3.584375e-06	-7.530061e-09	-2.689359e+01	-5.094084e+02
1.070000e-06	-3.573616e-06	-7.505305e-09	-2.681286e+01	-5.085993e+02
1.080000e-06	-3.562580e-06	-7.489895e-09	-2.673006e+01	-5.077744e+02
1.090000e-06	-3.551262e-06	-7.484898e-09	-2.664514e+01	-5.069357e+02
1.100000e-06	-3.539883e-06	-7.490668e-09	-2.655976e+01	-5.060852e+02
1.110000e-06	-3.528468e-06	-7.475461e-09	-2.647411e+01	-5.052251e+02
1.120000e-06	-3.516825e-06	-7.449369e-09	-2.638675e+01	-5.043575e+02
1.130000e-06	-3.505111e-06	-7.429836e-09	-2.629887e+01	-5.034845e+02
1.140000e-06	-3.493317e-06	-7.416503e-09	-2.621037e+01	-5.026078e+02
1.150000e-06	-3.481354e-06	-7.404535e-09	-2.612062e+01	-5.017293e+02
1.160000e-06	-3.469388e-06	-7.377064e-09	-2.603084e+01	-5.008505e+02
1.170000e-06	-3.457400e-06	-7.355784e-09	-2.594089e+01	-4.999727e+02
1.180000e-06	-3.445321e-06	-7.343280e-09	-2.585026e+01	-4.990970e+02
1.190000e-06	-3.433147e-06	-7.337361e-09	-2.575892e+01	-4.982244e+02
1.200000e-06	-3.420905e-06	-7.326777e-09	-2.566706e+01	-4.973553e+02
1.210000e-06	-3.408654e-06	-7.308445e-09	-2.557515e+01	-4.964902e+02
1.220000e-06	-3.396420e-06	-7.297227e-09	-2.548335e+01	-4.956293e+02
1.230000e-06	-3.384092e-06	-7.285968e-09	-2.539086e+01	-4.947727e+02
1.240000e-06	-3.371632e-06	-7.273060e-09	-2.529737e+01	-4.939201e+02
1.250000e-06	-3.359063e-06	-7.249630e-09	-2.520307e+01	-4.930714e+02
1.260000e-06	-3.346348e-06	-7.226469e-09	-2.510767e+01	-4.922263e+02
1.270000e-06	-3.333550e-06	-7.211551e-09	-2.501164e+01	-4.913843e+02
1.280000e-06	-3.320723e-06	-7.203548e-09	-2.491540e+01	-4.905452e+02
1.290000e-06	-3.307809e-06	-7.202208e-09	-2.481851e+01	-4.897085e+02
1.300000e-06	-3.294788e-06	-7.192195e-09	-2.472081e+01	-4.888739e+02
1.310000e-06	-3.281647e-06	-7.180747e-09	-2.462221e+01	-4.880413e+02
1.320000e-06	-3.268321e-06	-7.168591e-09	-2.452223e+01	-4.872103e+02
1.330000e-06	-3.254891e-06	-7.154906e-09	-2.442146e+01	-4.863809e+02
1.340000e-06	-3.241481e-06	-7.134961e-09	-2.432085e+01	-4.855530e+02
1.350000e-06	-3.227901e-06	-7.110038e-09	-2.421896e+01	-4.847265e+02
1.360000e-06	-3.214203e-06	-7.093860e-09	-2.411618e+01	-4.839016e+02
1.370000e-06	-3.200600e-06	-7.084254e-09	-2.401412e+01	-4.830782e+02
1.380000e-06	-3.186868e-06	-7.080372e-09	-2.391108e+01	-4.822562e+02
1.390000e-06	-3.172936e-06	-7.068312e-09	-2.380655e+01	-4.814357e+02
1.400000e-06	-3.158963e-06	-7.057138e-09	-2.370172e+01	-4.806163e+02
1.410000e-06	-3.145053e-06	-7.052715e-09	-2.359735e+01	-4.797979e+02
1.420000e-06	-3.131078e-06	-7.042334e-09	-2.349250e+01	-4.789800e+02
1.430000e-06	-3.117030e-06	-7.028574e-09	-2.338710e+01	-4.781618e+02
1.440000e-06	-3.102847e-06	-7.010842e-09	-2.328068e+01	-4.773426e+02
1.450000e-06	-3.088410e-06	-6.997243e-09	-2.317235e+01	-4.765213e+02
1.460000e-06	-3.073941e-06	-6.982984e-09	-2.306380e+01	-4.756967e+02
1.470000e-06	-3.059454e-06	-6.964312e-09	-2.295510e+01	-4.748672e+02
1.480000e-06	-3.044935e-06	-6.946718e-09	-2.284616e+01	-4.740312e+02
1.490000e-06	-3.030437e-06	-6.932135e-09	-2.273738e+01	-4.731868e+02
1.500000e-06	-3.015804e-06	-6.924053e-09	-2.262760e+01	-4.723320e+02
1.510000e-06	-3.001060e-06	-6.914570e-09	-2.251697e+01	-4.714648e+02
1.520000e-06	-2.986288e-06	-6.900722e-09	-2.240613e+01	-4.705829e+02
1.530000e-06	-2.971366e-06	-6.885129e-09	-2.229417e+01	-4.696840e+02
1.540000e-06	-2.956230e-06	-6.870176e-09	-2.218061e+01	-4.687661e+02
1.550000e-06	-2.940987e-06	-6.851227e-09	-2.206624e+01	-4.678271e+02
1.560000e-06	-2.925756e-06	-6.825844e-09	-2.195196e+01	-4.668648e+02
1.570000e-06	-2.910248e-06	-6.803747e-09	-2.183561e+01	-4.658774e+02
1.580000e-06	-2.894461e-06	-6.785692e-09	-2.171716e+01	-4.648634e+02
1.590000e-06	-2.878755e-06	-6.772333e-09	-2.159932e+01	-4.638212e+02
1.600000e-06	-2.863050e-06	-6.759228e-09	-2.148148e+01	-4.627497e+02
1.610000e-06	-2.847236e-06	-6.746626e-09	-2.136282e+01	-4.616479e+02
1.620000e-06	-2.831385e-06	-6.735504e-09	-2.124389e+01	-4.605151e+02
1.630000e-06	-2.815509e-06	-6.714604e-09	-2.112478e+01	-4.593511e+02
1.640000e-06	-2.799282e-06	-6.687002e-09	-2.100302e+01	-4.581556e+02
1.650000e-06	-2.782805e-06	-6.656169e-09	-2.087940e+01	-4.569289e+02
1.660000e-06	-2.766330e-06	-6.628435e-09	-2.075579e+01	-4.556713e+02
1.670000e-06	-2.749897e-06	-6.608665e-09	-2.063249e+01	-4.543833e+02
1.680000e-06	-2.733247e-06	-6.592523e-09	-2.050757e+01	-4.530657e+02
1.690000e-06	-2.716373e-06	-6.577318e-09	-2.038096e+01	-4.517195e+02
1.700000e-06	-2.699615e-06	-6.560422e-09	-2.025523e+01	-4.503457e+02
1.710000e-06	-2.682812e-06	-6.545837e-09	-2.012915e+01	-4.489453e+02
1.720000e-06	-2.665884e-06	-6.526435e-09	-2.000214e+01	-4.475196e+02
1.730000e-06	-2.648821e-06	-6.499713e-09	-1.987412e+01	-4.460698e+02
1.740000e-06	-2.631765e-06	-6.472809e-09	-1.974614e+01	-4.445971e+02
1.750000e-06	-2.614578e-06	-6.447101e-09	-1.961719e+01	-4.431027e+02
1.760000e-06	-2.597205e-06	-6.422562e-09	-1.948684e+01	-4.415879e+02
1.770000e-06	-2.579878e-06	-6.397320e-09	-1.935684e+01	-4.400539e+02
1.780000e-06	-2.562440e-06	-6.375841e-09	-1.922600e+01	-4.385019e+02
1.790000e-06	-2.544851e-06	-6.353233e-09	-1.909403e+01	-4.369330e+02
1.800000e-06	-2.527221e-06	-6.327790e-09	-1.896175e+01	-4.353485e+02
1.810000e-06	-2.509532e-06	-6.301355e-09	-1.882903e+01	-4.337495e+02
1.820000e-06	-2.491894e-06	-6.274146e-09	-1.869669e+01	-4.321371e+02
1.830000e-06	-2.474305e-06	-6.250891e-09	-1.856472e+01	-4.305127e+02
1.840000e-06	-2.456628e-06	-6.225224e-09	-1.843209e+01	-4.288773e+02
1.850000e-06	-2.438899e-06	-6.199492e-09	-1.829907e+01	-4.272324e+02
1.860000e-06	-2.421092e-06	-6.176665e-09	-1.816547e+01	-4.255791e+02
1.870000e-06	-2.403285e-06	-6.155218e-09	-1.803186e+01	-4.239190e+02
1.880000e-06	-2.385515e-06	-6.132602e-09	-1.789853e+01	-4.222532e+02
1.890000e-06	-2.367571e-06	-6.104811e-09	-1.776390e+01	-4.205834e+02
1.900000e-06	-2.349507e-06	-6.080559e-09	-1.762837e+01	-4.189109e+02
1.910000e-06	-2.331507e-06	-6.058374e-09	-1.749331e+01	-4.172372e+02
1.920000e-06	-2.313523e-06	-6.034617e-09	-1.735838e+01	-4.155636e+02
1.930000e-06	-2.295489e-06	-6.011372e-09	-1.722307e+01	-4.138917e+02
1.940000e-06	-2.277339e-06	-5.986154e-09	-1.708689e+01	-4.122225e+02
1.950000e-06	-2.259213e-06	-5.959078e-09	-1.695089e+01	-4.105575e+02
1.960000e-06	-2.241116e-06	-5.930269e-09	-1.681511e+01	-4.088975e+02
1.970000e-06	-2.222877e-06	-5.905053e-09	-1.667826e+01	-4.072436e+02
1.980000e-06	-2.204730e-06	-5.881434e-09	-1.654210e+01	-4.055963e+02
1.990000e-06	-2.186584e-06	-5.859198e-09	-1.640595e+01	-4.039561e+02
2.000000e-06	-2.168299e-06	-5.839350e-09	-1.626876e+01	-4.023233e+02
2.010000e-06	-2.149936e-06	-5.821453e-09	-1.613098e+01	-4.006977e+02
2.020000e-06	-2.131562e-06	-5.804130e-09	-1.599312e+01	-3.990792e+02
2.030000e-06	-2.113115e-06	-5.781942e-09	-1.585471e+01	-3.974671e+02
2.040000e-06	-2.094617e-06	-5.756716e-09	-1.571592e+01	-3.958605e+02
2.050000e-06	-2.076096e-06	-5.731045e-09	-1.557696e+01	-3.942584e+02
2.060000e-06	-2.057367e-06	-5.706841e-09	-1.543643e+01	-3.926593e+02
2.070000e-06	-2.038540e-06	-5.683367e-09	-1.529518e+01	-3.910618e+02
2.080000e-06	-2.019738e-06	-5.661295e-09	-1.515410e+01	-3.894640e+02
2.090000e-06	-2.000942e-06	-5.640456e-09	-1.501308e+01	-3.878641e+02
2.100000e-06	-1.982090e-06	-5.621218e-09	-1.487163e+01	-3.862598e+02
2.110000e-06	-1.963084e-06	-5.602801e-09	-1.472903e+01	-3.846492e+02
2.120000e-06	-1.943974e-06	-5.581429e-09	-1.458565e+01	-3.830301e+02
2.130000e-06	-1.924765e-06	-5.557821e-09	-1.444152e+01	-3.814001e+02
2.140000e-06	-1.905480e-06	-5.531670e-09	-1.429683e+01	-3.797572e+02
2.150000e-06	-1.886108e-06	-5.504899e-09	-1.415148e+01	-3.780992e+02
2.160000e-06	-1.866572e-06	-5.476313e-09	-1.400490e+01	-3.764240e+02
2.170000e-06	-1.847027e-06	-5.445871e-09	-1.385826e+01	-3.747299e+02
2.180000e-06	-1.827524e-06	-5.421720e-09	-1.371193e+01	-3.730150e+02
2.190000e-06	-1.808102e-06	-5.405029e-09	-1.356620e+01	-3.712777e+02
2.200000e-06	-1.788663e-06	-5.391233e-09	-1.342035e+01	-3.695165e+02
2.210000e-06	-1.769115e-06	-5.373729e-09	-1.327368e+01	-3.677301e+02
2.220000e-06	-1.749586e-06	-5.348293e-09	-1.312716e+01	-3.659175e+02
2.230000e-06	-1.730081e-06	-5.318338e-09	-1.298080e+01	-3.640777e+02
2.240000e-06	-1.710476e-06	-5.286205e-09	-1.283371e+01	-3.622099e+02
2.250000e-06	-1.690713e-06	-5.253247e-09	-1.268543e+01	-3.603135e+02
2.260000e-06	-1.670786e-06	-5.220384e-09	-1.253592e+01	-3.583880e+02
2.270000e-06	-1.650748e-06	-5.188451e-09	-1.238557e+01	-3.564331e+02
2.280000e-06	-1.630777e-06	-5.158986e-09	-1.223573e+01	-3.544487e+02
2.290000e-06	-1.610806e-06	-5.130457e-09	-1.208589e+01	-3.524345e+02
2.300000e-06	-1.590780e-06	-5.100596e-09	-1.193563e+01	-3.503907e+02
2.310000e-06	-1.570693e-06	-5.068631e-09	-1.178492e+01	-3.483173e+02
2.320000e-06	-1.550612e-06	-5.038017e-09	-1.163425e+01	-3.462147e+02
2.330000e-06	-1.530521e-06	-5.009909e-09	-1.148351e+01	-3.440832e+02
2.340000e-06	-1.510397e-06	-4.981184e-09	-1.133251e+01	-3.419231e+02
2.350000e-06	-1.490316e-06	-4.948471e-09	-1.118185e+01	-3.397352e+02
2.360000e-06	-1.470197e-06	-4.913442e-09	-1.103089e+01	-3.375201e+02
2.370000e-06	-1.450040e-06	-4.879317e-09	-1.087966e+01	-3.352786e+02
2.380000e-06	-1.429790e-06	-4.846570e-09	-1.072772e+01	-3.330116e+02
2.390000e-06	-1.409515e-06	-4.815631e-09	-1.057560e+01	-3.307203e+02
2.400000e-06	-1.389286e-06	-4.783268e-09	-1.042382e+01	-3.284058e+02
2.410000e-06	-1.369007e-06	-4.749205e-09	-1.027167e+01	-3.260696e+02
2.420000e-06	-1.348763e-06	-4.716006e-09	-1.011977e+01	-3.237132e+02
2.430000e-06	-1.328521e-06	-4.684749e-09	-9.967900e+00	-3.213383e+02
2.440000e-06	-1.308231e-06	-4.651945e-09	-9.815665e+00	-3.189466e+02
2.450000e-06	-1.287950e-06	-4.614840e-09	-9.663495e+00	-3.165400e+02
2.460000e-06	-1.267644e-06	-4.578401e-09	-9.511136e+00	-3.141206e+02
2.470000e-06	-1.247314e-06	-4.543527e-09	-9.358603e+00	-3.116903e+02
2.480000e-06	-1.226986e-06	-4.509961e-09	-9.206079e+00	-3.092514e+02
2.490000e-06	-1.206667e-06	-4.475481e-09	-9.053628e+00	-3.068060e+02
2.500000e-06	-1.186333e-06	-4.439647e-09	-8.901061e+00	-3.043561e+02
2.510000e-06	-1.166001e-06	-4.404273e-09	-8.748509e+00	-3.019037e+02
2.520000e-06	-1.145693e-06	-4.369320e-09	-8.596142e+00	-2.994508e+02
2.530000e-06	-1.125370e-06	-4.333676e-09	-8.443660e+00	-2.969992e+02
2.540000e-06	-1.104998e-06	-4.297023e-09	-8.290808e+00	-2.945504e+02
2.550000e-06	-1.084638e-06	-4.261906e-09	-8.138041e+00	-2.921059e+02
2.560000e-06	-1.064251e-06	-4.227363e-09	-7.985083e+00	-2.896668e+02
2.570000e-06	-1.043802e-06	-4.191899e-09	-7.831649e+00	-2.872341e+02
2.580000e-06	-1.023331e-06	-4.155470e-09	-7.678056e+00	-2.848084e+02
2.590000e-06	-1.002875e-06	-4.117846e-09	-7.524575e+00	-2.823900e+02
2.600000e-06	-9.824681e-07	-4.079877e-09	-7.371463e+00	-2.799790e+02
2.610000e-06	-9.620827e-07	-4.045471e-09	-7.218511e+00	-2.775753e+02
2.620000e-06	-9.416694e-07	-4.018171e-09	-7.065350e+00	-2.751782e+02
2.630000e-06	-9.212445e-07	-3.992878e-09	-6.912102e+00	-2.727873e+02
2.640000e-06	-9.008510e-07	-3.963686e-09	-6.759089e+00	-2.704014e+02
2.650000e-06	-8.804061e-07	-3.931548e-09	-6.605691e+00	-2.680195e+02
2.660000e-06	-8.599002e-07	-3.897950e-09	-6.451836e+00	-2.656402e+02
2.670000e-06	-8.393633e-07	-3.862381e-09	-6.297747e+00	-2.632621e+02
2.680000e-06	-8.188763e-07	-3.823283e-09	-6.144033e+00	-2.608837e+02
2.690000e-06	-7.984217e-07	-3.785780e-09	-5.990562e+00	-2.585033e+02
2.700000e-06	-7.779086e-07	-3.755859e-09	-5.836652e+00	-2.561193e+02
2.710000e-06	-7.574330e-07	-3.728743e-09	-5.683024e+00	-2.537300e+02
2.720000e-06	-7.369602e-07	-3.696392e-09	-5.529416e+00	-2.513336e+02
2.730000e-06	-7.164018e-07	-3.661672e-09	-5.375166e+00	-2.489286e+02
2.740000e-06	-6.958144e-07	-3.626895e-09	-5.220699e+00	-2.465133e+02
2.750000e-06	-6.752112e-07	-3.587496e-09	-5.066113e+00	-2.440861e+02
2.760000e-06	-6.546251e-07	-3.546580e-09	-4.911655e+00	-2.416455e+02
2.770000e-06	-6.340647e-07	-3.507812e-09	-4.757391e+00	-2.391900e+02
2.780000e-06	-6.134837e-07	-3.473907e-09	-4.602971e+00	-2.367180e+02
2.790000e-06	-5.928869e-07	-3.444480e-09	-4.448433e+00	-2.342282e+02
2.800000e-06	-5.721999e-07	-3.414876e-09	-4.293219e+00	-2.317192e+02
2.810000e-06	-5.514140e-07	-3.383723e-09	-4.137262e+00	-2.291894e+02
2.820000e-06	-5.306247e-07	-3.347755e-09	-3.981280e+00	-2.266375e+02
2.830000e-06	-5.098135e-07	-3.309305e-09	-3.825133e+00	-2.240621e+02
2.840000e-06	-4.890447e-07	-3.269961e-09	-3.669305e+00	-2.214617e+02
