# Temperatura_=_20.0
# Concentracion g/m^3_=_10000.0
# C_Vs_to_Am_M_A/Vsm_=_65563218390.804596
# pendiente_HvsI_1/m_=_3716.3
# ordenada_HvsI_A/m_=_1297.0
# frecuencia_Hz_=_81168.74215471535

Tiempo_(s)	Campo_(V.s)	Magnetizacion_(V.s)	Campo_(kA/m)	Magnetizacion_(A/m)
0.000000e+00	-4.140288e-06	-8.460664e-09	-3.100173e+01	-5.476167e+02
1.000000e-08	-4.140372e-06	-8.431916e-09	-3.100236e+01	-5.478767e+02
2.000000e-08	-4.140375e-06	-8.473652e-09	-3.100238e+01	-5.481432e+02
3.000000e-08	-4.140352e-06	-8.485430e-09	-3.100221e+01	-5.484119e+02
4.000000e-08	-4.140324e-06	-8.461824e-09	-3.100200e+01	-5.486789e+02
5.000000e-08	-4.140204e-06	-8.482903e-09	-3.100110e+01	-5.489399e+02
6.000000e-08	-4.139931e-06	-8.433324e-09	-3.099906e+01	-5.491909e+02
7.000000e-08	-4.139595e-06	-8.354252e-09	-3.099654e+01	-5.494282e+02
8.000000e-08	-4.139216e-06	-8.302562e-09	-3.099370e+01	-5.496484e+02
9.000000e-08	-4.138793e-06	-8.410427e-09	-3.099054e+01	-5.498486e+02
1.000000e-07	-4.138382e-06	-8.485658e-09	-3.098746e+01	-5.500267e+02
1.100000e-07	-4.137844e-06	-8.412508e-09	-3.098343e+01	-5.501808e+02
1.200000e-07	-4.137241e-06	-8.451119e-09	-3.097892e+01	-5.503099e+02
1.300000e-07	-4.136557e-06	-8.441977e-09	-3.097380e+01	-5.504136e+02
1.400000e-07	-4.135821e-06	-8.431023e-09	-3.096828e+01	-5.504921e+02
1.500000e-07	-4.135018e-06	-8.427682e-09	-3.096227e+01	-5.505461e+02
1.600000e-07	-4.134042e-06	-8.476880e-09	-3.095496e+01	-5.505766e+02
1.700000e-07	-4.133032e-06	-8.423375e-09	-3.094740e+01	-5.505851e+02
1.800000e-07	-4.131797e-06	-8.328087e-09	-3.093815e+01	-5.505735e+02
1.900000e-07	-4.130363e-06	-8.481763e-09	-3.092741e+01	-5.505434e+02
2.000000e-07	-4.128832e-06	-8.507077e-09	-3.091595e+01	-5.504967e+02
2.100000e-07	-4.127084e-06	-8.445980e-09	-3.090286e+01	-5.504353e+02
2.200000e-07	-4.125160e-06	-8.303820e-09	-3.088845e+01	-5.503607e+02
2.300000e-07	-4.123005e-06	-8.397867e-09	-3.087232e+01	-5.502742e+02
2.400000e-07	-4.120675e-06	-8.525369e-09	-3.085487e+01	-5.501768e+02
2.500000e-07	-4.118309e-06	-8.437851e-09	-3.083716e+01	-5.500691e+02
2.600000e-07	-4.115804e-06	-8.367396e-09	-3.081840e+01	-5.499514e+02
2.700000e-07	-4.113208e-06	-8.345689e-09	-3.079896e+01	-5.498235e+02
2.800000e-07	-4.110349e-06	-8.464530e-09	-3.077755e+01	-5.496850e+02
2.900000e-07	-4.107076e-06	-8.427934e-09	-3.075304e+01	-5.495350e+02
3.000000e-07	-4.103673e-06	-8.361656e-09	-3.072757e+01	-5.493727e+02
3.100000e-07	-4.100190e-06	-8.342962e-09	-3.070149e+01	-5.491967e+02
3.200000e-07	-4.096638e-06	-8.344728e-09	-3.067489e+01	-5.490058e+02
3.300000e-07	-4.092838e-06	-8.433571e-09	-3.064643e+01	-5.487989e+02
3.400000e-07	-4.088974e-06	-8.409846e-09	-3.061750e+01	-5.485747e+02
3.500000e-07	-4.085175e-06	-8.384337e-09	-3.058906e+01	-5.483323e+02
3.600000e-07	-4.081137e-06	-8.300292e-09	-3.055882e+01	-5.480710e+02
3.700000e-07	-4.076994e-06	-8.315740e-09	-3.052780e+01	-5.477903e+02
3.800000e-07	-4.072876e-06	-8.390180e-09	-3.049696e+01	-5.474901e+02
3.900000e-07	-4.068705e-06	-8.339239e-09	-3.046573e+01	-5.471707e+02
4.000000e-07	-4.064443e-06	-8.276686e-09	-3.043382e+01	-5.468328e+02
4.100000e-07	-4.060140e-06	-8.254188e-09	-3.040160e+01	-5.464773e+02
4.200000e-07	-4.055787e-06	-8.387718e-09	-3.036901e+01	-5.461055e+02
4.300000e-07	-4.051360e-06	-8.385901e-09	-3.033585e+01	-5.457189e+02
4.400000e-07	-4.046878e-06	-8.260806e-09	-3.030230e+01	-5.453195e+02
4.500000e-07	-4.042355e-06	-8.213141e-09	-3.026843e+01	-5.449091e+02
4.600000e-07	-4.037815e-06	-8.259386e-09	-3.023443e+01	-5.444898e+02
4.700000e-07	-4.033273e-06	-8.325608e-09	-3.020042e+01	-5.440637e+02
4.800000e-07	-4.028603e-06	-8.241702e-09	-3.016545e+01	-5.436328e+02
4.900000e-07	-4.023651e-06	-8.216579e-09	-3.012837e+01	-5.431990e+02
5.000000e-07	-4.018529e-06	-8.248083e-09	-3.009002e+01	-5.427643e+02
5.100000e-07	-4.013499e-06	-8.282262e-09	-3.005236e+01	-5.423300e+02
5.200000e-07	-4.008425e-06	-8.271863e-09	-3.001436e+01	-5.418977e+02
5.300000e-07	-4.003084e-06	-8.203274e-09	-2.997437e+01	-5.414685e+02
5.400000e-07	-3.997669e-06	-8.194837e-09	-2.993383e+01	-5.410431e+02
5.500000e-07	-3.992224e-06	-8.188783e-09	-2.989305e+01	-5.406223e+02
5.600000e-07	-3.986646e-06	-8.236009e-09	-2.985129e+01	-5.402065e+02
5.700000e-07	-3.980874e-06	-8.220162e-09	-2.980807e+01	-5.397958e+02
5.800000e-07	-3.974857e-06	-8.159401e-09	-2.976301e+01	-5.393903e+02
5.900000e-07	-3.968784e-06	-8.158790e-09	-2.971754e+01	-5.389898e+02
6.000000e-07	-3.962708e-06	-8.185275e-09	-2.967204e+01	-5.385941e+02
6.100000e-07	-3.956566e-06	-8.198130e-09	-2.962605e+01	-5.382028e+02
6.200000e-07	-3.950298e-06	-8.121851e-09	-2.957912e+01	-5.378154e+02
6.300000e-07	-3.943988e-06	-8.117011e-09	-2.953187e+01	-5.374316e+02
6.400000e-07	-3.937594e-06	-8.162057e-09	-2.948400e+01	-5.370508e+02
6.500000e-07	-3.931024e-06	-8.174616e-09	-2.943480e+01	-5.366724e+02
6.600000e-07	-3.924464e-06	-8.139670e-09	-2.938568e+01	-5.362959e+02
6.700000e-07	-3.917837e-06	-8.081522e-09	-2.933606e+01	-5.359208e+02
6.800000e-07	-3.911084e-06	-8.090363e-09	-2.928550e+01	-5.355465e+02
6.900000e-07	-3.904211e-06	-8.091734e-09	-2.923403e+01	-5.351722e+02
7.000000e-07	-3.897284e-06	-8.090269e-09	-2.918216e+01	-5.347973e+02
7.100000e-07	-3.890220e-06	-8.064558e-09	-2.912927e+01	-5.344211e+02
7.200000e-07	-3.882897e-06	-8.057506e-09	-2.907444e+01	-5.340427e+02
7.300000e-07	-3.875449e-06	-8.094435e-09	-2.901866e+01	-5.336612e+02
7.400000e-07	-3.867993e-06	-8.097446e-09	-2.896284e+01	-5.332755e+02
7.500000e-07	-3.860355e-06	-8.076882e-09	-2.890565e+01	-5.328846e+02
7.600000e-07	-3.852590e-06	-8.026125e-09	-2.884750e+01	-5.324872e+02
7.700000e-07	-3.844794e-06	-8.024236e-09	-2.878913e+01	-5.320823e+02
7.800000e-07	-3.836888e-06	-8.036913e-09	-2.872993e+01	-5.316683e+02
7.900000e-07	-3.828919e-06	-8.025011e-09	-2.867026e+01	-5.312442e+02
8.000000e-07	-3.820773e-06	-8.010936e-09	-2.860926e+01	-5.308085e+02
8.100000e-07	-3.812588e-06	-7.998381e-09	-2.854797e+01	-5.303601e+02
8.200000e-07	-3.804389e-06	-8.024086e-09	-2.848658e+01	-5.298977e+02
8.300000e-07	-3.796161e-06	-8.018164e-09	-2.842497e+01	-5.294202e+02
8.400000e-07	-3.787979e-06	-7.985163e-09	-2.836371e+01	-5.289268e+02
8.500000e-07	-3.779720e-06	-7.947124e-09	-2.830186e+01	-5.284166e+02
8.600000e-07	-3.771384e-06	-7.935526e-09	-2.823945e+01	-5.278889e+02
8.700000e-07	-3.763012e-06	-7.947727e-09	-2.817675e+01	-5.273433e+02
8.800000e-07	-3.754626e-06	-7.931882e-09	-2.811396e+01	-5.267794e+02
8.900000e-07	-3.746157e-06	-7.925874e-09	-2.805055e+01	-5.261972e+02
9.000000e-07	-3.737684e-06	-7.922474e-09	-2.798710e+01	-5.255966e+02
9.100000e-07	-3.729248e-06	-7.929451e-09	-2.792394e+01	-5.249777e+02
9.200000e-07	-3.720517e-06	-7.918445e-09	-2.785856e+01	-5.243410e+02
9.300000e-07	-3.711628e-06	-7.880944e-09	-2.779200e+01	-5.236867e+02
9.400000e-07	-3.702759e-06	-7.854478e-09	-2.772560e+01	-5.230152e+02
9.500000e-07	-3.693784e-06	-7.838491e-09	-2.765839e+01	-5.223272e+02
9.600000e-07	-3.684739e-06	-7.844411e-09	-2.759066e+01	-5.216229e+02
9.700000e-07	-3.675433e-06	-7.832177e-09	-2.752098e+01	-5.209031e+02
9.800000e-07	-3.665937e-06	-7.818413e-09	-2.744988e+01	-5.201682e+02
9.900000e-07	-3.656420e-06	-7.813264e-09	-2.737862e+01	-5.194187e+02
1.000000e-06	-3.646782e-06	-7.808808e-09	-2.730645e+01	-5.186552e+02
1.010000e-06	-3.636941e-06	-7.800086e-09	-2.723276e+01	-5.178780e+02
1.020000e-06	-3.626972e-06	-7.765789e-09	-2.715811e+01	-5.170877e+02
1.030000e-06	-3.616834e-06	-7.737797e-09	-2.708220e+01	-5.162849e+02
1.040000e-06	-3.606217e-06	-7.718018e-09	-2.700270e+01	-5.154701e+02
1.050000e-06	-3.595354e-06	-7.711099e-09	-2.692136e+01	-5.146440e+02
1.060000e-06	-3.584497e-06	-7.697543e-09	-2.684007e+01	-5.138072e+02
1.070000e-06	-3.573567e-06	-7.680359e-09	-2.675823e+01	-5.129605e+02
1.080000e-06	-3.562441e-06	-7.678584e-09	-2.667492e+01	-5.121050e+02
1.090000e-06	-3.551061e-06	-7.672253e-09	-2.658970e+01	-5.112416e+02
1.100000e-06	-3.539623e-06	-7.660586e-09	-2.650406e+01	-5.103715e+02
1.110000e-06	-3.528072e-06	-7.627969e-09	-2.641757e+01	-5.094960e+02
1.120000e-06	-3.516425e-06	-7.596524e-09	-2.633036e+01	-5.086163e+02
1.130000e-06	-3.504742e-06	-7.579883e-09	-2.624288e+01	-5.077340e+02
1.140000e-06	-3.492856e-06	-7.569862e-09	-2.615388e+01	-5.068505e+02
1.150000e-06	-3.480852e-06	-7.564314e-09	-2.606400e+01	-5.059671e+02
1.160000e-06	-3.468820e-06	-7.547548e-09	-2.597390e+01	-5.050852e+02
1.170000e-06	-3.456723e-06	-7.538762e-09	-2.588332e+01	-5.042060e+02
1.180000e-06	-3.444567e-06	-7.531343e-09	-2.579230e+01	-5.033306e+02
1.190000e-06	-3.432396e-06	-7.517811e-09	-2.570116e+01	-5.024600e+02
1.200000e-06	-3.420103e-06	-7.497836e-09	-2.560911e+01	-5.015946e+02
1.210000e-06	-3.407695e-06	-7.475270e-09	-2.551621e+01	-5.007349e+02
1.220000e-06	-3.395302e-06	-7.463126e-09	-2.542341e+01	-4.998809e+02
1.230000e-06	-3.382814e-06	-7.448270e-09	-2.532990e+01	-4.990324e+02
1.240000e-06	-3.370294e-06	-7.434276e-09	-2.523615e+01	-4.981888e+02
1.250000e-06	-3.357664e-06	-7.418030e-09	-2.514158e+01	-4.973492e+02
1.260000e-06	-3.344921e-06	-7.404787e-09	-2.504617e+01	-4.965126e+02
1.270000e-06	-3.332130e-06	-7.397804e-09	-2.495039e+01	-4.956776e+02
1.280000e-06	-3.319165e-06	-7.389325e-09	-2.485331e+01	-4.948428e+02
1.290000e-06	-3.306097e-06	-7.379961e-09	-2.475546e+01	-4.940065e+02
1.300000e-06	-3.292952e-06	-7.361260e-09	-2.465703e+01	-4.931671e+02
1.310000e-06	-3.279761e-06	-7.347084e-09	-2.455826e+01	-4.923230e+02
1.320000e-06	-3.266461e-06	-7.335086e-09	-2.445867e+01	-4.914725e+02
1.330000e-06	-3.253034e-06	-7.316680e-09	-2.435814e+01	-4.906144e+02
1.340000e-06	-3.239576e-06	-7.293651e-09	-2.425737e+01	-4.897472e+02
1.350000e-06	-3.225883e-06	-7.269547e-09	-2.415483e+01	-4.888701e+02
1.360000e-06	-3.211973e-06	-7.257557e-09	-2.405067e+01	-4.879822e+02
1.370000e-06	-3.198104e-06	-7.247491e-09	-2.394683e+01	-4.870830e+02
1.380000e-06	-3.184194e-06	-7.235076e-09	-2.384267e+01	-4.861723e+02
1.390000e-06	-3.170125e-06	-7.220544e-09	-2.373732e+01	-4.852501e+02
1.400000e-06	-3.156068e-06	-7.210312e-09	-2.363207e+01	-4.843166e+02
1.410000e-06	-3.141974e-06	-7.198242e-09	-2.352654e+01	-4.833722e+02
1.420000e-06	-3.127658e-06	-7.175209e-09	-2.341934e+01	-4.824175e+02
1.430000e-06	-3.113291e-06	-7.150029e-09	-2.331176e+01	-4.814530e+02
1.440000e-06	-3.098944e-06	-7.127146e-09	-2.320434e+01	-4.804794e+02
1.450000e-06	-3.084547e-06	-7.115142e-09	-2.309653e+01	-4.794973e+02
1.460000e-06	-3.070110e-06	-7.103967e-09	-2.298843e+01	-4.785071e+02
1.470000e-06	-3.055532e-06	-7.092037e-09	-2.287927e+01	-4.775091e+02
1.480000e-06	-3.040842e-06	-7.082257e-09	-2.276928e+01	-4.765036e+02
1.490000e-06	-3.026201e-06	-7.068111e-09	-2.265965e+01	-4.754903e+02
1.500000e-06	-3.011441e-06	-7.052972e-09	-2.254913e+01	-4.744690e+02
1.510000e-06	-2.996544e-06	-7.024169e-09	-2.243758e+01	-4.734391e+02
1.520000e-06	-2.981535e-06	-6.990822e-09	-2.232520e+01	-4.723997e+02
1.530000e-06	-2.966463e-06	-6.966216e-09	-2.221234e+01	-4.713499e+02
1.540000e-06	-2.951329e-06	-6.949509e-09	-2.209902e+01	-4.702884e+02
1.550000e-06	-2.935904e-06	-6.938657e-09	-2.198352e+01	-4.692141e+02
1.560000e-06	-2.920466e-06	-6.921955e-09	-2.186792e+01	-4.681254e+02
1.570000e-06	-2.904858e-06	-6.906995e-09	-2.175105e+01	-4.670211e+02
1.580000e-06	-2.889093e-06	-6.891671e-09	-2.163301e+01	-4.658997e+02
1.590000e-06	-2.873410e-06	-6.871525e-09	-2.151558e+01	-4.647602e+02
1.600000e-06	-2.857465e-06	-6.847647e-09	-2.139618e+01	-4.636014e+02
1.610000e-06	-2.841338e-06	-6.825137e-09	-2.127543e+01	-4.624226e+02
1.620000e-06	-2.825030e-06	-6.807493e-09	-2.115331e+01	-4.612230e+02
1.630000e-06	-2.808711e-06	-6.790733e-09	-2.103112e+01	-4.600026e+02
1.640000e-06	-2.792562e-06	-6.773159e-09	-2.091020e+01	-4.587611e+02
1.650000e-06	-2.776026e-06	-6.750255e-09	-2.078638e+01	-4.574988e+02
1.660000e-06	-2.759227e-06	-6.729991e-09	-2.066060e+01	-4.562163e+02
1.670000e-06	-2.742733e-06	-6.711550e-09	-2.053709e+01	-4.549143e+02
1.680000e-06	-2.726072e-06	-6.688821e-09	-2.041234e+01	-4.535938e+02
1.690000e-06	-2.709116e-06	-6.668097e-09	-2.028537e+01	-4.522558e+02
1.700000e-06	-2.692143e-06	-6.647284e-09	-2.015828e+01	-4.509015e+02
1.710000e-06	-2.675146e-06	-6.628806e-09	-2.003101e+01	-4.495322e+02
1.720000e-06	-2.658127e-06	-6.608822e-09	-1.990358e+01	-4.481491e+02
1.730000e-06	-2.641032e-06	-6.585207e-09	-1.977557e+01	-4.467534e+02
1.740000e-06	-2.623911e-06	-6.561424e-09	-1.964737e+01	-4.453462e+02
1.750000e-06	-2.606689e-06	-6.535332e-09	-1.951842e+01	-4.439284e+02
1.760000e-06	-2.589327e-06	-6.511190e-09	-1.938841e+01	-4.425009e+02
1.770000e-06	-2.571899e-06	-6.488184e-09	-1.925791e+01	-4.410643e+02
1.780000e-06	-2.554429e-06	-6.468143e-09	-1.912710e+01	-4.396190e+02
1.790000e-06	-2.536935e-06	-6.448011e-09	-1.899611e+01	-4.381653e+02
1.800000e-06	-2.519462e-06	-6.429386e-09	-1.886528e+01	-4.367035e+02
1.810000e-06	-2.501920e-06	-6.406814e-09	-1.873393e+01	-4.352334e+02
1.820000e-06	-2.484282e-06	-6.377115e-09	-1.860186e+01	-4.337550e+02
1.830000e-06	-2.466632e-06	-6.348724e-09	-1.846970e+01	-4.322683e+02
1.840000e-06	-2.448993e-06	-6.322939e-09	-1.833762e+01	-4.307730e+02
1.850000e-06	-2.431232e-06	-6.299481e-09	-1.820463e+01	-4.292691e+02
1.860000e-06	-2.413367e-06	-6.275916e-09	-1.807086e+01	-4.277564e+02
1.870000e-06	-2.395463e-06	-6.259254e-09	-1.793679e+01	-4.262349e+02
1.880000e-06	-2.377518e-06	-6.244598e-09	-1.780242e+01	-4.247048e+02
1.890000e-06	-2.359659e-06	-6.226392e-09	-1.766870e+01	-4.231661e+02
1.900000e-06	-2.341737e-06	-6.204731e-09	-1.753450e+01	-4.216193e+02
1.910000e-06	-2.323789e-06	-6.175492e-09	-1.740011e+01	-4.200647e+02
1.920000e-06	-2.305814e-06	-6.143863e-09	-1.726552e+01	-4.185028e+02
1.930000e-06	-2.287717e-06	-6.113051e-09	-1.713002e+01	-4.169342e+02
1.940000e-06	-2.269569e-06	-6.086708e-09	-1.699412e+01	-4.153594e+02
1.950000e-06	-2.251407e-06	-6.064995e-09	-1.685813e+01	-4.137790e+02
1.960000e-06	-2.233259e-06	-6.043841e-09	-1.672224e+01	-4.121936e+02
1.970000e-06	-2.215018e-06	-6.024914e-09	-1.658566e+01	-4.106036e+02
1.980000e-06	-2.196658e-06	-6.004741e-09	-1.644818e+01	-4.090094e+02
1.990000e-06	-2.178314e-06	-5.981074e-09	-1.631082e+01	-4.074112e+02
2.000000e-06	-2.159982e-06	-5.956536e-09	-1.617355e+01	-4.058090e+02
2.010000e-06	-2.141638e-06	-5.933553e-09	-1.603620e+01	-4.042028e+02
2.020000e-06	-2.123100e-06	-5.910623e-09	-1.589739e+01	-4.025922e+02
2.030000e-06	-2.104395e-06	-5.885600e-09	-1.575733e+01	-4.009768e+02
2.040000e-06	-2.085807e-06	-5.863356e-09	-1.561815e+01	-3.993558e+02
2.050000e-06	-2.067175e-06	-5.841801e-09	-1.547864e+01	-3.977285e+02
2.060000e-06	-2.048368e-06	-5.819462e-09	-1.533781e+01	-3.960938e+02
2.070000e-06	-2.029529e-06	-5.797910e-09	-1.519675e+01	-3.944506e+02
2.080000e-06	-2.010670e-06	-5.776739e-09	-1.505554e+01	-3.927978e+02
2.090000e-06	-1.991706e-06	-5.751710e-09	-1.491353e+01	-3.911343e+02
2.100000e-06	-1.972704e-06	-5.724625e-09	-1.477125e+01	-3.894586e+02
2.110000e-06	-1.953719e-06	-5.701823e-09	-1.462910e+01	-3.877698e+02
2.120000e-06	-1.934737e-06	-5.680560e-09	-1.448696e+01	-3.860665e+02
2.130000e-06	-1.915725e-06	-5.655743e-09	-1.434461e+01	-3.843478e+02
2.140000e-06	-1.896434e-06	-5.625480e-09	-1.420015e+01	-3.826127e+02
2.150000e-06	-1.877035e-06	-5.595359e-09	-1.405490e+01	-3.808603e+02
2.160000e-06	-1.857635e-06	-5.568622e-09	-1.390964e+01	-3.790898e+02
2.170000e-06	-1.838166e-06	-5.545452e-09	-1.376386e+01	-3.773005e+02
2.180000e-06	-1.818799e-06	-5.525074e-09	-1.361884e+01	-3.754920e+02
2.190000e-06	-1.799468e-06	-5.500685e-09	-1.347409e+01	-3.736637e+02
2.200000e-06	-1.779984e-06	-5.476103e-09	-1.332820e+01	-3.718152e+02
2.210000e-06	-1.760321e-06	-5.451406e-09	-1.318097e+01	-3.699462e+02
2.220000e-06	-1.740694e-06	-5.418282e-09	-1.303400e+01	-3.680564e+02
2.230000e-06	-1.721072e-06	-5.381285e-09	-1.288708e+01	-3.661454e+02
2.240000e-06	-1.701309e-06	-5.346998e-09	-1.273909e+01	-3.642132e+02
2.250000e-06	-1.681432e-06	-5.321301e-09	-1.259026e+01	-3.622592e+02
2.260000e-06	-1.661603e-06	-5.299340e-09	-1.244179e+01	-3.602834e+02
2.270000e-06	-1.641749e-06	-5.273899e-09	-1.229312e+01	-3.582855e+02
2.280000e-06	-1.621792e-06	-5.242980e-09	-1.214369e+01	-3.562652e+02
2.290000e-06	-1.601748e-06	-5.204205e-09	-1.199360e+01	-3.542222e+02
2.300000e-06	-1.581643e-06	-5.167465e-09	-1.184306e+01	-3.521565e+02
2.310000e-06	-1.561460e-06	-5.133871e-09	-1.169193e+01	-3.500678e+02
2.320000e-06	-1.541313e-06	-5.103571e-09	-1.154108e+01	-3.479561e+02
2.330000e-06	-1.521238e-06	-5.077562e-09	-1.139076e+01	-3.458216e+02
2.340000e-06	-1.501136e-06	-5.052440e-09	-1.124024e+01	-3.436643e+02
2.350000e-06	-1.481082e-06	-5.030416e-09	-1.109008e+01	-3.414847e+02
2.360000e-06	-1.461014e-06	-5.000861e-09	-1.093981e+01	-3.392831e+02
2.370000e-06	-1.440884e-06	-4.962902e-09	-1.078908e+01	-3.370603e+02
2.380000e-06	-1.420740e-06	-4.922609e-09	-1.063825e+01	-3.348170e+02
2.390000e-06	-1.400572e-06	-4.884351e-09	-1.048723e+01	-3.325542e+02
2.400000e-06	-1.380341e-06	-4.849641e-09	-1.033574e+01	-3.302730e+02
2.410000e-06	-1.360106e-06	-4.815814e-09	-1.018423e+01	-3.279748e+02
2.420000e-06	-1.339870e-06	-4.788254e-09	-1.003270e+01	-3.256607e+02
2.430000e-06	-1.319585e-06	-4.761368e-09	-9.880814e+00	-3.233322e+02
2.440000e-06	-1.299250e-06	-4.734086e-09	-9.728552e+00	-3.209908e+02
2.450000e-06	-1.278928e-06	-4.702404e-09	-9.576380e+00	-3.186378e+02
2.460000e-06	-1.258678e-06	-4.660645e-09	-9.424758e+00	-3.162748e+02
2.470000e-06	-1.238442e-06	-4.616128e-09	-9.273233e+00	-3.139030e+02
2.480000e-06	-1.218094e-06	-4.574881e-09	-9.120872e+00	-3.115237e+02
2.490000e-06	-1.197720e-06	-4.541305e-09	-8.968311e+00	-3.091379e+02
2.500000e-06	-1.177407e-06	-4.510105e-09	-8.816215e+00	-3.067466e+02
2.510000e-06	-1.157071e-06	-4.481377e-09	-8.663941e+00	-3.043506e+02
2.520000e-06	-1.136711e-06	-4.452762e-09	-8.511488e+00	-3.019504e+02
2.530000e-06	-1.116350e-06	-4.418162e-09	-8.359028e+00	-2.995465e+02
2.540000e-06	-1.095988e-06	-4.382072e-09	-8.206563e+00	-2.971392e+02
2.550000e-06	-1.075614e-06	-4.345612e-09	-8.054007e+00	-2.947284e+02
2.560000e-06	-1.055215e-06	-4.311354e-09	-7.901262e+00	-2.923142e+02
2.570000e-06	-1.034840e-06	-4.277751e-09	-7.748699e+00	-2.898964e+02
2.580000e-06	-1.014490e-06	-4.245891e-09	-7.596322e+00	-2.874747e+02
2.590000e-06	-9.940881e-07	-4.215605e-09	-7.443553e+00	-2.850486e+02
2.600000e-06	-9.736469e-07	-4.182266e-09	-7.290493e+00	-2.826179e+02
2.610000e-06	-9.532331e-07	-4.149691e-09	-7.137638e+00	-2.801819e+02
2.620000e-06	-9.328042e-07	-4.115121e-09	-6.984670e+00	-2.777403e+02
2.630000e-06	-9.123356e-07	-4.079499e-09	-6.831405e+00	-2.752924e+02
2.640000e-06	-8.918550e-07	-4.045359e-09	-6.678050e+00	-2.728378e+02
2.650000e-06	-8.713383e-07	-4.010832e-09	-6.524425e+00	-2.703758e+02
2.660000e-06	-8.508347e-07	-3.977353e-09	-6.370897e+00	-2.679060e+02
2.670000e-06	-8.303520e-07	-3.944982e-09	-6.217526e+00	-2.654276e+02
2.680000e-06	-8.099153e-07	-3.909038e-09	-6.064500e+00	-2.629400e+02
2.690000e-06	-7.894817e-07	-3.869816e-09	-5.911497e+00	-2.604425e+02
2.700000e-06	-7.689487e-07	-3.830759e-09	-5.757750e+00	-2.579343e+02
2.710000e-06	-7.483601e-07	-3.791333e-09	-5.603586e+00	-2.554144e+02
2.720000e-06	-7.277092e-07	-3.753084e-09	-5.448956e+00	-2.528819e+02
2.730000e-06	-7.070438e-07	-3.717759e-09	-5.294217e+00	-2.503356e+02
2.740000e-06	-6.863011e-07	-3.684365e-09	-5.138899e+00	-2.477742e+02
2.750000e-06	-6.656136e-07	-3.649977e-09	-4.983995e+00	-2.451964e+02
2.760000e-06	-6.449951e-07	-3.611748e-09	-4.829607e+00	-2.426007e+02
2.770000e-06	-6.243134e-07	-3.573702e-09	-4.674746e+00	-2.399856e+02
2.780000e-06	-6.036135e-07	-3.536936e-09	-4.519750e+00	-2.373495e+02
2.790000e-06	-5.828359e-07	-3.503109e-09	-4.364170e+00	-2.346906e+02
2.800000e-06	-5.620098e-07	-3.471050e-09	-4.208228e+00	-2.320074e+02
2.810000e-06	-5.411853e-07	-3.432528e-09	-4.052298e+00	-2.292983e+02
2.820000e-06	-5.204207e-07	-3.391239e-09	-3.896816e+00	-2.265618e+02
2.830000e-06	-4.996427e-07	-3.352378e-09	-3.741235e+00	-2.237964e+02
2.840000e-06	-4.788900e-07	-3.312440e-09	-3.585842e+00	-2.210011e+02
