# Temperatura_=_20.0
# Concentracion g/m^3_=_10000.0
# C_Vs_to_Am_M_A/Vsm_=_65563218390.804596
# pendiente_HvsI_1/m_=_3716.3
# ordenada_HvsI_A/m_=_1297.0
# frecuencia_Hz_=_81167.37630913727

Tiempo_(s)	Campo_(V.s)	Magnetizacion_(V.s)	Campo_(kA/m)	Magnetizacion_(A/m)
0.000000e+00	-4.128284e-06	-8.237712e-09	-3.101581e+01	-5.454716e+02
1.000000e-08	-4.128569e-06	-8.258260e-09	-3.101796e+01	-5.456270e+02
2.000000e-08	-4.128725e-06	-8.373739e-09	-3.101913e+01	-5.457676e+02
3.000000e-08	-4.128752e-06	-8.444461e-09	-3.101933e+01	-5.458902e+02
4.000000e-08	-4.128763e-06	-8.359804e-09	-3.101941e+01	-5.459926e+02
5.000000e-08	-4.128660e-06	-8.328838e-09	-3.101864e+01	-5.460728e+02
6.000000e-08	-4.128482e-06	-8.417670e-09	-3.101730e+01	-5.461299e+02
7.000000e-08	-4.128249e-06	-8.156088e-09	-3.101555e+01	-5.461637e+02
8.000000e-08	-4.127987e-06	-8.103328e-09	-3.101358e+01	-5.461747e+02
9.000000e-08	-4.127618e-06	-8.203467e-09	-3.101081e+01	-5.461641e+02
1.000000e-07	-4.127120e-06	-8.122193e-09	-3.100707e+01	-5.461339e+02
1.100000e-07	-4.126612e-06	-8.222441e-09	-3.100325e+01	-5.460864e+02
1.200000e-07	-4.126064e-06	-8.263540e-09	-3.099913e+01	-5.460244e+02
1.300000e-07	-4.125468e-06	-8.373248e-09	-3.099466e+01	-5.459510e+02
1.400000e-07	-4.124757e-06	-8.246101e-09	-3.098931e+01	-5.458693e+02
1.500000e-07	-4.123980e-06	-8.183848e-09	-3.098348e+01	-5.457822e+02
1.600000e-07	-4.123129e-06	-8.360378e-09	-3.097708e+01	-5.456926e+02
1.700000e-07	-4.122056e-06	-8.251946e-09	-3.096902e+01	-5.456028e+02
1.800000e-07	-4.120809e-06	-8.202526e-09	-3.095966e+01	-5.455149e+02
1.900000e-07	-4.119336e-06	-8.155962e-09	-3.094859e+01	-5.454301e+02
2.000000e-07	-4.117838e-06	-8.360119e-09	-3.093733e+01	-5.453491e+02
2.100000e-07	-4.116180e-06	-8.341299e-09	-3.092488e+01	-5.452719e+02
2.200000e-07	-4.114406e-06	-8.120938e-09	-3.091155e+01	-5.451981e+02
2.300000e-07	-4.112614e-06	-8.196321e-09	-3.089808e+01	-5.451263e+02
2.400000e-07	-4.110448e-06	-8.240911e-09	-3.088181e+01	-5.450548e+02
2.500000e-07	-4.108018e-06	-8.328486e-09	-3.086356e+01	-5.449814e+02
2.600000e-07	-4.105396e-06	-8.188493e-09	-3.084385e+01	-5.449034e+02
2.700000e-07	-4.102714e-06	-8.211982e-09	-3.082371e+01	-5.448181e+02
2.800000e-07	-4.099727e-06	-8.270343e-09	-3.080127e+01	-5.447226e+02
2.900000e-07	-4.096494e-06	-8.220016e-09	-3.077698e+01	-5.446141e+02
3.000000e-07	-4.093199e-06	-8.243411e-09	-3.075222e+01	-5.444900e+02
3.100000e-07	-4.089815e-06	-8.152629e-09	-3.072680e+01	-5.443478e+02
3.200000e-07	-4.086322e-06	-8.210689e-09	-3.070055e+01	-5.441856e+02
3.300000e-07	-4.082709e-06	-8.168415e-09	-3.067341e+01	-5.440019e+02
3.400000e-07	-4.079106e-06	-8.231283e-09	-3.064634e+01	-5.437956e+02
3.500000e-07	-4.075228e-06	-8.268766e-09	-3.061720e+01	-5.435664e+02
3.600000e-07	-4.071171e-06	-8.154796e-09	-3.058672e+01	-5.433142e+02
3.700000e-07	-4.067060e-06	-8.145533e-09	-3.055584e+01	-5.430396e+02
3.800000e-07	-4.062864e-06	-8.145730e-09	-3.052432e+01	-5.427436e+02
3.900000e-07	-4.058661e-06	-8.250599e-09	-3.049274e+01	-5.424276e+02
4.000000e-07	-4.054399e-06	-8.129862e-09	-3.046072e+01	-5.420934e+02
4.100000e-07	-4.050048e-06	-8.061433e-09	-3.042803e+01	-5.417429e+02
4.200000e-07	-4.045655e-06	-8.160014e-09	-3.039503e+01	-5.413782e+02
4.300000e-07	-4.041253e-06	-8.207528e-09	-3.036195e+01	-5.410013e+02
4.400000e-07	-4.036857e-06	-8.179878e-09	-3.032892e+01	-5.406144e+02
4.500000e-07	-4.032371e-06	-8.037155e-09	-3.029522e+01	-5.402192e+02
4.600000e-07	-4.027809e-06	-8.113390e-09	-3.026095e+01	-5.398177e+02
4.700000e-07	-4.023153e-06	-8.141040e-09	-3.022596e+01	-5.394113e+02
4.800000e-07	-4.018455e-06	-8.102863e-09	-3.019067e+01	-5.390012e+02
4.900000e-07	-4.013711e-06	-8.074992e-09	-3.015503e+01	-5.385884e+02
5.000000e-07	-4.008810e-06	-8.056651e-09	-3.011820e+01	-5.381736e+02
5.100000e-07	-4.003749e-06	-8.118747e-09	-3.008018e+01	-5.377572e+02
5.200000e-07	-3.998540e-06	-8.082634e-09	-3.004105e+01	-5.373397e+02
5.300000e-07	-3.993216e-06	-8.104144e-09	-3.000105e+01	-5.369209e+02
5.400000e-07	-3.987784e-06	-8.050290e-09	-2.996024e+01	-5.365010e+02
5.500000e-07	-3.982380e-06	-8.022821e-09	-2.991964e+01	-5.360798e+02
5.600000e-07	-3.976859e-06	-8.065434e-09	-2.987816e+01	-5.356573e+02
5.700000e-07	-3.971181e-06	-8.056296e-09	-2.983550e+01	-5.352332e+02
5.800000e-07	-3.965381e-06	-8.046053e-09	-2.979193e+01	-5.348078e+02
5.900000e-07	-3.959415e-06	-7.974992e-09	-2.974710e+01	-5.343809e+02
6.000000e-07	-3.953337e-06	-8.026398e-09	-2.970144e+01	-5.339529e+02
6.100000e-07	-3.947179e-06	-8.038683e-09	-2.965517e+01	-5.335240e+02
6.200000e-07	-3.940979e-06	-8.001571e-09	-2.960859e+01	-5.330945e+02
6.300000e-07	-3.934742e-06	-7.985348e-09	-2.956173e+01	-5.326650e+02
6.400000e-07	-3.928402e-06	-7.974443e-09	-2.951410e+01	-5.322358e+02
6.500000e-07	-3.921908e-06	-8.022318e-09	-2.946531e+01	-5.318075e+02
6.600000e-07	-3.915379e-06	-7.982366e-09	-2.941626e+01	-5.313805e+02
6.700000e-07	-3.908787e-06	-7.958172e-09	-2.936674e+01	-5.309551e+02
6.800000e-07	-3.902129e-06	-7.925061e-09	-2.931671e+01	-5.305316e+02
6.900000e-07	-3.895429e-06	-7.931372e-09	-2.926638e+01	-5.301101e+02
7.000000e-07	-3.888568e-06	-7.957360e-09	-2.921482e+01	-5.296904e+02
7.100000e-07	-3.881384e-06	-7.917048e-09	-2.916086e+01	-5.292721e+02
7.200000e-07	-3.873973e-06	-7.923111e-09	-2.910518e+01	-5.288548e+02
7.300000e-07	-3.866379e-06	-7.915780e-09	-2.904812e+01	-5.284377e+02
7.400000e-07	-3.858769e-06	-7.939780e-09	-2.899095e+01	-5.280199e+02
7.500000e-07	-3.851268e-06	-7.915447e-09	-2.893460e+01	-5.276003e+02
7.600000e-07	-3.843611e-06	-7.873946e-09	-2.887707e+01	-5.271776e+02
7.700000e-07	-3.835913e-06	-7.867490e-09	-2.881923e+01	-5.267507e+02
7.800000e-07	-3.828083e-06	-7.851596e-09	-2.876040e+01	-5.263180e+02
7.900000e-07	-3.820064e-06	-7.874639e-09	-2.870015e+01	-5.258784e+02
8.000000e-07	-3.812030e-06	-7.846057e-09	-2.863980e+01	-5.254305e+02
8.100000e-07	-3.803947e-06	-7.840978e-09	-2.857907e+01	-5.249732e+02
8.200000e-07	-3.795850e-06	-7.843643e-09	-2.851824e+01	-5.245055e+02
8.300000e-07	-3.787710e-06	-7.847378e-09	-2.845708e+01	-5.240265e+02
8.400000e-07	-3.779489e-06	-7.842071e-09	-2.839532e+01	-5.235355e+02
8.500000e-07	-3.771200e-06	-7.790802e-09	-2.833304e+01	-5.230320e+02
8.600000e-07	-3.762860e-06	-7.789519e-09	-2.827038e+01	-5.225156e+02
8.700000e-07	-3.754487e-06	-7.779011e-09	-2.820747e+01	-5.219863e+02
8.800000e-07	-3.746124e-06	-7.780228e-09	-2.814464e+01	-5.214438e+02
8.900000e-07	-3.737750e-06	-7.763861e-09	-2.808173e+01	-5.208883e+02
9.000000e-07	-3.729203e-06	-7.749864e-09	-2.801752e+01	-5.203199e+02
9.100000e-07	-3.720580e-06	-7.765737e-09	-2.795273e+01	-5.197386e+02
9.200000e-07	-3.711960e-06	-7.750144e-09	-2.788797e+01	-5.191446e+02
9.300000e-07	-3.703172e-06	-7.737189e-09	-2.782195e+01	-5.185379e+02
9.400000e-07	-3.694220e-06	-7.696147e-09	-2.775469e+01	-5.179185e+02
9.500000e-07	-3.685180e-06	-7.684733e-09	-2.768677e+01	-5.172864e+02
9.600000e-07	-3.676020e-06	-7.680644e-09	-2.761796e+01	-5.166412e+02
9.700000e-07	-3.666944e-06	-7.667241e-09	-2.754976e+01	-5.159828e+02
9.800000e-07	-3.657645e-06	-7.665285e-09	-2.747990e+01	-5.153106e+02
9.900000e-07	-3.648061e-06	-7.648385e-09	-2.740790e+01	-5.146243e+02
1.000000e-06	-3.638532e-06	-7.654515e-09	-2.733631e+01	-5.139235e+02
1.010000e-06	-3.628593e-06	-7.635931e-09	-2.726164e+01	-5.132076e+02
1.020000e-06	-3.618584e-06	-7.618368e-09	-2.718644e+01	-5.124765e+02
1.030000e-06	-3.608520e-06	-7.596195e-09	-2.711083e+01	-5.117297e+02
1.040000e-06	-3.598114e-06	-7.572958e-09	-2.703264e+01	-5.109672e+02
1.050000e-06	-3.587821e-06	-7.567268e-09	-2.695532e+01	-5.101892e+02
1.060000e-06	-3.577344e-06	-7.541676e-09	-2.687660e+01	-5.093959e+02
1.070000e-06	-3.566508e-06	-7.532389e-09	-2.679519e+01	-5.085881e+02
1.080000e-06	-3.555472e-06	-7.517965e-09	-2.671228e+01	-5.077666e+02
1.090000e-06	-3.544511e-06	-7.515957e-09	-2.662993e+01	-5.069326e+02
1.100000e-06	-3.533428e-06	-7.506669e-09	-2.654666e+01	-5.060873e+02
1.110000e-06	-3.521970e-06	-7.479561e-09	-2.646057e+01	-5.052325e+02
1.120000e-06	-3.510493e-06	-7.464744e-09	-2.637435e+01	-5.043698e+02
1.130000e-06	-3.498841e-06	-7.441519e-09	-2.628681e+01	-5.035012e+02
1.140000e-06	-3.486968e-06	-7.432096e-09	-2.619761e+01	-5.026286e+02
1.150000e-06	-3.475038e-06	-7.410371e-09	-2.610798e+01	-5.017537e+02
1.160000e-06	-3.463001e-06	-7.390791e-09	-2.601754e+01	-5.008784e+02
1.170000e-06	-3.450890e-06	-7.379505e-09	-2.592655e+01	-5.000043e+02
1.180000e-06	-3.438726e-06	-7.371757e-09	-2.583516e+01	-4.991328e+02
1.190000e-06	-3.426395e-06	-7.371461e-09	-2.574252e+01	-4.982648e+02
1.200000e-06	-3.414008e-06	-7.351907e-09	-2.564946e+01	-4.974012e+02
1.210000e-06	-3.401670e-06	-7.339174e-09	-2.555676e+01	-4.965424e+02
1.220000e-06	-3.389296e-06	-7.321802e-09	-2.546380e+01	-4.956883e+02
1.230000e-06	-3.376955e-06	-7.305342e-09	-2.537108e+01	-4.948385e+02
1.240000e-06	-3.364470e-06	-7.283287e-09	-2.527728e+01	-4.939925e+02
1.250000e-06	-3.351860e-06	-7.258998e-09	-2.518254e+01	-4.931492e+02
1.260000e-06	-3.339293e-06	-7.250204e-09	-2.508812e+01	-4.923073e+02
1.270000e-06	-3.326706e-06	-7.237737e-09	-2.499355e+01	-4.914654e+02
1.280000e-06	-3.313909e-06	-7.236405e-09	-2.489741e+01	-4.906220e+02
1.290000e-06	-3.300877e-06	-7.225333e-09	-2.479950e+01	-4.897754e+02
1.300000e-06	-3.287781e-06	-7.211868e-09	-2.470111e+01	-4.889241e+02
1.310000e-06	-3.274664e-06	-7.199958e-09	-2.460256e+01	-4.880667e+02
1.320000e-06	-3.261602e-06	-7.181980e-09	-2.450443e+01	-4.872019e+02
1.330000e-06	-3.248356e-06	-7.165862e-09	-2.440491e+01	-4.863287e+02
1.340000e-06	-3.234834e-06	-7.138994e-09	-2.430332e+01	-4.854462e+02
1.350000e-06	-3.221204e-06	-7.122866e-09	-2.420092e+01	-4.845540e+02
1.360000e-06	-3.207595e-06	-7.108541e-09	-2.409868e+01	-4.836518e+02
1.370000e-06	-3.193883e-06	-7.096324e-09	-2.399566e+01	-4.827397e+02
1.380000e-06	-3.180018e-06	-7.084450e-09	-2.389149e+01	-4.818182e+02
1.390000e-06	-3.166075e-06	-7.067993e-09	-2.378674e+01	-4.808876e+02
1.400000e-06	-3.151938e-06	-7.061783e-09	-2.368052e+01	-4.799488e+02
1.410000e-06	-3.137816e-06	-7.048526e-09	-2.357443e+01	-4.790025e+02
1.420000e-06	-3.123683e-06	-7.032012e-09	-2.346824e+01	-4.780496e+02
1.430000e-06	-3.109362e-06	-7.007589e-09	-2.336065e+01	-4.770907e+02
1.440000e-06	-3.095011e-06	-6.987718e-09	-2.325283e+01	-4.761267e+02
1.450000e-06	-3.080578e-06	-6.978052e-09	-2.314439e+01	-4.751579e+02
1.460000e-06	-3.066134e-06	-6.963531e-09	-2.303588e+01	-4.741847e+02
1.470000e-06	-3.051645e-06	-6.949854e-09	-2.292702e+01	-4.732070e+02
1.480000e-06	-3.037080e-06	-6.931637e-09	-2.281759e+01	-4.722247e+02
1.490000e-06	-3.022519e-06	-6.922189e-09	-2.270820e+01	-4.712369e+02
1.500000e-06	-3.007689e-06	-6.910737e-09	-2.259678e+01	-4.702430e+02
1.510000e-06	-2.992732e-06	-6.889294e-09	-2.248441e+01	-4.692417e+02
1.520000e-06	-2.977791e-06	-6.864792e-09	-2.237215e+01	-4.682317e+02
1.530000e-06	-2.962863e-06	-6.839498e-09	-2.226000e+01	-4.672114e+02
1.540000e-06	-2.947887e-06	-6.823076e-09	-2.214749e+01	-4.661792e+02
1.550000e-06	-2.932707e-06	-6.800449e-09	-2.203344e+01	-4.651333e+02
1.560000e-06	-2.917424e-06	-6.778324e-09	-2.191862e+01	-4.640721e+02
1.570000e-06	-2.901897e-06	-6.759571e-09	-2.180196e+01	-4.629940e+02
1.580000e-06	-2.886228e-06	-6.745416e-09	-2.168425e+01	-4.618975e+02
1.590000e-06	-2.870655e-06	-6.734293e-09	-2.156725e+01	-4.607815e+02
1.600000e-06	-2.854986e-06	-6.716226e-09	-2.144952e+01	-4.596450e+02
1.610000e-06	-2.839305e-06	-6.700756e-09	-2.133171e+01	-4.584873e+02
1.620000e-06	-2.823490e-06	-6.678842e-09	-2.121289e+01	-4.573082e+02
1.630000e-06	-2.807278e-06	-6.658888e-09	-2.109109e+01	-4.561077e+02
1.640000e-06	-2.790869e-06	-6.637773e-09	-2.096781e+01	-4.548859e+02
1.650000e-06	-2.774632e-06	-6.611630e-09	-2.084582e+01	-4.536437e+02
1.660000e-06	-2.758369e-06	-6.589093e-09	-2.072364e+01	-4.523818e+02
1.670000e-06	-2.741841e-06	-6.567438e-09	-2.059946e+01	-4.511012e+02
1.680000e-06	-2.725179e-06	-6.553495e-09	-2.047428e+01	-4.498032e+02
1.690000e-06	-2.708427e-06	-6.537257e-09	-2.034843e+01	-4.484890e+02
1.700000e-06	-2.691753e-06	-6.520852e-09	-2.022315e+01	-4.471599e+02
1.710000e-06	-2.674994e-06	-6.504226e-09	-2.009724e+01	-4.458173e+02
1.720000e-06	-2.658012e-06	-6.480483e-09	-1.996965e+01	-4.444622e+02
1.730000e-06	-2.640851e-06	-6.456651e-09	-1.984072e+01	-4.430958e+02
1.740000e-06	-2.623645e-06	-6.432092e-09	-1.971146e+01	-4.417189e+02
1.750000e-06	-2.606442e-06	-6.409181e-09	-1.958221e+01	-4.403323e+02
1.760000e-06	-2.589203e-06	-6.385415e-09	-1.945269e+01	-4.389363e+02
1.770000e-06	-2.571920e-06	-6.362059e-09	-1.932284e+01	-4.375314e+02
1.780000e-06	-2.554552e-06	-6.340001e-09	-1.919236e+01	-4.361175e+02
1.790000e-06	-2.537097e-06	-6.319744e-09	-1.906122e+01	-4.346948e+02
1.800000e-06	-2.519422e-06	-6.301390e-09	-1.892843e+01	-4.332630e+02
1.810000e-06	-2.501654e-06	-6.277609e-09	-1.879494e+01	-4.318219e+02
1.820000e-06	-2.484030e-06	-6.255539e-09	-1.866253e+01	-4.303713e+02
1.830000e-06	-2.466461e-06	-6.231610e-09	-1.853054e+01	-4.289108e+02
1.840000e-06	-2.448661e-06	-6.208670e-09	-1.839680e+01	-4.274402e+02
1.850000e-06	-2.430833e-06	-6.184769e-09	-1.826286e+01	-4.259594e+02
1.860000e-06	-2.413058e-06	-6.157766e-09	-1.812932e+01	-4.244685e+02
1.870000e-06	-2.395208e-06	-6.138588e-09	-1.799520e+01	-4.229675e+02
1.880000e-06	-2.377306e-06	-6.118126e-09	-1.786071e+01	-4.214567e+02
1.890000e-06	-2.359348e-06	-6.097262e-09	-1.772579e+01	-4.199367e+02
1.900000e-06	-2.341378e-06	-6.075977e-09	-1.759078e+01	-4.184079e+02
1.910000e-06	-2.323367e-06	-6.053621e-09	-1.745547e+01	-4.168712e+02
1.920000e-06	-2.305349e-06	-6.031106e-09	-1.732010e+01	-4.153273e+02
1.930000e-06	-2.287298e-06	-6.003436e-09	-1.718448e+01	-4.137772e+02
1.940000e-06	-2.269315e-06	-5.975324e-09	-1.704937e+01	-4.122217e+02
1.950000e-06	-2.251273e-06	-5.945835e-09	-1.691382e+01	-4.106617e+02
1.960000e-06	-2.232982e-06	-5.917848e-09	-1.677640e+01	-4.090981e+02
1.970000e-06	-2.214713e-06	-5.892849e-09	-1.663915e+01	-4.075316e+02
1.980000e-06	-2.196583e-06	-5.873634e-09	-1.650294e+01	-4.059628e+02
1.990000e-06	-2.178310e-06	-5.855911e-09	-1.636565e+01	-4.043920e+02
2.000000e-06	-2.159855e-06	-5.834138e-09	-1.622700e+01	-4.028194e+02
2.010000e-06	-2.141409e-06	-5.814248e-09	-1.608842e+01	-4.012450e+02
2.020000e-06	-2.122981e-06	-5.790361e-09	-1.594996e+01	-3.996686e+02
2.030000e-06	-2.104403e-06	-5.764926e-09	-1.581039e+01	-3.980896e+02
2.040000e-06	-2.085727e-06	-5.740123e-09	-1.567008e+01	-3.965074e+02
2.050000e-06	-2.067142e-06	-5.713136e-09	-1.553045e+01	-3.949211e+02
2.060000e-06	-2.048457e-06	-5.686485e-09	-1.539007e+01	-3.933297e+02
2.070000e-06	-2.029739e-06	-5.662712e-09	-1.524944e+01	-3.917321e+02
2.080000e-06	-2.011143e-06	-5.645194e-09	-1.510973e+01	-3.901270e+02
2.090000e-06	-1.992400e-06	-5.627316e-09	-1.496891e+01	-3.885131e+02
2.100000e-06	-1.973532e-06	-5.606864e-09	-1.482716e+01	-3.868892e+02
2.110000e-06	-1.954669e-06	-5.584888e-09	-1.468543e+01	-3.852540e+02
2.120000e-06	-1.935638e-06	-5.562806e-09	-1.454246e+01	-3.836063e+02
2.130000e-06	-1.916418e-06	-5.539328e-09	-1.439806e+01	-3.819449e+02
2.140000e-06	-1.897132e-06	-5.509029e-09	-1.425316e+01	-3.802687e+02
2.150000e-06	-1.877978e-06	-5.478414e-09	-1.410926e+01	-3.785769e+02
2.160000e-06	-1.858910e-06	-5.452166e-09	-1.396600e+01	-3.768685e+02
2.170000e-06	-1.839584e-06	-5.429771e-09	-1.382080e+01	-3.751428e+02
2.180000e-06	-1.820127e-06	-5.410007e-09	-1.367462e+01	-3.733992e+02
2.190000e-06	-1.800705e-06	-5.391475e-09	-1.352870e+01	-3.716370e+02
2.200000e-06	-1.781266e-06	-5.373270e-09	-1.338266e+01	-3.698557e+02
2.210000e-06	-1.761757e-06	-5.351718e-09	-1.323609e+01	-3.680549e+02
2.220000e-06	-1.742161e-06	-5.323684e-09	-1.308887e+01	-3.662341e+02
2.230000e-06	-1.722523e-06	-5.288670e-09	-1.294132e+01	-3.643929e+02
2.240000e-06	-1.702761e-06	-5.254074e-09	-1.279285e+01	-3.625307e+02
2.250000e-06	-1.682909e-06	-5.224231e-09	-1.264370e+01	-3.606472e+02
2.260000e-06	-1.663027e-06	-5.195169e-09	-1.249433e+01	-3.587419e+02
2.270000e-06	-1.643124e-06	-5.164979e-09	-1.234479e+01	-3.568144e+02
2.280000e-06	-1.623195e-06	-5.133560e-09	-1.219507e+01	-3.548640e+02
2.290000e-06	-1.603233e-06	-5.105811e-09	-1.204510e+01	-3.528904e+02
2.300000e-06	-1.583269e-06	-5.080098e-09	-1.189511e+01	-3.508932e+02
2.310000e-06	-1.563320e-06	-5.050984e-09	-1.174523e+01	-3.488720e+02
2.320000e-06	-1.543320e-06	-5.018662e-09	-1.159497e+01	-3.468264e+02
2.330000e-06	-1.523283e-06	-4.987375e-09	-1.144443e+01	-3.447564e+02
2.340000e-06	-1.503194e-06	-4.957889e-09	-1.129350e+01	-3.426617e+02
2.350000e-06	-1.483052e-06	-4.927940e-09	-1.114217e+01	-3.405425e+02
2.360000e-06	-1.462886e-06	-4.897568e-09	-1.099067e+01	-3.383990e+02
2.370000e-06	-1.442689e-06	-4.865053e-09	-1.083893e+01	-3.362317e+02
2.380000e-06	-1.422501e-06	-4.834758e-09	-1.068726e+01	-3.340410e+02
2.390000e-06	-1.402279e-06	-4.806900e-09	-1.053533e+01	-3.318277e+02
2.400000e-06	-1.382069e-06	-4.776579e-09	-1.038349e+01	-3.295929e+02
2.410000e-06	-1.361861e-06	-4.741972e-09	-1.023166e+01	-3.273374e+02
2.420000e-06	-1.341564e-06	-4.705926e-09	-1.007917e+01	-3.250627e+02
2.430000e-06	-1.321253e-06	-4.673928e-09	-9.926578e+00	-3.227699e+02
2.440000e-06	-1.300966e-06	-4.642781e-09	-9.774163e+00	-3.204606e+02
2.450000e-06	-1.280679e-06	-4.608005e-09	-9.621748e+00	-3.181361e+02
2.460000e-06	-1.260379e-06	-4.569861e-09	-9.469232e+00	-3.157979e+02
2.470000e-06	-1.240054e-06	-4.536166e-09	-9.316535e+00	-3.134475e+02
2.480000e-06	-1.219742e-06	-4.506360e-09	-9.163930e+00	-3.110862e+02
2.490000e-06	-1.199440e-06	-4.474165e-09	-9.011401e+00	-3.087154e+02
2.500000e-06	-1.179101e-06	-4.440057e-09	-8.858594e+00	-3.063364e+02
2.510000e-06	-1.158759e-06	-4.405081e-09	-8.705764e+00	-3.039500e+02
2.520000e-06	-1.138443e-06	-4.371405e-09	-8.553124e+00	-3.015574e+02
2.530000e-06	-1.118144e-06	-4.335579e-09	-8.400617e+00	-2.991593e+02
2.540000e-06	-1.097829e-06	-4.297636e-09	-8.247996e+00	-2.967563e+02
2.550000e-06	-1.077499e-06	-4.259642e-09	-8.095257e+00	-2.943489e+02
2.560000e-06	-1.057181e-06	-4.224412e-09	-7.942605e+00	-2.919375e+02
2.570000e-06	-1.036850e-06	-4.193335e-09	-7.789856e+00	-2.895222e+02
2.580000e-06	-1.016508e-06	-4.162132e-09	-7.637026e+00	-2.871032e+02
2.590000e-06	-9.961671e-07	-4.130451e-09	-7.484207e+00	-2.846803e+02
2.600000e-06	-9.757744e-07	-4.098714e-09	-7.330997e+00	-2.822534e+02
2.610000e-06	-9.553548e-07	-4.067736e-09	-7.177585e+00	-2.798224e+02
2.620000e-06	-9.349805e-07	-4.034893e-09	-7.024513e+00	-2.773869e+02
2.630000e-06	-9.145570e-07	-3.995457e-09	-6.871070e+00	-2.749465e+02
2.640000e-06	-8.940890e-07	-3.955366e-09	-6.717294e+00	-2.725009e+02
2.650000e-06	-8.736328e-07	-3.919985e-09	-6.563607e+00	-2.700497e+02
2.660000e-06	-8.532024e-07	-3.885749e-09	-6.410113e+00	-2.675922e+02
2.670000e-06	-8.327806e-07	-3.854202e-09	-6.256684e+00	-2.651279e+02
2.680000e-06	-8.122744e-07	-3.826689e-09	-6.102621e+00	-2.626563e+02
2.690000e-06	-7.916969e-07	-3.801709e-09	-5.948022e+00	-2.601765e+02
2.700000e-06	-7.711855e-07	-3.773533e-09	-5.793920e+00	-2.576878e+02
2.710000e-06	-7.506777e-07	-3.736118e-09	-5.639845e+00	-2.551895e+02
2.720000e-06	-7.300608e-07	-3.691695e-09	-5.484950e+00	-2.526804e+02
2.730000e-06	-7.094427e-07	-3.646269e-09	-5.330046e+00	-2.501597e+02
2.740000e-06	-6.887843e-07	-3.604407e-09	-5.174840e+00	-2.476263e+02
2.750000e-06	-6.680820e-07	-3.568701e-09	-5.019303e+00	-2.450789e+02
2.760000e-06	-6.474813e-07	-3.536771e-09	-4.864530e+00	-2.425162e+02
2.770000e-06	-6.270146e-07	-3.504871e-09	-4.710764e+00	-2.399371e+02
2.780000e-06	-6.065306e-07	-3.475188e-09	-4.556867e+00	-2.373401e+02
2.790000e-06	-5.859346e-07	-3.444508e-09	-4.402129e+00	-2.347238e+02
2.800000e-06	-5.652788e-07	-3.409609e-09	-4.246942e+00	-2.320869e+02
2.810000e-06	-5.446565e-07	-3.369435e-09	-4.092007e+00	-2.294281e+02
2.820000e-06	-5.240625e-07	-3.324508e-09	-3.937284e+00	-2.267460e+02
2.830000e-06	-5.034222e-07	-3.281708e-09	-3.782213e+00	-2.240394e+02
2.840000e-06	-4.827628e-07	-3.243681e-09	-3.626999e+00	-2.213073e+02
