# Temperatura_=_20.0
# Concentracion g/m^3_=_10000.0
# C_Vs_to_Am_M_A/Vsm_=_65563218390.804596
# pendiente_HvsI_1/m_=_3716.3
# ordenada_HvsI_A/m_=_1297.0
# frecuencia_Hz_=_81169.03369208229

Tiempo_(s)	Campo_(V.s)	Magnetizacion_(V.s)	Campo_(kA/m)	Magnetizacion_(A/m)
0.000000e+00	-4.134217e-06	-8.357419e-09	-3.103281e+01	-5.479183e+02
1.000000e-08	-4.134466e-06	-8.431184e-09	-3.103468e+01	-5.481117e+02
2.000000e-08	-4.134612e-06	-8.484041e-09	-3.103577e+01	-5.482945e+02
3.000000e-08	-4.134640e-06	-8.547105e-09	-3.103598e+01	-5.484633e+02
4.000000e-08	-4.134726e-06	-8.477876e-09	-3.103663e+01	-5.486148e+02
5.000000e-08	-4.134762e-06	-8.396656e-09	-3.103690e+01	-5.487467e+02
6.000000e-08	-4.134634e-06	-8.417395e-09	-3.103593e+01	-5.488570e+02
7.000000e-08	-4.134347e-06	-8.292439e-09	-3.103378e+01	-5.489448e+02
8.000000e-08	-4.133982e-06	-8.267873e-09	-3.103104e+01	-5.490094e+02
9.000000e-08	-4.133566e-06	-8.162020e-09	-3.102792e+01	-5.490510e+02
1.000000e-07	-4.133035e-06	-8.286792e-09	-3.102393e+01	-5.490705e+02
1.100000e-07	-4.132492e-06	-8.536734e-09	-3.101986e+01	-5.490691e+02
1.200000e-07	-4.131931e-06	-8.453537e-09	-3.101565e+01	-5.490485e+02
1.300000e-07	-4.131266e-06	-8.521686e-09	-3.101066e+01	-5.490106e+02
1.400000e-07	-4.130570e-06	-8.394023e-09	-3.100543e+01	-5.489576e+02
1.500000e-07	-4.129820e-06	-8.313483e-09	-3.099980e+01	-5.488917e+02
1.600000e-07	-4.128944e-06	-8.415879e-09	-3.099323e+01	-5.488150e+02
1.700000e-07	-4.127872e-06	-8.374872e-09	-3.098518e+01	-5.487294e+02
1.800000e-07	-4.126620e-06	-8.293477e-09	-3.097578e+01	-5.486366e+02
1.900000e-07	-4.125221e-06	-8.214598e-09	-3.096528e+01	-5.485378e+02
2.000000e-07	-4.123751e-06	-8.446155e-09	-3.095424e+01	-5.484339e+02
2.100000e-07	-4.122152e-06	-8.520575e-09	-3.094224e+01	-5.483255e+02
2.200000e-07	-4.120394e-06	-8.340196e-09	-3.092905e+01	-5.482124e+02
2.300000e-07	-4.118489e-06	-8.239220e-09	-3.091474e+01	-5.480944e+02
2.400000e-07	-4.116399e-06	-8.300437e-09	-3.089906e+01	-5.479705e+02
2.500000e-07	-4.114288e-06	-8.479439e-09	-3.088321e+01	-5.478397e+02
2.600000e-07	-4.111883e-06	-8.379828e-09	-3.086516e+01	-5.477006e+02
2.700000e-07	-4.109246e-06	-8.264976e-09	-3.084536e+01	-5.475516e+02
2.800000e-07	-4.106353e-06	-8.287936e-09	-3.082365e+01	-5.473910e+02
2.900000e-07	-4.103299e-06	-8.363819e-09	-3.080072e+01	-5.472174e+02
3.000000e-07	-4.100178e-06	-8.392283e-09	-3.077730e+01	-5.470290e+02
3.100000e-07	-4.096754e-06	-8.271010e-09	-3.075159e+01	-5.468245e+02
3.200000e-07	-4.093210e-06	-8.250263e-09	-3.072499e+01	-5.466028e+02
3.300000e-07	-4.089585e-06	-8.271963e-09	-3.069778e+01	-5.463629e+02
3.400000e-07	-4.085725e-06	-8.375115e-09	-3.066881e+01	-5.461043e+02
3.500000e-07	-4.081727e-06	-8.389427e-09	-3.063880e+01	-5.458269e+02
3.600000e-07	-4.077792e-06	-8.267216e-09	-3.060926e+01	-5.455307e+02
3.700000e-07	-4.073771e-06	-8.207841e-09	-3.057908e+01	-5.452162e+02
3.800000e-07	-4.069581e-06	-8.223947e-09	-3.054763e+01	-5.448842e+02
3.900000e-07	-4.065431e-06	-8.331791e-09	-3.051648e+01	-5.445359e+02
4.000000e-07	-4.061278e-06	-8.264910e-09	-3.048530e+01	-5.441724e+02
4.100000e-07	-4.056932e-06	-8.165849e-09	-3.045268e+01	-5.437954e+02
4.200000e-07	-4.052511e-06	-8.208212e-09	-3.041949e+01	-5.434065e+02
4.300000e-07	-4.048109e-06	-8.318587e-09	-3.038645e+01	-5.430073e+02
4.400000e-07	-4.043679e-06	-8.332389e-09	-3.035320e+01	-5.425997e+02
4.500000e-07	-4.039162e-06	-8.166817e-09	-3.031929e+01	-5.421854e+02
4.600000e-07	-4.034580e-06	-8.138535e-09	-3.028490e+01	-5.417660e+02
4.700000e-07	-4.029945e-06	-8.212854e-09	-3.025011e+01	-5.413432e+02
4.800000e-07	-4.025310e-06	-8.254777e-09	-3.021531e+01	-5.409185e+02
4.900000e-07	-4.020619e-06	-8.185234e-09	-3.018010e+01	-5.404931e+02
5.000000e-07	-4.015729e-06	-8.115261e-09	-3.014340e+01	-5.400683e+02
5.100000e-07	-4.010658e-06	-8.178665e-09	-3.010533e+01	-5.396452e+02
5.200000e-07	-4.005558e-06	-8.212893e-09	-3.006705e+01	-5.392247e+02
5.300000e-07	-4.000389e-06	-8.206098e-09	-3.002825e+01	-5.388075e+02
5.400000e-07	-3.995054e-06	-8.129601e-09	-2.998820e+01	-5.383944e+02
5.500000e-07	-3.989537e-06	-8.098559e-09	-2.994679e+01	-5.379858e+02
5.600000e-07	-3.983930e-06	-8.138208e-09	-2.990471e+01	-5.375823e+02
5.700000e-07	-3.978308e-06	-8.158884e-09	-2.986250e+01	-5.371841e+02
5.800000e-07	-3.972538e-06	-8.137897e-09	-2.981919e+01	-5.367916e+02
5.900000e-07	-3.966571e-06	-8.057996e-09	-2.977440e+01	-5.364048e+02
6.000000e-07	-3.960564e-06	-8.080630e-09	-2.972931e+01	-5.360238e+02
6.100000e-07	-3.954479e-06	-8.134867e-09	-2.968363e+01	-5.356487e+02
6.200000e-07	-3.948278e-06	-8.128028e-09	-2.963709e+01	-5.352792e+02
6.300000e-07	-3.941998e-06	-8.069582e-09	-2.958995e+01	-5.349151e+02
6.400000e-07	-3.935641e-06	-8.040989e-09	-2.954223e+01	-5.345561e+02
6.500000e-07	-3.929191e-06	-8.098315e-09	-2.949381e+01	-5.342016e+02
6.600000e-07	-3.922607e-06	-8.097015e-09	-2.944439e+01	-5.338509e+02
6.700000e-07	-3.915947e-06	-8.054601e-09	-2.939440e+01	-5.335034e+02
6.800000e-07	-3.909149e-06	-8.006769e-09	-2.934337e+01	-5.331581e+02
6.900000e-07	-3.902257e-06	-8.017540e-09	-2.929164e+01	-5.328139e+02
7.000000e-07	-3.895320e-06	-8.055729e-09	-2.923956e+01	-5.324697e+02
7.100000e-07	-3.888364e-06	-8.039255e-09	-2.918735e+01	-5.321242e+02
7.200000e-07	-3.881277e-06	-8.015891e-09	-2.913415e+01	-5.317761e+02
7.300000e-07	-3.873955e-06	-7.996928e-09	-2.907919e+01	-5.314239e+02
7.400000e-07	-3.866517e-06	-8.030911e-09	-2.902336e+01	-5.310662e+02
7.500000e-07	-3.859030e-06	-8.031392e-09	-2.896716e+01	-5.307015e+02
7.600000e-07	-3.851471e-06	-7.982934e-09	-2.891042e+01	-5.303284e+02
7.700000e-07	-3.843815e-06	-7.954170e-09	-2.885295e+01	-5.299454e+02
7.800000e-07	-3.836071e-06	-7.956696e-09	-2.879482e+01	-5.295514e+02
7.900000e-07	-3.828212e-06	-7.985243e-09	-2.873583e+01	-5.291450e+02
8.000000e-07	-3.820271e-06	-7.965632e-09	-2.867623e+01	-5.287252e+02
8.100000e-07	-3.812246e-06	-7.944453e-09	-2.861599e+01	-5.282910e+02
8.200000e-07	-3.804109e-06	-7.936700e-09	-2.855491e+01	-5.278415e+02
8.300000e-07	-3.795910e-06	-7.945329e-09	-2.849336e+01	-5.273761e+02
8.400000e-07	-3.787632e-06	-7.946628e-09	-2.843122e+01	-5.268942e+02
8.500000e-07	-3.779255e-06	-7.904893e-09	-2.836834e+01	-5.263953e+02
8.600000e-07	-3.770874e-06	-7.882865e-09	-2.830544e+01	-5.258792e+02
8.700000e-07	-3.762527e-06	-7.876967e-09	-2.824278e+01	-5.253457e+02
8.800000e-07	-3.754128e-06	-7.889487e-09	-2.817974e+01	-5.247946e+02
8.900000e-07	-3.745604e-06	-7.877762e-09	-2.811575e+01	-5.242259e+02
9.000000e-07	-3.737051e-06	-7.851064e-09	-2.805155e+01	-5.236396e+02
9.100000e-07	-3.728449e-06	-7.849518e-09	-2.798698e+01	-5.230360e+02
9.200000e-07	-3.719784e-06	-7.848545e-09	-2.792193e+01	-5.224150e+02
9.300000e-07	-3.711105e-06	-7.844978e-09	-2.785679e+01	-5.217769e+02
9.400000e-07	-3.702273e-06	-7.811124e-09	-2.779049e+01	-5.211220e+02
9.500000e-07	-3.693265e-06	-7.787447e-09	-2.772287e+01	-5.204506e+02
9.600000e-07	-3.684099e-06	-7.780827e-09	-2.765407e+01	-5.197631e+02
9.700000e-07	-3.674900e-06	-7.775121e-09	-2.758502e+01	-5.190599e+02
9.800000e-07	-3.665704e-06	-7.762878e-09	-2.751600e+01	-5.183416e+02
9.900000e-07	-3.656364e-06	-7.735547e-09	-2.744589e+01	-5.176088e+02
1.000000e-06	-3.646698e-06	-7.732554e-09	-2.737333e+01	-5.168622e+02
1.010000e-06	-3.636785e-06	-7.729280e-09	-2.729892e+01	-5.161028e+02
1.020000e-06	-3.626762e-06	-7.719929e-09	-2.722368e+01	-5.153315e+02
1.030000e-06	-3.616611e-06	-7.696310e-09	-2.714748e+01	-5.145494e+02
1.040000e-06	-3.606449e-06	-7.670061e-09	-2.707121e+01	-5.137577e+02
1.050000e-06	-3.596143e-06	-7.661845e-09	-2.699384e+01	-5.129576e+02
1.060000e-06	-3.585589e-06	-7.647941e-09	-2.691463e+01	-5.121505e+02
1.070000e-06	-3.574909e-06	-7.633343e-09	-2.683445e+01	-5.113378e+02
1.080000e-06	-3.563885e-06	-7.611151e-09	-2.675171e+01	-5.105208e+02
1.090000e-06	-3.552678e-06	-7.603735e-09	-2.666758e+01	-5.097008e+02
1.100000e-06	-3.541496e-06	-7.600699e-09	-2.658364e+01	-5.088792e+02
1.110000e-06	-3.530095e-06	-7.585368e-09	-2.649807e+01	-5.080570e+02
1.120000e-06	-3.518491e-06	-7.565707e-09	-2.641096e+01	-5.072352e+02
1.130000e-06	-3.506775e-06	-7.540670e-09	-2.632302e+01	-5.064146e+02
1.140000e-06	-3.494965e-06	-7.530718e-09	-2.623437e+01	-5.055959e+02
1.150000e-06	-3.483046e-06	-7.517635e-09	-2.614490e+01	-5.047793e+02
1.160000e-06	-3.471025e-06	-7.501162e-09	-2.605467e+01	-5.039650e+02
1.170000e-06	-3.458900e-06	-7.483880e-09	-2.596365e+01	-5.031530e+02
1.180000e-06	-3.446632e-06	-7.471995e-09	-2.587157e+01	-5.023429e+02
1.190000e-06	-3.434223e-06	-7.469471e-09	-2.577842e+01	-5.015342e+02
1.200000e-06	-3.421826e-06	-7.454887e-09	-2.568536e+01	-5.007262e+02
1.210000e-06	-3.409423e-06	-7.439912e-09	-2.559226e+01	-4.999181e+02
1.220000e-06	-3.396962e-06	-7.421883e-09	-2.549873e+01	-4.991089e+02
1.230000e-06	-3.384490e-06	-7.407704e-09	-2.540511e+01	-4.982978e+02
1.240000e-06	-3.371915e-06	-7.392650e-09	-2.531071e+01	-4.974837e+02
1.250000e-06	-3.359324e-06	-7.371875e-09	-2.521620e+01	-4.966659e+02
1.260000e-06	-3.346652e-06	-7.357737e-09	-2.512108e+01	-4.958435e+02
1.270000e-06	-3.333851e-06	-7.344616e-09	-2.502499e+01	-4.950159e+02
1.280000e-06	-3.321025e-06	-7.340323e-09	-2.492872e+01	-4.941826e+02
1.290000e-06	-3.308114e-06	-7.331534e-09	-2.483181e+01	-4.933432e+02
1.300000e-06	-3.295113e-06	-7.315711e-09	-2.473421e+01	-4.924977e+02
1.310000e-06	-3.282086e-06	-7.297575e-09	-2.463643e+01	-4.916461e+02
1.320000e-06	-3.268941e-06	-7.280149e-09	-2.453776e+01	-4.907885e+02
1.330000e-06	-3.255674e-06	-7.265598e-09	-2.443817e+01	-4.899253e+02
1.340000e-06	-3.242351e-06	-7.244031e-09	-2.433817e+01	-4.890569e+02
1.350000e-06	-3.228889e-06	-7.227874e-09	-2.423711e+01	-4.881838e+02
1.360000e-06	-3.215305e-06	-7.215904e-09	-2.413514e+01	-4.873062e+02
1.370000e-06	-3.201638e-06	-7.205812e-09	-2.403256e+01	-4.864247e+02
1.380000e-06	-3.187870e-06	-7.190386e-09	-2.392921e+01	-4.855393e+02
1.390000e-06	-3.173975e-06	-7.168613e-09	-2.382491e+01	-4.846503e+02
1.400000e-06	-3.159985e-06	-7.153796e-09	-2.371990e+01	-4.837574e+02
1.410000e-06	-3.145905e-06	-7.140076e-09	-2.361421e+01	-4.828602e+02
1.420000e-06	-3.131689e-06	-7.129066e-09	-2.350750e+01	-4.819582e+02
1.430000e-06	-3.117416e-06	-7.113089e-09	-2.340036e+01	-4.810505e+02
1.440000e-06	-3.103087e-06	-7.097322e-09	-2.329280e+01	-4.801359e+02
1.450000e-06	-3.088631e-06	-7.085998e-09	-2.318429e+01	-4.792130e+02
1.460000e-06	-3.074188e-06	-7.068610e-09	-2.307588e+01	-4.782802e+02
1.470000e-06	-3.059717e-06	-7.050242e-09	-2.296725e+01	-4.773360e+02
1.480000e-06	-3.045137e-06	-7.029044e-09	-2.285781e+01	-4.763784e+02
1.490000e-06	-3.030452e-06	-7.011324e-09	-2.274758e+01	-4.754057e+02
1.500000e-06	-3.015679e-06	-6.995799e-09	-2.263669e+01	-4.744160e+02
1.510000e-06	-3.000854e-06	-6.980701e-09	-2.252541e+01	-4.734077e+02
1.520000e-06	-2.986027e-06	-6.963941e-09	-2.241411e+01	-4.723792e+02
1.530000e-06	-2.970946e-06	-6.944150e-09	-2.230091e+01	-4.713292e+02
1.540000e-06	-2.955770e-06	-6.926982e-09	-2.218699e+01	-4.702567e+02
1.550000e-06	-2.940836e-06	-6.905119e-09	-2.207489e+01	-4.691609e+02
1.560000e-06	-2.925607e-06	-6.883458e-09	-2.196058e+01	-4.680412e+02
1.570000e-06	-2.909974e-06	-6.861616e-09	-2.184323e+01	-4.668977e+02
1.580000e-06	-2.894180e-06	-6.840799e-09	-2.172468e+01	-4.657303e+02
1.590000e-06	-2.878397e-06	-6.824115e-09	-2.160620e+01	-4.645397e+02
1.600000e-06	-2.862673e-06	-6.805996e-09	-2.148818e+01	-4.633264e+02
1.610000e-06	-2.846660e-06	-6.790230e-09	-2.136797e+01	-4.620914e+02
1.620000e-06	-2.830543e-06	-6.770094e-09	-2.124700e+01	-4.608357e+02
1.630000e-06	-2.814360e-06	-6.750556e-09	-2.112552e+01	-4.595604e+02
1.640000e-06	-2.797976e-06	-6.731773e-09	-2.100254e+01	-4.582668e+02
1.650000e-06	-2.781653e-06	-6.707394e-09	-2.088001e+01	-4.569560e+02
1.660000e-06	-2.765227e-06	-6.680843e-09	-2.075672e+01	-4.556290e+02
1.670000e-06	-2.748540e-06	-6.656963e-09	-2.063146e+01	-4.542870e+02
1.680000e-06	-2.731773e-06	-6.638202e-09	-2.050560e+01	-4.529306e+02
1.690000e-06	-2.714937e-06	-6.617703e-09	-2.037922e+01	-4.515607e+02
1.700000e-06	-2.697934e-06	-6.597415e-09	-2.025159e+01	-4.501776e+02
1.710000e-06	-2.680950e-06	-6.575747e-09	-2.012410e+01	-4.487817e+02
1.720000e-06	-2.663961e-06	-6.553436e-09	-1.999658e+01	-4.473733e+02
1.730000e-06	-2.646850e-06	-6.531117e-09	-1.986814e+01	-4.459523e+02
1.740000e-06	-2.629684e-06	-6.505870e-09	-1.973928e+01	-4.445189e+02
1.750000e-06	-2.612503e-06	-6.483432e-09	-1.961031e+01	-4.430728e+02
1.760000e-06	-2.595330e-06	-6.461990e-09	-1.948141e+01	-4.416143e+02
1.770000e-06	-2.578028e-06	-6.440847e-09	-1.935154e+01	-4.401431e+02
1.780000e-06	-2.560622e-06	-6.418907e-09	-1.922088e+01	-4.386596e+02
1.790000e-06	-2.543252e-06	-6.394085e-09	-1.909050e+01	-4.371639e+02
1.800000e-06	-2.525734e-06	-6.371951e-09	-1.895900e+01	-4.356565e+02
1.810000e-06	-2.508088e-06	-6.350748e-09	-1.882654e+01	-4.341381e+02
1.820000e-06	-2.490474e-06	-6.331802e-09	-1.869433e+01	-4.326095e+02
1.830000e-06	-2.472857e-06	-6.312262e-09	-1.856209e+01	-4.310718e+02
1.840000e-06	-2.455088e-06	-6.288661e-09	-1.842870e+01	-4.295261e+02
1.850000e-06	-2.437242e-06	-6.264439e-09	-1.829475e+01	-4.279738e+02
1.860000e-06	-2.419382e-06	-6.240925e-09	-1.816068e+01	-4.264164e+02
1.870000e-06	-2.401480e-06	-6.219794e-09	-1.802631e+01	-4.248553e+02
1.880000e-06	-2.383538e-06	-6.195148e-09	-1.789163e+01	-4.232920e+02
1.890000e-06	-2.365543e-06	-6.172181e-09	-1.775655e+01	-4.217280e+02
1.900000e-06	-2.347552e-06	-6.151231e-09	-1.762150e+01	-4.201644e+02
1.910000e-06	-2.329510e-06	-6.129286e-09	-1.748608e+01	-4.186024e+02
1.920000e-06	-2.311528e-06	-6.107625e-09	-1.735110e+01	-4.170428e+02
1.930000e-06	-2.293507e-06	-6.080295e-09	-1.721582e+01	-4.154862e+02
1.940000e-06	-2.275403e-06	-6.053416e-09	-1.707993e+01	-4.139327e+02
1.950000e-06	-2.257236e-06	-6.028890e-09	-1.694356e+01	-4.123824e+02
1.960000e-06	-2.238971e-06	-6.007258e-09	-1.680646e+01	-4.108347e+02
1.970000e-06	-2.220816e-06	-5.981783e-09	-1.667018e+01	-4.092889e+02
1.980000e-06	-2.202694e-06	-5.954014e-09	-1.653415e+01	-4.077440e+02
1.990000e-06	-2.184380e-06	-5.932992e-09	-1.639668e+01	-4.061987e+02
2.000000e-06	-2.165956e-06	-5.914292e-09	-1.625838e+01	-4.046515e+02
2.010000e-06	-2.147542e-06	-5.896128e-09	-1.612016e+01	-4.031007e+02
2.020000e-06	-2.129075e-06	-5.874763e-09	-1.598155e+01	-4.015445e+02
2.030000e-06	-2.110441e-06	-5.850097e-09	-1.584167e+01	-3.999813e+02
2.040000e-06	-2.091876e-06	-5.826108e-09	-1.570231e+01	-3.984092e+02
2.050000e-06	-2.073361e-06	-5.803191e-09	-1.556334e+01	-3.968265e+02
2.060000e-06	-2.054768e-06	-5.779289e-09	-1.542377e+01	-3.952318e+02
2.070000e-06	-2.036095e-06	-5.753391e-09	-1.528361e+01	-3.936237e+02
2.080000e-06	-2.017333e-06	-5.727577e-09	-1.514277e+01	-3.920010e+02
2.090000e-06	-1.998630e-06	-5.704114e-09	-1.500238e+01	-3.903628e+02
2.100000e-06	-1.979777e-06	-5.684494e-09	-1.486086e+01	-3.887083e+02
2.110000e-06	-1.960771e-06	-5.663445e-09	-1.471820e+01	-3.870370e+02
2.120000e-06	-1.941751e-06	-5.638084e-09	-1.457543e+01	-3.853486e+02
2.130000e-06	-1.922631e-06	-5.612473e-09	-1.443190e+01	-3.836429e+02
2.140000e-06	-1.903394e-06	-5.587205e-09	-1.428751e+01	-3.819198e+02
2.150000e-06	-1.884244e-06	-5.560979e-09	-1.414376e+01	-3.801792e+02
2.160000e-06	-1.865053e-06	-5.531823e-09	-1.399971e+01	-3.784213e+02
2.170000e-06	-1.845626e-06	-5.503147e-09	-1.385388e+01	-3.766459e+02
2.180000e-06	-1.826206e-06	-5.478869e-09	-1.370811e+01	-3.748531e+02
2.190000e-06	-1.806825e-06	-5.459314e-09	-1.356263e+01	-3.730426e+02
2.200000e-06	-1.787318e-06	-5.438130e-09	-1.341621e+01	-3.712143e+02
2.210000e-06	-1.767623e-06	-5.411136e-09	-1.326836e+01	-3.693677e+02
2.220000e-06	-1.747956e-06	-5.381403e-09	-1.312074e+01	-3.675024e+02
2.230000e-06	-1.728375e-06	-5.350981e-09	-1.297376e+01	-3.656176e+02
2.240000e-06	-1.708746e-06	-5.321483e-09	-1.282642e+01	-3.637128e+02
2.250000e-06	-1.688885e-06	-5.291583e-09	-1.267733e+01	-3.617870e+02
2.260000e-06	-1.668895e-06	-5.261052e-09	-1.252728e+01	-3.598395e+02
2.270000e-06	-1.649006e-06	-5.231602e-09	-1.237799e+01	-3.578693e+02
2.280000e-06	-1.629215e-06	-5.203754e-09	-1.222943e+01	-3.558759e+02
2.290000e-06	-1.609322e-06	-5.175082e-09	-1.208010e+01	-3.538585e+02
2.300000e-06	-1.589289e-06	-5.142036e-09	-1.192973e+01	-3.518166e+02
2.310000e-06	-1.569214e-06	-5.109053e-09	-1.177904e+01	-3.497498e+02
2.320000e-06	-1.549073e-06	-5.081256e-09	-1.162785e+01	-3.476582e+02
2.330000e-06	-1.529019e-06	-5.054194e-09	-1.147733e+01	-3.455419e+02
2.340000e-06	-1.508933e-06	-5.024779e-09	-1.132655e+01	-3.434013e+02
2.350000e-06	-1.488685e-06	-4.993861e-09	-1.117457e+01	-3.412370e+02
2.360000e-06	-1.468437e-06	-4.963198e-09	-1.102257e+01	-3.390501e+02
2.370000e-06	-1.448198e-06	-4.929510e-09	-1.087065e+01	-3.368418e+02
2.380000e-06	-1.427920e-06	-4.894501e-09	-1.071844e+01	-3.346134e+02
2.390000e-06	-1.407691e-06	-4.858979e-09	-1.056659e+01	-3.323666e+02
2.400000e-06	-1.387535e-06	-4.822599e-09	-1.041530e+01	-3.301030e+02
2.410000e-06	-1.367354e-06	-4.789843e-09	-1.026381e+01	-3.278244e+02
2.420000e-06	-1.347122e-06	-4.761296e-09	-1.011195e+01	-3.255327e+02
2.430000e-06	-1.326851e-06	-4.734520e-09	-9.959788e+00	-3.232298e+02
2.440000e-06	-1.306541e-06	-4.706313e-09	-9.807330e+00	-3.209172e+02
2.450000e-06	-1.286204e-06	-4.673247e-09	-9.654673e+00	-3.185967e+02
2.460000e-06	-1.265866e-06	-4.635822e-09	-9.502014e+00	-3.162698e+02
2.470000e-06	-1.245544e-06	-4.597324e-09	-9.349467e+00	-3.139378e+02
2.480000e-06	-1.225173e-06	-4.557763e-09	-9.196556e+00	-3.116017e+02
2.490000e-06	-1.204749e-06	-4.521319e-09	-9.043243e+00	-3.092625e+02
2.500000e-06	-1.184336e-06	-4.490482e-09	-8.890017e+00	-3.069209e+02
2.510000e-06	-1.163961e-06	-4.463612e-09	-8.737079e+00	-3.045774e+02
2.520000e-06	-1.143586e-06	-4.435735e-09	-8.584135e+00	-3.022322e+02
2.530000e-06	-1.123198e-06	-4.403643e-09	-8.431097e+00	-2.998855e+02
2.540000e-06	-1.102795e-06	-4.369707e-09	-8.277948e+00	-2.975373e+02
2.550000e-06	-1.082392e-06	-4.334272e-09	-8.124795e+00	-2.951873e+02
2.560000e-06	-1.061990e-06	-4.296694e-09	-7.971652e+00	-2.928354e+02
2.570000e-06	-1.041575e-06	-4.258569e-09	-7.818406e+00	-2.904810e+02
2.580000e-06	-1.021148e-06	-4.224014e-09	-7.665075e+00	-2.881239e+02
2.590000e-06	-1.000735e-06	-4.192617e-09	-7.511853e+00	-2.857634e+02
2.600000e-06	-9.803199e-07	-4.162763e-09	-7.358607e+00	-2.833991e+02
2.610000e-06	-9.598270e-07	-4.132881e-09	-7.204780e+00	-2.810304e+02
2.620000e-06	-9.393089e-07	-4.100640e-09	-7.050765e+00	-2.786566e+02
2.630000e-06	-9.188038e-07	-4.068078e-09	-6.896847e+00	-2.762772e+02
2.640000e-06	-8.982622e-07	-4.033373e-09	-6.742654e+00	-2.738914e+02
2.650000e-06	-8.777178e-07	-3.996595e-09	-6.588442e+00	-2.714984e+02
2.660000e-06	-8.572199e-07	-3.957783e-09	-6.434578e+00	-2.690975e+02
2.670000e-06	-8.367490e-07	-3.918408e-09	-6.280916e+00	-2.666876e+02
2.680000e-06	-8.162421e-07	-3.884105e-09	-6.126985e+00	-2.642678e+02
2.690000e-06	-7.956872e-07	-3.853682e-09	-5.972692e+00	-2.618370e+02
2.700000e-06	-7.751444e-07	-3.822954e-09	-5.818491e+00	-2.593938e+02
2.710000e-06	-7.545848e-07	-3.788346e-09	-5.664164e+00	-2.569369e+02
2.720000e-06	-7.340236e-07	-3.752365e-09	-5.509825e+00	-2.544649e+02
2.730000e-06	-7.134724e-07	-3.719929e-09	-5.355561e+00	-2.519762e+02
2.740000e-06	-6.928709e-07	-3.685765e-09	-5.200919e+00	-2.494692e+02
2.750000e-06	-6.722280e-07	-3.648205e-09	-5.045966e+00	-2.469422e+02
2.760000e-06	-6.516218e-07	-3.608153e-09	-4.891289e+00	-2.443936e+02
2.770000e-06	-6.310296e-07	-3.569944e-09	-4.736718e+00	-2.418215e+02
2.780000e-06	-6.103883e-07	-3.536109e-09	-4.581777e+00	-2.392243e+02
2.790000e-06	-5.897609e-07	-3.501005e-09	-4.426941e+00	-2.366005e+02
2.800000e-06	-5.691162e-07	-3.464490e-09	-4.271975e+00	-2.339486e+02
2.810000e-06	-5.483666e-07	-3.427183e-09	-4.116222e+00	-2.312671e+02
2.820000e-06	-5.276053e-07	-3.387390e-09	-3.960381e+00	-2.285550e+02
2.830000e-06	-5.069336e-07	-3.344875e-09	-3.805212e+00	-2.258113e+02
2.840000e-06	-4.861975e-07	-3.304524e-09	-3.649560e+00	-2.230351e+02
