# Temperatura_=_20.0
# Concentracion g/m^3_=_10000.0
# C_Vs_to_Am_M_A/Vsm_=_65563218390.804596
# pendiente_HvsI_1/m_=_3716.3
# ordenada_HvsI_A/m_=_1297.0
# frecuencia_Hz_=_81165.43572956459

Tiempo_(s)	Campo_(V.s)	Magnetizacion_(V.s)	Campo_(kA/m)	Magnetizacion_(A/m)
0.000000e+00	-4.122060e-06	-8.486389e-09	-3.098879e+01	-5.500637e+02
1.000000e-08	-4.122193e-06	-8.534621e-09	-3.098980e+01	-5.502491e+02
2.000000e-08	-4.122289e-06	-8.517126e-09	-3.099052e+01	-5.504243e+02
3.000000e-08	-4.122361e-06	-8.509363e-09	-3.099106e+01	-5.505857e+02
4.000000e-08	-4.122460e-06	-8.441168e-09	-3.099180e+01	-5.507301e+02
5.000000e-08	-4.122443e-06	-8.440960e-09	-3.099168e+01	-5.508554e+02
6.000000e-08	-4.122261e-06	-8.480134e-09	-3.099031e+01	-5.509601e+02
7.000000e-08	-4.122093e-06	-8.361802e-09	-3.098905e+01	-5.510438e+02
8.000000e-08	-4.121960e-06	-8.352497e-09	-3.098805e+01	-5.511067e+02
9.000000e-08	-4.121668e-06	-8.407982e-09	-3.098585e+01	-5.511499e+02
1.000000e-07	-4.121193e-06	-8.343285e-09	-3.098228e+01	-5.511749e+02
1.100000e-07	-4.120673e-06	-8.408962e-09	-3.097837e+01	-5.511841e+02
1.200000e-07	-4.120112e-06	-8.421112e-09	-3.097415e+01	-5.511798e+02
1.300000e-07	-4.119447e-06	-8.340943e-09	-3.096915e+01	-5.511647e+02
1.400000e-07	-4.118664e-06	-8.385192e-09	-3.096326e+01	-5.511415e+02
1.500000e-07	-4.117696e-06	-8.417168e-09	-3.095599e+01	-5.511127e+02
1.600000e-07	-4.116645e-06	-8.496118e-09	-3.094809e+01	-5.510802e+02
1.700000e-07	-4.115483e-06	-8.442328e-09	-3.093935e+01	-5.510458e+02
1.800000e-07	-4.114066e-06	-8.342112e-09	-3.092870e+01	-5.510104e+02
1.900000e-07	-4.112599e-06	-8.416561e-09	-3.091767e+01	-5.509744e+02
2.000000e-07	-4.110995e-06	-8.452549e-09	-3.090561e+01	-5.509375e+02
2.100000e-07	-4.109293e-06	-8.455232e-09	-3.089282e+01	-5.508985e+02
2.200000e-07	-4.107472e-06	-8.330032e-09	-3.087913e+01	-5.508559e+02
2.300000e-07	-4.105310e-06	-8.334774e-09	-3.086287e+01	-5.508071e+02
2.400000e-07	-4.103009e-06	-8.444936e-09	-3.084558e+01	-5.507495e+02
2.500000e-07	-4.100549e-06	-8.417463e-09	-3.082708e+01	-5.506799e+02
2.600000e-07	-4.098017e-06	-8.417797e-09	-3.080804e+01	-5.505949e+02
2.700000e-07	-4.095324e-06	-8.325592e-09	-3.078780e+01	-5.504910e+02
2.800000e-07	-4.092446e-06	-8.375832e-09	-3.076617e+01	-5.503649e+02
2.900000e-07	-4.089474e-06	-8.405899e-09	-3.074382e+01	-5.502137e+02
3.000000e-07	-4.086244e-06	-8.393688e-09	-3.071954e+01	-5.500345e+02
3.100000e-07	-4.082971e-06	-8.364338e-09	-3.069493e+01	-5.498253e+02
3.200000e-07	-4.079560e-06	-8.278543e-09	-3.066929e+01	-5.495846e+02
3.300000e-07	-4.075911e-06	-8.349529e-09	-3.064186e+01	-5.493114e+02
3.400000e-07	-4.072099e-06	-8.358763e-09	-3.061320e+01	-5.490058e+02
3.500000e-07	-4.068182e-06	-8.366402e-09	-3.058375e+01	-5.486682e+02
3.600000e-07	-4.064232e-06	-8.288053e-09	-3.055406e+01	-5.483000e+02
3.700000e-07	-4.060150e-06	-8.273959e-09	-3.052337e+01	-5.479030e+02
3.800000e-07	-4.056066e-06	-8.361878e-09	-3.049267e+01	-5.474797e+02
3.900000e-07	-4.052010e-06	-8.324246e-09	-3.046217e+01	-5.470329e+02
4.000000e-07	-4.047879e-06	-8.265600e-09	-3.043112e+01	-5.465659e+02
4.100000e-07	-4.043684e-06	-8.177955e-09	-3.039958e+01	-5.460819e+02
4.200000e-07	-4.039400e-06	-8.252277e-09	-3.036738e+01	-5.455846e+02
4.300000e-07	-4.035105e-06	-8.300107e-09	-3.033509e+01	-5.450772e+02
4.400000e-07	-4.030805e-06	-8.250791e-09	-3.030276e+01	-5.445630e+02
4.500000e-07	-4.026413e-06	-8.223210e-09	-3.026974e+01	-5.440450e+02
4.600000e-07	-4.021887e-06	-8.211679e-09	-3.023571e+01	-5.435259e+02
4.700000e-07	-4.017177e-06	-8.274799e-09	-3.020031e+01	-5.430078e+02
4.800000e-07	-4.012465e-06	-8.223188e-09	-3.016489e+01	-5.424928e+02
4.900000e-07	-4.007671e-06	-8.180531e-09	-3.012884e+01	-5.419824e+02
5.000000e-07	-4.002639e-06	-8.159605e-09	-3.009102e+01	-5.414776e+02
5.100000e-07	-3.997562e-06	-8.169830e-09	-3.005284e+01	-5.409793e+02
5.200000e-07	-3.992531e-06	-8.212565e-09	-3.001502e+01	-5.404879e+02
5.300000e-07	-3.987396e-06	-8.170683e-09	-2.997642e+01	-5.400038e+02
5.400000e-07	-3.982063e-06	-8.153157e-09	-2.993632e+01	-5.395272e+02
5.500000e-07	-3.976505e-06	-8.123998e-09	-2.989454e+01	-5.390580e+02
5.600000e-07	-3.970822e-06	-8.160963e-09	-2.985182e+01	-5.385964e+02
5.700000e-07	-3.965024e-06	-8.163460e-09	-2.980823e+01	-5.381425e+02
5.800000e-07	-3.959058e-06	-8.103032e-09	-2.976338e+01	-5.376966e+02
5.900000e-07	-3.953040e-06	-8.087128e-09	-2.971814e+01	-5.372588e+02
6.000000e-07	-3.946975e-06	-8.087240e-09	-2.967255e+01	-5.368297e+02
6.100000e-07	-3.940900e-06	-8.127657e-09	-2.962687e+01	-5.364099e+02
6.200000e-07	-3.934772e-06	-8.088520e-09	-2.958080e+01	-5.360000e+02
6.300000e-07	-3.928501e-06	-8.068636e-09	-2.953366e+01	-5.356008e+02
6.400000e-07	-3.922172e-06	-8.086433e-09	-2.948608e+01	-5.352130e+02
6.500000e-07	-3.915709e-06	-8.099710e-09	-2.943749e+01	-5.348372e+02
6.600000e-07	-3.909159e-06	-8.100365e-09	-2.938825e+01	-5.344740e+02
6.700000e-07	-3.902606e-06	-8.038695e-09	-2.933899e+01	-5.341238e+02
6.800000e-07	-3.895984e-06	-8.027255e-09	-2.928920e+01	-5.337866e+02
6.900000e-07	-3.889232e-06	-8.023773e-09	-2.923844e+01	-5.334621e+02
7.000000e-07	-3.882244e-06	-8.037465e-09	-2.918591e+01	-5.331498e+02
7.100000e-07	-3.875139e-06	-8.029293e-09	-2.913249e+01	-5.328485e+02
7.200000e-07	-3.867895e-06	-8.008410e-09	-2.907803e+01	-5.325569e+02
7.300000e-07	-3.860543e-06	-8.032499e-09	-2.902277e+01	-5.322731e+02
7.400000e-07	-3.853110e-06	-8.035843e-09	-2.896689e+01	-5.319947e+02
7.500000e-07	-3.845508e-06	-8.041118e-09	-2.890974e+01	-5.317191e+02
7.600000e-07	-3.837852e-06	-8.000911e-09	-2.885218e+01	-5.314434e+02
7.700000e-07	-3.830142e-06	-7.979446e-09	-2.879422e+01	-5.311644e+02
7.800000e-07	-3.822302e-06	-7.990637e-09	-2.873528e+01	-5.308786e+02
7.900000e-07	-3.814367e-06	-7.992381e-09	-2.867562e+01	-5.305828e+02
8.000000e-07	-3.806405e-06	-7.989255e-09	-2.861577e+01	-5.302733e+02
8.100000e-07	-3.798391e-06	-7.959004e-09	-2.855552e+01	-5.299470e+02
8.200000e-07	-3.790323e-06	-7.973150e-09	-2.849487e+01	-5.296007e+02
8.300000e-07	-3.782229e-06	-7.981463e-09	-2.843402e+01	-5.292315e+02
8.400000e-07	-3.774083e-06	-7.971435e-09	-2.837278e+01	-5.288368e+02
8.500000e-07	-3.765862e-06	-7.944227e-09	-2.831097e+01	-5.284145e+02
8.600000e-07	-3.757619e-06	-7.916007e-09	-2.824900e+01	-5.279628e+02
8.700000e-07	-3.749350e-06	-7.923888e-09	-2.818684e+01	-5.274805e+02
8.800000e-07	-3.740990e-06	-7.910420e-09	-2.812399e+01	-5.269665e+02
8.900000e-07	-3.732584e-06	-7.902505e-09	-2.806080e+01	-5.264205e+02
9.000000e-07	-3.724187e-06	-7.887350e-09	-2.799767e+01	-5.258423e+02
9.100000e-07	-3.715592e-06	-7.890758e-09	-2.793306e+01	-5.252324e+02
9.200000e-07	-3.706914e-06	-7.899898e-09	-2.786782e+01	-5.245914e+02
9.300000e-07	-3.698277e-06	-7.877492e-09	-2.780288e+01	-5.239202e+02
9.400000e-07	-3.689327e-06	-7.854678e-09	-2.773560e+01	-5.232200e+02
9.500000e-07	-3.680194e-06	-7.823065e-09	-2.766694e+01	-5.224923e+02
9.600000e-07	-3.670978e-06	-7.816779e-09	-2.759765e+01	-5.217384e+02
9.700000e-07	-3.661682e-06	-7.800584e-09	-2.752777e+01	-5.209601e+02
9.800000e-07	-3.652375e-06	-7.778072e-09	-2.745780e+01	-5.201590e+02
9.900000e-07	-3.642865e-06	-7.766577e-09	-2.738631e+01	-5.193370e+02
1.000000e-06	-3.633108e-06	-7.756427e-09	-2.731296e+01	-5.184956e+02
1.010000e-06	-3.623163e-06	-7.758095e-09	-2.723819e+01	-5.176367e+02
1.020000e-06	-3.613122e-06	-7.733169e-09	-2.716271e+01	-5.167621e+02
1.030000e-06	-3.602954e-06	-7.709632e-09	-2.708627e+01	-5.158735e+02
1.040000e-06	-3.592508e-06	-7.686955e-09	-2.700774e+01	-5.149727e+02
1.050000e-06	-3.581910e-06	-7.670948e-09	-2.692806e+01	-5.140614e+02
1.060000e-06	-3.571132e-06	-7.658566e-09	-2.684704e+01	-5.131413e+02
1.070000e-06	-3.560096e-06	-7.635903e-09	-2.676407e+01	-5.122143e+02
1.080000e-06	-3.548998e-06	-7.630073e-09	-2.668064e+01	-5.112821e+02
1.090000e-06	-3.537939e-06	-7.620914e-09	-2.659750e+01	-5.103465e+02
1.100000e-06	-3.526719e-06	-7.615231e-09	-2.651315e+01	-5.094093e+02
1.110000e-06	-3.515351e-06	-7.593528e-09	-2.642769e+01	-5.084722e+02
1.120000e-06	-3.503902e-06	-7.564728e-09	-2.634161e+01	-5.075370e+02
1.130000e-06	-3.492211e-06	-7.544451e-09	-2.625372e+01	-5.066053e+02
1.140000e-06	-3.480322e-06	-7.523349e-09	-2.616434e+01	-5.056786e+02
1.150000e-06	-3.468370e-06	-7.513386e-09	-2.607449e+01	-5.047584e+02
1.160000e-06	-3.456361e-06	-7.492325e-09	-2.598421e+01	-5.038461e+02
1.170000e-06	-3.444275e-06	-7.479773e-09	-2.589335e+01	-5.029426e+02
1.180000e-06	-3.432229e-06	-7.471068e-09	-2.580279e+01	-5.020490e+02
1.190000e-06	-3.420171e-06	-7.461267e-09	-2.571214e+01	-5.011659e+02
1.200000e-06	-3.408018e-06	-7.450825e-09	-2.562078e+01	-5.002939e+02
1.210000e-06	-3.395773e-06	-7.432048e-09	-2.552872e+01	-4.994330e+02
1.220000e-06	-3.383469e-06	-7.423322e-09	-2.543622e+01	-4.985834e+02
1.230000e-06	-3.371016e-06	-7.405659e-09	-2.534261e+01	-4.977447e+02
1.240000e-06	-3.358429e-06	-7.386432e-09	-2.524798e+01	-4.969164e+02
1.250000e-06	-3.345717e-06	-7.367088e-09	-2.515241e+01	-4.960980e+02
1.260000e-06	-3.332981e-06	-7.352721e-09	-2.505666e+01	-4.952885e+02
1.270000e-06	-3.320184e-06	-7.349014e-09	-2.496046e+01	-4.944870e+02
1.280000e-06	-3.307206e-06	-7.340853e-09	-2.486289e+01	-4.936924e+02
1.290000e-06	-3.294201e-06	-7.334530e-09	-2.476512e+01	-4.929035e+02
1.300000e-06	-3.281185e-06	-7.319900e-09	-2.466727e+01	-4.921193e+02
1.310000e-06	-3.268126e-06	-7.307334e-09	-2.456910e+01	-4.913383e+02
1.320000e-06	-3.254846e-06	-7.296563e-09	-2.446926e+01	-4.905596e+02
1.330000e-06	-3.241401e-06	-7.282037e-09	-2.436818e+01	-4.897819e+02
1.340000e-06	-3.227960e-06	-7.266586e-09	-2.426714e+01	-4.890041e+02
1.350000e-06	-3.214492e-06	-7.247564e-09	-2.416589e+01	-4.882251e+02
1.360000e-06	-3.200924e-06	-7.241036e-09	-2.406389e+01	-4.874439e+02
1.370000e-06	-3.187227e-06	-7.233202e-09	-2.396091e+01	-4.866595e+02
1.380000e-06	-3.173469e-06	-7.220600e-09	-2.385749e+01	-4.858709e+02
1.390000e-06	-3.159550e-06	-7.206677e-09	-2.375285e+01	-4.850771e+02
1.400000e-06	-3.145476e-06	-7.195001e-09	-2.364704e+01	-4.842771e+02
1.410000e-06	-3.131392e-06	-7.184787e-09	-2.354116e+01	-4.834698e+02
1.420000e-06	-3.117307e-06	-7.166762e-09	-2.343527e+01	-4.826539e+02
1.430000e-06	-3.103222e-06	-7.151107e-09	-2.332939e+01	-4.818283e+02
1.440000e-06	-3.089132e-06	-7.134800e-09	-2.322346e+01	-4.809916e+02
1.450000e-06	-3.074932e-06	-7.123349e-09	-2.311670e+01	-4.801423e+02
1.460000e-06	-3.060533e-06	-7.113536e-09	-2.300846e+01	-4.792787e+02
1.470000e-06	-3.046107e-06	-7.097907e-09	-2.290000e+01	-4.783994e+02
1.480000e-06	-3.031643e-06	-7.080058e-09	-2.279126e+01	-4.775024e+02
1.490000e-06	-3.017001e-06	-7.061530e-09	-2.268119e+01	-4.765859e+02
1.500000e-06	-3.002261e-06	-7.049643e-09	-2.257038e+01	-4.756481e+02
1.510000e-06	-2.987335e-06	-7.034366e-09	-2.245817e+01	-4.746873e+02
1.520000e-06	-2.972038e-06	-7.016293e-09	-2.234317e+01	-4.737015e+02
1.530000e-06	-2.956834e-06	-6.997460e-09	-2.222886e+01	-4.726893e+02
1.540000e-06	-2.941775e-06	-6.983072e-09	-2.211566e+01	-4.716490e+02
1.550000e-06	-2.926572e-06	-6.970616e-09	-2.200136e+01	-4.705793e+02
1.560000e-06	-2.911252e-06	-6.948294e-09	-2.188619e+01	-4.694793e+02
1.570000e-06	-2.895799e-06	-6.927195e-09	-2.177002e+01	-4.683479e+02
1.580000e-06	-2.880263e-06	-6.904025e-09	-2.165322e+01	-4.671847e+02
1.590000e-06	-2.864560e-06	-6.882469e-09	-2.153517e+01	-4.659894e+02
1.600000e-06	-2.848910e-06	-6.862152e-09	-2.141752e+01	-4.647621e+02
1.610000e-06	-2.833099e-06	-6.841496e-09	-2.129865e+01	-4.635030e+02
1.620000e-06	-2.817244e-06	-6.820955e-09	-2.117946e+01	-4.622128e+02
1.630000e-06	-2.801241e-06	-6.795437e-09	-2.105915e+01	-4.608924e+02
1.640000e-06	-2.784928e-06	-6.773005e-09	-2.093651e+01	-4.595427e+02
1.650000e-06	-2.768615e-06	-6.748437e-09	-2.081387e+01	-4.581652e+02
1.660000e-06	-2.752079e-06	-6.722424e-09	-2.068956e+01	-4.567613e+02
1.670000e-06	-2.735404e-06	-6.698698e-09	-2.056420e+01	-4.553326e+02
1.680000e-06	-2.718642e-06	-6.675011e-09	-2.043819e+01	-4.538808e+02
1.690000e-06	-2.701766e-06	-6.654425e-09	-2.031132e+01	-4.524075e+02
1.700000e-06	-2.684783e-06	-6.633037e-09	-2.018364e+01	-4.509147e+02
1.710000e-06	-2.667699e-06	-6.611837e-09	-2.005521e+01	-4.494040e+02
1.720000e-06	-2.650585e-06	-6.587365e-09	-1.992655e+01	-4.478773e+02
1.730000e-06	-2.633402e-06	-6.561183e-09	-1.979737e+01	-4.463363e+02
1.740000e-06	-2.616336e-06	-6.536800e-09	-1.966907e+01	-4.447827e+02
1.750000e-06	-2.599321e-06	-6.512379e-09	-1.954116e+01	-4.432182e+02
1.760000e-06	-2.581973e-06	-6.489980e-09	-1.941074e+01	-4.416445e+02
1.770000e-06	-2.564574e-06	-6.464410e-09	-1.927994e+01	-4.400632e+02
1.780000e-06	-2.547328e-06	-6.439740e-09	-1.915028e+01	-4.384758e+02
1.790000e-06	-2.529998e-06	-6.417237e-09	-1.902000e+01	-4.368840e+02
1.800000e-06	-2.512477e-06	-6.395487e-09	-1.888829e+01	-4.352894e+02
1.810000e-06	-2.494903e-06	-6.374810e-09	-1.875616e+01	-4.336934e+02
1.820000e-06	-2.477380e-06	-6.351920e-09	-1.862444e+01	-4.320977e+02
1.830000e-06	-2.459900e-06	-6.329716e-09	-1.849302e+01	-4.305038e+02
1.840000e-06	-2.442306e-06	-6.304932e-09	-1.836075e+01	-4.289131e+02
1.850000e-06	-2.424608e-06	-6.277819e-09	-1.822770e+01	-4.273270e+02
1.860000e-06	-2.406927e-06	-6.253495e-09	-1.809478e+01	-4.257468e+02
1.870000e-06	-2.389141e-06	-6.234331e-09	-1.796107e+01	-4.241738e+02
1.880000e-06	-2.371367e-06	-6.214751e-09	-1.782745e+01	-4.226089e+02
1.890000e-06	-2.353554e-06	-6.190962e-09	-1.769354e+01	-4.210530e+02
1.900000e-06	-2.335737e-06	-6.170101e-09	-1.755959e+01	-4.195068e+02
1.910000e-06	-2.317872e-06	-6.148138e-09	-1.742528e+01	-4.179706e+02
1.920000e-06	-2.299871e-06	-6.125993e-09	-1.728995e+01	-4.164445e+02
1.930000e-06	-2.281891e-06	-6.102872e-09	-1.715479e+01	-4.149285e+02
1.940000e-06	-2.263840e-06	-6.075319e-09	-1.701908e+01	-4.134220e+02
1.950000e-06	-2.245847e-06	-6.048288e-09	-1.688381e+01	-4.119243e+02
1.960000e-06	-2.227785e-06	-6.023217e-09	-1.674803e+01	-4.104343e+02
1.970000e-06	-2.209578e-06	-6.003984e-09	-1.661115e+01	-4.089507e+02
1.980000e-06	-2.191343e-06	-5.986939e-09	-1.647406e+01	-4.074720e+02
1.990000e-06	-2.173069e-06	-5.969685e-09	-1.633669e+01	-4.059964e+02
2.000000e-06	-2.154876e-06	-5.953111e-09	-1.619991e+01	-4.045219e+02
2.010000e-06	-2.136576e-06	-5.934287e-09	-1.606234e+01	-4.030466e+02
2.020000e-06	-2.118104e-06	-5.912868e-09	-1.592347e+01	-4.015683e+02
2.030000e-06	-2.099604e-06	-5.887510e-09	-1.578439e+01	-4.000849e+02
2.040000e-06	-2.081063e-06	-5.862067e-09	-1.564500e+01	-3.985942e+02
2.050000e-06	-2.062470e-06	-5.838397e-09	-1.550523e+01	-3.970943e+02
2.060000e-06	-2.043875e-06	-5.815882e-09	-1.536543e+01	-3.955833e+02
2.070000e-06	-2.025180e-06	-5.793475e-09	-1.522489e+01	-3.940593e+02
2.080000e-06	-2.006373e-06	-5.771723e-09	-1.508350e+01	-3.925207e+02
2.090000e-06	-1.987506e-06	-5.750370e-09	-1.494166e+01	-3.909660e+02
2.100000e-06	-1.968604e-06	-5.729614e-09	-1.479956e+01	-3.893940e+02
2.110000e-06	-1.949780e-06	-5.708849e-09	-1.465804e+01	-3.878034e+02
2.120000e-06	-1.930902e-06	-5.685793e-09	-1.451612e+01	-3.861932e+02
2.130000e-06	-1.911865e-06	-5.663038e-09	-1.437300e+01	-3.845625e+02
2.140000e-06	-1.892768e-06	-5.639006e-09	-1.422944e+01	-3.829105e+02
2.150000e-06	-1.873595e-06	-5.612190e-09	-1.408530e+01	-3.812361e+02
2.160000e-06	-1.854319e-06	-5.585703e-09	-1.394039e+01	-3.795387e+02
2.170000e-06	-1.834972e-06	-5.561320e-09	-1.379494e+01	-3.778173e+02
2.180000e-06	-1.815596e-06	-5.539514e-09	-1.364928e+01	-3.760710e+02
2.190000e-06	-1.796105e-06	-5.518192e-09	-1.350275e+01	-3.742988e+02
2.200000e-06	-1.776423e-06	-5.497124e-09	-1.335478e+01	-3.724997e+02
2.210000e-06	-1.756799e-06	-5.471796e-09	-1.320725e+01	-3.706724e+02
2.220000e-06	-1.737214e-06	-5.437658e-09	-1.306002e+01	-3.688157e+02
2.230000e-06	-1.717591e-06	-5.402863e-09	-1.291250e+01	-3.669284e+02
2.240000e-06	-1.697975e-06	-5.370264e-09	-1.276502e+01	-3.650093e+02
2.250000e-06	-1.678203e-06	-5.338663e-09	-1.261638e+01	-3.630570e+02
2.260000e-06	-1.658380e-06	-5.305701e-09	-1.246736e+01	-3.610705e+02
2.270000e-06	-1.638529e-06	-5.272417e-09	-1.231812e+01	-3.590487e+02
2.280000e-06	-1.618664e-06	-5.244284e-09	-1.216878e+01	-3.569910e+02
2.290000e-06	-1.598842e-06	-5.216515e-09	-1.201976e+01	-3.548968e+02
2.300000e-06	-1.578869e-06	-5.185007e-09	-1.186961e+01	-3.527660e+02
2.310000e-06	-1.558841e-06	-5.150624e-09	-1.171905e+01	-3.505988e+02
2.320000e-06	-1.538829e-06	-5.118154e-09	-1.156860e+01	-3.483957e+02
2.330000e-06	-1.518774e-06	-5.088154e-09	-1.141783e+01	-3.461577e+02
2.340000e-06	-1.498670e-06	-5.055634e-09	-1.126669e+01	-3.438864e+02
2.350000e-06	-1.478594e-06	-5.021661e-09	-1.111576e+01	-3.415835e+02
2.360000e-06	-1.458542e-06	-4.988284e-09	-1.096501e+01	-3.392514e+02
2.370000e-06	-1.438385e-06	-4.955353e-09	-1.081349e+01	-3.368926e+02
2.380000e-06	-1.418242e-06	-4.921410e-09	-1.066205e+01	-3.345102e+02
2.390000e-06	-1.398121e-06	-4.884293e-09	-1.051079e+01	-3.321072e+02
2.400000e-06	-1.378001e-06	-4.843535e-09	-1.035953e+01	-3.296871e+02
2.410000e-06	-1.357898e-06	-4.805208e-09	-1.020840e+01	-3.272533e+02
2.420000e-06	-1.337738e-06	-4.772990e-09	-1.005684e+01	-3.248093e+02
2.430000e-06	-1.317547e-06	-4.742696e-09	-9.905047e+00	-3.223585e+02
2.440000e-06	-1.297424e-06	-4.710942e-09	-9.753769e+00	-3.199041e+02
2.450000e-06	-1.277308e-06	-4.677882e-09	-9.602540e+00	-3.174492e+02
2.460000e-06	-1.257135e-06	-4.644609e-09	-9.450882e+00	-3.149966e+02
2.470000e-06	-1.236948e-06	-4.611332e-09	-9.299122e+00	-3.125486e+02
2.480000e-06	-1.216727e-06	-4.577291e-09	-9.147100e+00	-3.101072e+02
2.490000e-06	-1.196534e-06	-4.541672e-09	-8.995294e+00	-3.076741e+02
2.500000e-06	-1.176318e-06	-4.506032e-09	-8.843317e+00	-3.052506e+02
2.510000e-06	-1.155998e-06	-4.474889e-09	-8.690553e+00	-3.028374e+02
2.520000e-06	-1.135745e-06	-4.442365e-09	-8.538293e+00	-3.004349e+02
2.530000e-06	-1.115567e-06	-4.405697e-09	-8.386604e+00	-2.980432e+02
2.540000e-06	-1.095366e-06	-4.370047e-09	-8.234733e+00	-2.956620e+02
2.550000e-06	-1.075121e-06	-4.334798e-09	-8.082540e+00	-2.932908e+02
2.560000e-06	-1.054836e-06	-4.300205e-09	-7.930043e+00	-2.909286e+02
2.570000e-06	-1.034538e-06	-4.266313e-09	-7.777447e+00	-2.885745e+02
2.580000e-06	-1.014267e-06	-4.233644e-09	-7.625047e+00	-2.862274e+02
2.590000e-06	-9.940296e-07	-4.201900e-09	-7.472910e+00	-2.838859e+02
2.600000e-06	-9.737921e-07	-4.170795e-09	-7.320768e+00	-2.815487e+02
2.610000e-06	-9.535439e-07	-4.139665e-09	-7.168546e+00	-2.792145e+02
2.620000e-06	-9.331786e-07	-4.107162e-09	-7.015444e+00	-2.768819e+02
2.630000e-06	-9.128156e-07	-4.074352e-09	-6.862359e+00	-2.745495e+02
2.640000e-06	-8.924331e-07	-4.043224e-09	-6.709128e+00	-2.722159e+02
2.650000e-06	-8.719590e-07	-4.013920e-09	-6.555208e+00	-2.698797e+02
2.660000e-06	-8.514970e-07	-3.982107e-09	-6.401379e+00	-2.675395e+02
2.670000e-06	-8.310621e-07	-3.947039e-09	-6.247754e+00	-2.651940e+02
2.680000e-06	-8.106670e-07	-3.910341e-09	-6.094427e+00	-2.628416e+02
2.690000e-06	-7.902037e-07	-3.876700e-09	-5.940588e+00	-2.604808e+02
2.700000e-06	-7.697326e-07	-3.847146e-09	-5.786691e+00	-2.581101e+02
2.710000e-06	-7.492615e-07	-3.813196e-09	-5.632793e+00	-2.557278e+02
2.720000e-06	-7.287257e-07	-3.774531e-09	-5.478410e+00	-2.533322e+02
2.730000e-06	-7.082143e-07	-3.737216e-09	-5.324209e+00	-2.509212e+02
2.740000e-06	-6.876311e-07	-3.703871e-09	-5.169468e+00	-2.484931e+02
2.750000e-06	-6.670702e-07	-3.669359e-09	-5.014896e+00	-2.460457e+02
2.760000e-06	-6.466024e-07	-3.629105e-09	-4.861024e+00	-2.435770e+02
2.770000e-06	-6.260222e-07	-3.591982e-09	-4.706306e+00	-2.410847e+02
2.780000e-06	-6.054377e-07	-3.562786e-09	-4.551556e+00	-2.385667e+02
2.790000e-06	-5.849209e-07	-3.537539e-09	-4.397314e+00	-2.360208e+02
2.800000e-06	-5.644315e-07	-3.509855e-09	-4.243279e+00	-2.334450e+02
2.810000e-06	-5.438968e-07	-3.470653e-09	-4.088904e+00	-2.308373e+02
2.820000e-06	-5.232320e-07	-3.425258e-09	-3.933550e+00	-2.281958e+02
2.830000e-06	-5.025545e-07	-3.384166e-09	-3.778101e+00	-2.255189e+02
2.840000e-06	-4.818443e-07	-3.345394e-09	-3.622406e+00	-2.228052e+02
