# Temperatura_=_20.0
# Concentracion g/m^3_=_10000.0
# C_Vs_to_Am_M_A/Vsm_=_65563218390.804596
# pendiente_HvsI_1/m_=_3716.3
# ordenada_HvsI_A/m_=_1297.0
# frecuencia_Hz_=_81166.83816218238

Tiempo_(s)	Campo_(V.s)	Magnetizacion_(V.s)	Campo_(kA/m)	Magnetizacion_(A/m)
0.000000e+00	-4.104877e-06	-1.332703e-09	-3.101091e+01	-8.367148e+01
1.000000e-08	-4.105062e-06	-1.352031e-09	-3.101231e+01	-8.383969e+01
2.000000e-08	-4.105078e-06	-1.384728e-09	-3.101243e+01	-8.401915e+01
3.000000e-08	-4.104941e-06	-1.442919e-09	-3.101139e+01	-8.420553e+01
4.000000e-08	-4.104808e-06	-1.430355e-09	-3.101039e+01	-8.439458e+01
5.000000e-08	-4.104720e-06	-1.218490e-09	-3.100972e+01	-8.458221e+01
6.000000e-08	-4.104543e-06	-1.262891e-09	-3.100838e+01	-8.476469e+01
7.000000e-08	-4.104249e-06	-1.272963e-09	-3.100617e+01	-8.493871e+01
8.000000e-08	-4.103939e-06	-1.191393e-09	-3.100383e+01	-8.510148e+01
9.000000e-08	-4.103544e-06	-1.343879e-09	-3.100084e+01	-8.525080e+01
1.000000e-07	-4.103107e-06	-1.259868e-09	-3.099754e+01	-8.538506e+01
1.100000e-07	-4.102657e-06	-1.315589e-09	-3.099414e+01	-8.550330e+01
1.200000e-07	-4.102019e-06	-1.336802e-09	-3.098932e+01	-8.560514e+01
1.300000e-07	-4.101294e-06	-1.296125e-09	-3.098384e+01	-8.569077e+01
1.400000e-07	-4.100549e-06	-1.331660e-09	-3.097821e+01	-8.576087e+01
1.500000e-07	-4.099630e-06	-1.183343e-09	-3.097127e+01	-8.581651e+01
1.600000e-07	-4.098658e-06	-1.343915e-09	-3.096393e+01	-8.585909e+01
1.700000e-07	-4.097646e-06	-1.379251e-09	-3.095628e+01	-8.589020e+01
1.800000e-07	-4.096522e-06	-1.358232e-09	-3.094779e+01	-8.591153e+01
1.900000e-07	-4.095130e-06	-1.333435e-09	-3.093728e+01	-8.592475e+01
2.000000e-07	-4.093527e-06	-1.241728e-09	-3.092516e+01	-8.593142e+01
2.100000e-07	-4.091960e-06	-1.382336e-09	-3.091333e+01	-8.593290e+01
2.200000e-07	-4.090154e-06	-1.265055e-09	-3.089968e+01	-8.593025e+01
2.300000e-07	-4.088020e-06	-1.310602e-09	-3.088356e+01	-8.592423e+01
2.400000e-07	-4.085825e-06	-1.291333e-09	-3.086698e+01	-8.591519e+01
2.500000e-07	-4.083547e-06	-1.305003e-09	-3.084977e+01	-8.590311e+01
2.600000e-07	-4.081018e-06	-1.372280e-09	-3.083066e+01	-8.588761e+01
2.700000e-07	-4.078164e-06	-1.282780e-09	-3.080910e+01	-8.586791e+01
2.800000e-07	-4.075251e-06	-1.333961e-09	-3.078710e+01	-8.584297e+01
2.900000e-07	-4.072325e-06	-1.228683e-09	-3.076499e+01	-8.581146e+01
3.000000e-07	-4.069132e-06	-1.296675e-09	-3.074087e+01	-8.577188e+01
3.100000e-07	-4.065640e-06	-1.296891e-09	-3.071449e+01	-8.572264e+01
3.200000e-07	-4.061988e-06	-1.282584e-09	-3.068690e+01	-8.566213e+01
3.300000e-07	-4.058285e-06	-1.318197e-09	-3.065893e+01	-8.558883e+01
3.400000e-07	-4.054554e-06	-1.254807e-09	-3.063074e+01	-8.550136e+01
3.500000e-07	-4.050727e-06	-1.340456e-09	-3.060183e+01	-8.539858e+01
3.600000e-07	-4.046696e-06	-1.263937e-09	-3.057137e+01	-8.527965e+01
3.700000e-07	-4.042608e-06	-1.262385e-09	-3.054049e+01	-8.514410e+01
3.800000e-07	-4.038489e-06	-1.230281e-09	-3.050937e+01	-8.499184e+01
3.900000e-07	-4.034319e-06	-1.237984e-09	-3.047787e+01	-8.482320e+01
4.000000e-07	-4.030131e-06	-1.306892e-09	-3.044623e+01	-8.463895e+01
4.100000e-07	-4.025912e-06	-1.233705e-09	-3.041436e+01	-8.444029e+01
4.200000e-07	-4.021622e-06	-1.276138e-09	-3.038195e+01	-8.422879e+01
4.300000e-07	-4.017302e-06	-1.238380e-09	-3.034931e+01	-8.400640e+01
4.400000e-07	-4.012871e-06	-1.272870e-09	-3.031583e+01	-8.377539e+01
4.500000e-07	-4.008377e-06	-1.240240e-09	-3.028189e+01	-8.353827e+01
4.600000e-07	-4.003858e-06	-1.194083e-09	-3.024774e+01	-8.329774e+01
4.700000e-07	-3.999210e-06	-1.235959e-09	-3.021264e+01	-8.305661e+01
4.800000e-07	-3.994454e-06	-1.195943e-09	-3.017670e+01	-8.281775e+01
4.900000e-07	-3.989675e-06	-1.251764e-09	-3.014060e+01	-8.258398e+01
5.000000e-07	-3.984812e-06	-1.222763e-09	-3.010386e+01	-8.235804e+01
5.100000e-07	-3.979834e-06	-1.239550e-09	-3.006625e+01	-8.214252e+01
5.200000e-07	-3.974799e-06	-1.226579e-09	-3.002822e+01	-8.193976e+01
5.300000e-07	-3.969582e-06	-1.212117e-09	-2.998880e+01	-8.175187e+01
5.400000e-07	-3.964298e-06	-1.251893e-09	-2.994888e+01	-8.158063e+01
5.500000e-07	-3.958835e-06	-1.192958e-09	-2.990761e+01	-8.142751e+01
5.600000e-07	-3.953194e-06	-1.218916e-09	-2.986500e+01	-8.129364e+01
5.700000e-07	-3.947460e-06	-1.203799e-09	-2.982168e+01	-8.117978e+01
5.800000e-07	-3.941694e-06	-1.226367e-09	-2.977812e+01	-8.108635e+01
5.900000e-07	-3.935876e-06	-1.210139e-09	-2.973417e+01	-8.101344e+01
6.000000e-07	-3.929860e-06	-1.181651e-09	-2.968871e+01	-8.096081e+01
6.100000e-07	-3.923749e-06	-1.222649e-09	-2.964255e+01	-8.092794e+01
6.200000e-07	-3.917502e-06	-1.197506e-09	-2.959536e+01	-8.091405e+01
6.300000e-07	-3.911171e-06	-1.237201e-09	-2.954753e+01	-8.091815e+01
6.400000e-07	-3.904780e-06	-1.222984e-09	-2.949925e+01	-8.093905e+01
6.500000e-07	-3.898248e-06	-1.228221e-09	-2.944990e+01	-8.097542e+01
6.600000e-07	-3.891712e-06	-1.223626e-09	-2.940052e+01	-8.102583e+01
6.700000e-07	-3.885099e-06	-1.205543e-09	-2.935057e+01	-8.108878e+01
6.800000e-07	-3.878247e-06	-1.227480e-09	-2.929880e+01	-8.116272e+01
6.900000e-07	-3.871340e-06	-1.188138e-09	-2.924662e+01	-8.124609e+01
7.000000e-07	-3.864460e-06	-1.219017e-09	-2.919464e+01	-8.133735e+01
7.100000e-07	-3.857548e-06	-1.223876e-09	-2.914243e+01	-8.143499e+01
7.200000e-07	-3.850405e-06	-1.242196e-09	-2.908846e+01	-8.153754e+01
7.300000e-07	-3.843127e-06	-1.245546e-09	-2.903348e+01	-8.164357e+01
7.400000e-07	-3.835892e-06	-1.222140e-09	-2.897882e+01	-8.175171e+01
7.500000e-07	-3.828400e-06	-1.238551e-09	-2.892222e+01	-8.186063e+01
7.600000e-07	-3.820714e-06	-1.209798e-09	-2.886416e+01	-8.196905e+01
7.700000e-07	-3.812879e-06	-1.228710e-09	-2.880496e+01	-8.207571e+01
7.800000e-07	-3.804911e-06	-1.218015e-09	-2.874477e+01	-8.217937e+01
7.900000e-07	-3.796952e-06	-1.225597e-09	-2.868464e+01	-8.227877e+01
8.000000e-07	-3.788990e-06	-1.246277e-09	-2.862449e+01	-8.237267e+01
8.100000e-07	-3.780995e-06	-1.244055e-09	-2.856410e+01	-8.245979e+01
8.200000e-07	-3.772868e-06	-1.263365e-09	-2.850270e+01	-8.253882e+01
8.300000e-07	-3.764726e-06	-1.238521e-09	-2.844119e+01	-8.260842e+01
8.400000e-07	-3.756603e-06	-1.247680e-09	-2.837982e+01	-8.266719e+01
8.500000e-07	-3.748356e-06	-1.231868e-09	-2.831752e+01	-8.271374e+01
8.600000e-07	-3.740049e-06	-1.228910e-09	-2.825476e+01	-8.274662e+01
8.700000e-07	-3.731598e-06	-1.233716e-09	-2.819092e+01	-8.276440e+01
8.800000e-07	-3.723136e-06	-1.220734e-09	-2.812699e+01	-8.276569e+01
8.900000e-07	-3.714712e-06	-1.246017e-09	-2.806335e+01	-8.274913e+01
9.000000e-07	-3.706106e-06	-1.241204e-09	-2.799834e+01	-8.271345e+01
9.100000e-07	-3.697451e-06	-1.253504e-09	-2.793295e+01	-8.265754e+01
9.200000e-07	-3.688844e-06	-1.238563e-09	-2.786793e+01	-8.258042e+01
9.300000e-07	-3.680256e-06	-1.230410e-09	-2.780305e+01	-8.248136e+01
9.400000e-07	-3.671441e-06	-1.233083e-09	-2.773645e+01	-8.235985e+01
9.500000e-07	-3.662374e-06	-1.214371e-09	-2.766796e+01	-8.221568e+01
9.600000e-07	-3.653381e-06	-1.218713e-09	-2.760002e+01	-8.204896e+01
9.700000e-07	-3.644313e-06	-1.201582e-09	-2.753151e+01	-8.186014e+01
9.800000e-07	-3.634922e-06	-1.213212e-09	-2.746056e+01	-8.165003e+01
9.900000e-07	-3.625462e-06	-1.215223e-09	-2.738910e+01	-8.141979e+01
1.000000e-06	-3.615864e-06	-1.212781e-09	-2.731658e+01	-8.117095e+01
1.010000e-06	-3.606024e-06	-1.209640e-09	-2.724225e+01	-8.090536e+01
1.020000e-06	-3.596072e-06	-1.193205e-09	-2.716707e+01	-8.062518e+01
1.030000e-06	-3.585976e-06	-1.200080e-09	-2.709080e+01	-8.033284e+01
1.040000e-06	-3.575677e-06	-1.180734e-09	-2.701299e+01	-8.003098e+01
1.050000e-06	-3.564980e-06	-1.173620e-09	-2.693217e+01	-7.972237e+01
1.060000e-06	-3.554106e-06	-1.160209e-09	-2.685003e+01	-7.940990e+01
1.070000e-06	-3.543405e-06	-1.157907e-09	-2.676918e+01	-7.909644e+01
1.080000e-06	-3.532660e-06	-1.170758e-09	-2.668801e+01	-7.878482e+01
1.090000e-06	-3.521750e-06	-1.161901e-09	-2.660559e+01	-7.847773e+01
1.100000e-06	-3.510479e-06	-1.161656e-09	-2.652044e+01	-7.817767e+01
1.110000e-06	-3.498996e-06	-1.146960e-09	-2.643369e+01	-7.788687e+01
1.120000e-06	-3.487489e-06	-1.149633e-09	-2.634676e+01	-7.760727e+01
1.130000e-06	-3.475893e-06	-1.143960e-09	-2.625916e+01	-7.734044e+01
1.140000e-06	-3.464298e-06	-1.132401e-09	-2.617156e+01	-7.708760e+01
1.150000e-06	-3.452557e-06	-1.132563e-09	-2.608286e+01	-7.684957e+01
1.160000e-06	-3.440586e-06	-1.127110e-09	-2.599242e+01	-7.662680e+01
1.170000e-06	-3.428516e-06	-1.137564e-09	-2.590124e+01	-7.641938e+01
1.180000e-06	-3.416505e-06	-1.131527e-09	-2.581050e+01	-7.622707e+01
1.190000e-06	-3.404517e-06	-1.129542e-09	-2.571994e+01	-7.604934e+01
1.200000e-06	-3.392372e-06	-1.127265e-09	-2.562818e+01	-7.588543e+01
1.210000e-06	-3.380126e-06	-1.129574e-09	-2.553567e+01	-7.573440e+01
1.220000e-06	-3.367775e-06	-1.133440e-09	-2.544236e+01	-7.559521e+01
1.230000e-06	-3.355394e-06	-1.118341e-09	-2.534883e+01	-7.546678e+01
1.240000e-06	-3.342989e-06	-1.115907e-09	-2.525511e+01	-7.534804e+01
1.250000e-06	-3.330479e-06	-1.113173e-09	-2.516060e+01	-7.523800e+01
1.260000e-06	-3.317906e-06	-1.121403e-09	-2.506562e+01	-7.513577e+01
1.270000e-06	-3.305165e-06	-1.123031e-09	-2.496937e+01	-7.504064e+01
1.280000e-06	-3.292307e-06	-1.121027e-09	-2.487223e+01	-7.495207e+01
1.290000e-06	-3.279465e-06	-1.128540e-09	-2.477521e+01	-7.486970e+01
1.300000e-06	-3.266588e-06	-1.126878e-09	-2.467793e+01	-7.479337e+01
1.310000e-06	-3.253433e-06	-1.130167e-09	-2.457855e+01	-7.472307e+01
1.320000e-06	-3.240187e-06	-1.124287e-09	-2.447848e+01	-7.465892e+01
1.330000e-06	-3.226970e-06	-1.123542e-09	-2.437863e+01	-7.460113e+01
1.340000e-06	-3.213525e-06	-1.122455e-09	-2.427706e+01	-7.454995e+01
1.350000e-06	-3.199997e-06	-1.120708e-09	-2.417486e+01	-7.450560e+01
1.360000e-06	-3.186511e-06	-1.125549e-09	-2.407298e+01	-7.446822e+01
1.370000e-06	-3.172841e-06	-1.122168e-09	-2.396970e+01	-7.443780e+01
1.380000e-06	-3.159045e-06	-1.124566e-09	-2.386548e+01	-7.441415e+01
1.390000e-06	-3.145280e-06	-1.124353e-09	-2.376149e+01	-7.439683e+01
1.400000e-06	-3.131461e-06	-1.130625e-09	-2.365710e+01	-7.438513e+01
1.410000e-06	-3.117515e-06	-1.133920e-09	-2.355174e+01	-7.437803e+01
1.420000e-06	-3.103427e-06	-1.133083e-09	-2.344531e+01	-7.437423e+01
1.430000e-06	-3.089295e-06	-1.136253e-09	-2.333854e+01	-7.437210e+01
1.440000e-06	-3.075109e-06	-1.132867e-09	-2.323138e+01	-7.436977e+01
1.450000e-06	-3.060823e-06	-1.136311e-09	-2.312345e+01	-7.436511e+01
1.460000e-06	-3.046499e-06	-1.133045e-09	-2.301523e+01	-7.435584e+01
1.470000e-06	-3.032041e-06	-1.131247e-09	-2.290601e+01	-7.433953e+01
1.480000e-06	-3.017537e-06	-1.131511e-09	-2.279644e+01	-7.431371e+01
1.490000e-06	-3.003045e-06	-1.128860e-09	-2.268695e+01	-7.427597e+01
1.500000e-06	-2.988409e-06	-1.130456e-09	-2.257639e+01	-7.422396e+01
1.510000e-06	-2.973637e-06	-1.127334e-09	-2.246479e+01	-7.415556e+01
1.520000e-06	-2.958799e-06	-1.130135e-09	-2.235269e+01	-7.406885e+01
1.530000e-06	-2.943812e-06	-1.125954e-09	-2.223947e+01	-7.396225e+01
1.540000e-06	-2.928578e-06	-1.121200e-09	-2.212438e+01	-7.383455e+01
1.550000e-06	-2.913259e-06	-1.115316e-09	-2.200865e+01	-7.368489e+01
1.560000e-06	-2.898082e-06	-1.105673e-09	-2.189399e+01	-7.351284e+01
1.570000e-06	-2.882800e-06	-1.104808e-09	-2.177855e+01	-7.331839e+01
1.580000e-06	-2.867382e-06	-1.099991e-09	-2.166207e+01	-7.310191e+01
1.590000e-06	-2.851803e-06	-1.096061e-09	-2.154437e+01	-7.286413e+01
1.600000e-06	-2.835975e-06	-1.089945e-09	-2.142480e+01	-7.260613e+01
1.610000e-06	-2.820050e-06	-1.091341e-09	-2.130449e+01	-7.232922e+01
1.620000e-06	-2.804038e-06	-1.088770e-09	-2.118352e+01	-7.203497e+01
1.630000e-06	-2.787899e-06	-1.077609e-09	-2.106160e+01	-7.172504e+01
1.640000e-06	-2.771484e-06	-1.072953e-09	-2.093759e+01	-7.140122e+01
1.650000e-06	-2.755071e-06	-1.061263e-09	-2.081360e+01	-7.106529e+01
1.660000e-06	-2.738608e-06	-1.052801e-09	-2.068923e+01	-7.071898e+01
1.670000e-06	-2.721959e-06	-1.046184e-09	-2.056345e+01	-7.036395e+01
1.680000e-06	-2.705229e-06	-1.038496e-09	-2.043706e+01	-7.000172e+01
1.690000e-06	-2.688598e-06	-1.033874e-09	-2.031142e+01	-6.963365e+01
1.700000e-06	-2.671956e-06	-1.032040e-09	-2.018569e+01	-6.926094e+01
1.710000e-06	-2.655180e-06	-1.033334e-09	-2.005896e+01	-6.888461e+01
1.720000e-06	-2.638357e-06	-1.026687e-09	-1.993187e+01	-6.850552e+01
1.730000e-06	-2.621449e-06	-1.017901e-09	-1.980413e+01	-6.812440e+01
1.740000e-06	-2.604428e-06	-1.009848e-09	-1.967554e+01	-6.774188e+01
1.750000e-06	-2.587342e-06	-1.004993e-09	-1.954647e+01	-6.735851e+01
1.760000e-06	-2.570231e-06	-9.994087e-10	-1.941720e+01	-6.697483e+01
1.770000e-06	-2.553141e-06	-9.910488e-10	-1.928808e+01	-6.659138e+01
1.780000e-06	-2.535975e-06	-9.841393e-10	-1.915841e+01	-6.620880e+01
1.790000e-06	-2.518602e-06	-9.730728e-10	-1.902716e+01	-6.582776e+01
1.800000e-06	-2.501275e-06	-9.675009e-10	-1.889626e+01	-6.544910e+01
1.810000e-06	-2.484060e-06	-9.625659e-10	-1.876621e+01	-6.507378e+01
1.820000e-06	-2.466754e-06	-9.589600e-10	-1.863546e+01	-6.470289e+01
1.830000e-06	-2.449235e-06	-9.540575e-10	-1.850312e+01	-6.433766e+01
1.840000e-06	-2.431642e-06	-9.470639e-10	-1.837021e+01	-6.397946e+01
1.850000e-06	-2.413969e-06	-9.467216e-10	-1.823669e+01	-6.362971e+01
1.860000e-06	-2.396385e-06	-9.432529e-10	-1.810385e+01	-6.328992e+01
1.870000e-06	-2.378866e-06	-9.395114e-10	-1.797150e+01	-6.296157e+01
1.880000e-06	-2.361112e-06	-9.340147e-10	-1.783738e+01	-6.264612e+01
1.890000e-06	-2.343322e-06	-9.299160e-10	-1.770298e+01	-6.234491e+01
1.900000e-06	-2.325527e-06	-9.300311e-10	-1.756855e+01	-6.205913e+01
1.910000e-06	-2.307653e-06	-9.292827e-10	-1.743351e+01	-6.178979e+01
1.920000e-06	-2.289775e-06	-9.266573e-10	-1.729845e+01	-6.153761e+01
1.930000e-06	-2.271796e-06	-9.173479e-10	-1.716263e+01	-6.130308e+01
1.940000e-06	-2.253766e-06	-9.105980e-10	-1.702641e+01	-6.108634e+01
1.950000e-06	-2.235758e-06	-9.067363e-10	-1.689037e+01	-6.088723e+01
1.960000e-06	-2.217684e-06	-9.030113e-10	-1.675383e+01	-6.070528e+01
1.970000e-06	-2.199544e-06	-9.000981e-10	-1.661678e+01	-6.053968e+01
1.980000e-06	-2.181365e-06	-8.950687e-10	-1.647945e+01	-6.038937e+01
1.990000e-06	-2.163109e-06	-8.930758e-10	-1.634153e+01	-6.025302e+01
2.000000e-06	-2.144877e-06	-8.909192e-10	-1.620379e+01	-6.012907e+01
2.010000e-06	-2.126644e-06	-8.923627e-10	-1.606605e+01	-6.001583e+01
2.020000e-06	-2.108340e-06	-8.952134e-10	-1.592777e+01	-5.991145e+01
2.030000e-06	-2.089936e-06	-8.978082e-10	-1.578873e+01	-5.981406e+01
2.040000e-06	-2.071394e-06	-9.023883e-10	-1.564866e+01	-5.972174e+01
2.050000e-06	-2.052804e-06	-9.023267e-10	-1.550821e+01	-5.963262e+01
2.060000e-06	-2.034050e-06	-8.994278e-10	-1.536654e+01	-5.954488e+01
2.070000e-06	-2.015350e-06	-8.922450e-10	-1.522527e+01	-5.945681e+01
2.080000e-06	-1.996667e-06	-8.858723e-10	-1.508412e+01	-5.936681e+01
2.090000e-06	-1.977806e-06	-8.860420e-10	-1.494163e+01	-5.927342e+01
2.100000e-06	-1.958958e-06	-8.894823e-10	-1.479924e+01	-5.917530e+01
2.110000e-06	-1.940064e-06	-8.934607e-10	-1.465650e+01	-5.907123e+01
2.120000e-06	-1.920999e-06	-8.946796e-10	-1.451247e+01	-5.896012e+01
2.130000e-06	-1.901934e-06	-8.927140e-10	-1.436844e+01	-5.884094e+01
2.140000e-06	-1.882871e-06	-8.877460e-10	-1.422443e+01	-5.871276e+01
2.150000e-06	-1.863646e-06	-8.808744e-10	-1.407920e+01	-5.857466e+01
2.160000e-06	-1.844308e-06	-8.707821e-10	-1.393310e+01	-5.842575e+01
2.170000e-06	-1.824899e-06	-8.642307e-10	-1.378647e+01	-5.826512e+01
2.180000e-06	-1.805449e-06	-8.677487e-10	-1.363954e+01	-5.809186e+01
2.190000e-06	-1.785929e-06	-8.741046e-10	-1.349207e+01	-5.790502e+01
2.200000e-06	-1.766461e-06	-8.809052e-10	-1.334499e+01	-5.770359e+01
2.210000e-06	-1.747073e-06	-8.823133e-10	-1.319852e+01	-5.748659e+01
2.220000e-06	-1.727650e-06	-8.756663e-10	-1.305179e+01	-5.725298e+01
2.230000e-06	-1.708041e-06	-8.643146e-10	-1.290365e+01	-5.700178e+01
2.240000e-06	-1.688397e-06	-8.522806e-10	-1.275525e+01	-5.673202e+01
2.250000e-06	-1.668770e-06	-8.422351e-10	-1.260697e+01	-5.644285e+01
2.260000e-06	-1.649085e-06	-8.313233e-10	-1.245826e+01	-5.613352e+01
2.270000e-06	-1.629403e-06	-8.226332e-10	-1.230957e+01	-5.580348e+01
2.280000e-06	-1.609679e-06	-8.197874e-10	-1.216056e+01	-5.545237e+01
2.290000e-06	-1.589791e-06	-8.188568e-10	-1.201032e+01	-5.508010e+01
2.300000e-06	-1.569804e-06	-8.136767e-10	-1.185932e+01	-5.468683e+01
2.310000e-06	-1.549830e-06	-8.065301e-10	-1.170843e+01	-5.427306e+01
2.320000e-06	-1.529868e-06	-8.009170e-10	-1.155761e+01	-5.383957e+01
2.330000e-06	-1.509951e-06	-7.936868e-10	-1.140715e+01	-5.338750e+01
2.340000e-06	-1.490082e-06	-7.848330e-10	-1.125705e+01	-5.291827e+01
2.350000e-06	-1.470159e-06	-7.772346e-10	-1.110654e+01	-5.243360e+01
2.360000e-06	-1.450135e-06	-7.716332e-10	-1.095526e+01	-5.193548e+01
2.370000e-06	-1.430167e-06	-7.642728e-10	-1.080441e+01	-5.142611e+01
2.380000e-06	-1.410202e-06	-7.564692e-10	-1.065359e+01	-5.090785e+01
2.390000e-06	-1.390190e-06	-7.506365e-10	-1.050240e+01	-5.038318e+01
2.400000e-06	-1.370128e-06	-7.418174e-10	-1.035084e+01	-4.985466e+01
2.410000e-06	-1.350007e-06	-7.313589e-10	-1.019883e+01	-4.932480e+01
2.420000e-06	-1.329924e-06	-7.209291e-10	-1.004711e+01	-4.879608e+01
2.430000e-06	-1.309849e-06	-7.104936e-10	-9.895450e+00	-4.827088e+01
2.440000e-06	-1.289737e-06	-7.042294e-10	-9.743510e+00	-4.775138e+01
2.450000e-06	-1.269594e-06	-7.001259e-10	-9.591335e+00	-4.723959e+01
2.460000e-06	-1.249450e-06	-6.930970e-10	-9.439157e+00	-4.673730e+01
2.470000e-06	-1.229310e-06	-6.853755e-10	-9.287007e+00	-4.624602e+01
2.480000e-06	-1.209156e-06	-6.797858e-10	-9.134752e+00	-4.576704e+01
2.490000e-06	-1.188981e-06	-6.754239e-10	-8.982339e+00	-4.530138e+01
2.500000e-06	-1.168830e-06	-6.690461e-10	-8.830102e+00	-4.484981e+01
2.510000e-06	-1.148678e-06	-6.623445e-10	-8.677857e+00	-4.441291e+01
2.520000e-06	-1.128495e-06	-6.555913e-10	-8.525384e+00	-4.399103e+01
2.530000e-06	-1.108313e-06	-6.495862e-10	-8.372915e+00	-4.358436e+01
2.540000e-06	-1.088123e-06	-6.426619e-10	-8.220386e+00	-4.319297e+01
2.550000e-06	-1.067929e-06	-6.346549e-10	-8.067831e+00	-4.281679e+01
2.560000e-06	-1.047706e-06	-6.306640e-10	-7.915055e+00	-4.245569e+01
2.570000e-06	-1.027387e-06	-6.267593e-10	-7.761552e+00	-4.210949e+01
2.580000e-06	-1.007036e-06	-6.232144e-10	-7.607802e+00	-4.177795e+01
2.590000e-06	-9.867088e-07	-6.176730e-10	-7.454240e+00	-4.146080e+01
2.600000e-06	-9.664440e-07	-6.091282e-10	-7.301146e+00	-4.115776e+01
2.610000e-06	-9.462225e-07	-6.014984e-10	-7.148380e+00	-4.086850e+01
2.620000e-06	-9.259621e-07	-5.952059e-10	-6.995320e+00	-4.059265e+01
2.630000e-06	-9.057108e-07	-5.951063e-10	-6.842328e+00	-4.032978e+01
2.640000e-06	-8.853840e-07	-5.979060e-10	-6.688767e+00	-4.007938e+01
2.650000e-06	-8.649864e-07	-6.018209e-10	-6.534670e+00	-3.984081e+01
2.660000e-06	-8.446142e-07	-6.056213e-10	-6.380765e+00	-3.961333e+01
2.670000e-06	-8.242525e-07	-6.051987e-10	-6.226940e+00	-3.939600e+01
2.680000e-06	-8.039371e-07	-6.003734e-10	-6.073463e+00	-3.918773e+01
2.690000e-06	-7.836326e-07	-5.908363e-10	-5.920071e+00	-3.898721e+01
2.700000e-06	-7.632550e-07	-5.820697e-10	-5.766125e+00	-3.879293e+01
2.710000e-06	-7.428984e-07	-5.734900e-10	-5.612338e+00	-3.860318e+01
2.720000e-06	-7.224897e-07	-5.689393e-10	-5.458157e+00	-3.841602e+01
2.730000e-06	-7.019628e-07	-5.716234e-10	-5.303083e+00	-3.822937e+01
2.740000e-06	-6.814690e-07	-5.744430e-10	-5.148260e+00	-3.804095e+01
2.750000e-06	-6.610185e-07	-5.718598e-10	-4.993763e+00	-3.784839e+01
2.760000e-06	-6.405398e-07	-5.621187e-10	-4.839054e+00	-3.764921e+01
2.770000e-06	-6.200717e-07	-5.566240e-10	-4.684425e+00	-3.744093e+01
2.780000e-06	-5.995331e-07	-5.557391e-10	-4.529263e+00	-3.722107e+01
2.790000e-06	-5.789831e-07	-5.560373e-10	-4.374015e+00	-3.698723e+01
2.800000e-06	-5.584484e-07	-5.553052e-10	-4.218882e+00	-3.673714e+01
2.810000e-06	-5.378506e-07	-5.508250e-10	-4.063273e+00	-3.646872e+01
2.820000e-06	-5.172831e-07	-5.479899e-10	-3.907893e+00	-3.618012e+01
2.830000e-06	-4.966548e-07	-5.442839e-10	-3.752053e+00	-3.586975e+01
2.840000e-06	-4.760256e-07	-5.413701e-10	-3.596207e+00	-3.553635e+01
