# Temperatura_=_20.0
# Concentracion g/m^3_=_10000.0
# C_Vs_to_Am_M_A/Vsm_=_65563218390.804596
# pendiente_HvsI_1/m_=_3716.3
# ordenada_HvsI_A/m_=_1297.0
# frecuencia_Hz_=_212932.7172470864

Tiempo_(s)	Campo_(V.s)	Magnetizacion_(V.s)	Campo_(kA/m)	Magnetizacion_(A/m)
0.000000e+00	-3.285118e-06	-7.218197e-09	-2.356017e+01	-4.708958e+02
1.000000e-08	-3.284981e-06	-7.219607e-09	-2.355919e+01	-4.710553e+02
2.000000e-08	-3.284250e-06	-7.220587e-09	-2.355395e+01	-4.712096e+02
3.000000e-08	-3.282873e-06	-7.221988e-09	-2.354407e+01	-4.713498e+02
4.000000e-08	-3.280970e-06	-7.223743e-09	-2.353043e+01	-4.714531e+02
5.000000e-08	-3.278602e-06	-7.224537e-09	-2.351344e+01	-4.714920e+02
6.000000e-08	-3.275722e-06	-7.224496e-09	-2.349279e+01	-4.714450e+02
7.000000e-08	-3.272288e-06	-7.223914e-09	-2.346816e+01	-4.713064e+02
8.000000e-08	-3.268120e-06	-7.214239e-09	-2.343827e+01	-4.710895e+02
9.000000e-08	-3.263062e-06	-7.208735e-09	-2.340199e+01	-4.708236e+02
1.000000e-07	-3.257189e-06	-7.223494e-09	-2.335987e+01	-4.705443e+02
1.100000e-07	-3.250764e-06	-7.217566e-09	-2.331379e+01	-4.702814e+02
1.200000e-07	-3.243950e-06	-7.193142e-09	-2.326492e+01	-4.700480e+02
1.300000e-07	-3.236588e-06	-7.179527e-09	-2.321213e+01	-4.698364e+02
1.400000e-07	-3.228671e-06	-7.216872e-09	-2.315535e+01	-4.696191e+02
1.500000e-07	-3.220427e-06	-7.191500e-09	-2.309622e+01	-4.693586e+02
1.600000e-07	-3.211722e-06	-7.177885e-09	-2.303380e+01	-4.690185e+02
1.700000e-07	-3.202291e-06	-7.181609e-09	-2.296616e+01	-4.685741e+02
1.800000e-07	-3.192274e-06	-7.193588e-09	-2.289432e+01	-4.680189e+02
1.900000e-07	-3.181891e-06	-7.166557e-09	-2.281985e+01	-4.673633e+02
2.000000e-07	-3.170893e-06	-7.135950e-09	-2.274097e+01	-4.666283e+02
2.100000e-07	-3.159105e-06	-7.166253e-09	-2.265644e+01	-4.658360e+02
2.200000e-07	-3.146856e-06	-7.113716e-09	-2.256859e+01	-4.650013e+02
2.300000e-07	-3.134208e-06	-7.115477e-09	-2.247788e+01	-4.641267e+02
2.400000e-07	-3.120902e-06	-7.112852e-09	-2.238245e+01	-4.632044e+02
2.500000e-07	-3.106897e-06	-7.091284e-09	-2.228201e+01	-4.622212e+02
2.600000e-07	-3.092395e-06	-7.053398e-09	-2.217801e+01	-4.611670e+02
2.700000e-07	-3.077338e-06	-7.057249e-09	-2.207002e+01	-4.600406e+02
2.800000e-07	-3.061709e-06	-7.054351e-09	-2.195793e+01	-4.588519e+02
2.900000e-07	-3.045615e-06	-6.992765e-09	-2.184251e+01	-4.576187e+02
3.000000e-07	-3.028849e-06	-7.001928e-09	-2.172227e+01	-4.563599e+02
3.100000e-07	-3.011455e-06	-6.990089e-09	-2.159752e+01	-4.550876e+02
3.200000e-07	-2.993621e-06	-6.950996e-09	-2.146962e+01	-4.538016e+02
3.300000e-07	-2.975215e-06	-6.943799e-09	-2.133762e+01	-4.524886e+02
3.400000e-07	-2.956215e-06	-6.920637e-09	-2.120135e+01	-4.511270e+02
3.500000e-07	-2.936734e-06	-6.885193e-09	-2.106164e+01	-4.496945e+02
3.600000e-07	-2.916596e-06	-6.868244e-09	-2.091722e+01	-4.481769e+02
3.700000e-07	-2.895689e-06	-6.862945e-09	-2.076727e+01	-4.465735e+02
3.800000e-07	-2.874204e-06	-6.820057e-09	-2.061319e+01	-4.448979e+02
3.900000e-07	-2.852237e-06	-6.787369e-09	-2.045564e+01	-4.431729e+02
4.000000e-07	-2.829841e-06	-6.785571e-09	-2.029502e+01	-4.414226e+02
4.100000e-07	-2.806992e-06	-6.737344e-09	-2.013115e+01	-4.396637e+02
4.200000e-07	-2.783531e-06	-6.709520e-09	-1.996290e+01	-4.378996e+02
4.300000e-07	-2.759540e-06	-6.685632e-09	-1.979084e+01	-4.361202e+02
4.400000e-07	-2.735125e-06	-6.653345e-09	-1.961574e+01	-4.343054e+02
4.500000e-07	-2.710259e-06	-6.637383e-09	-1.943741e+01	-4.324334e+02
4.600000e-07	-2.684938e-06	-6.600365e-09	-1.925581e+01	-4.304879e+02
4.700000e-07	-2.659183e-06	-6.565668e-09	-1.907110e+01	-4.284635e+02
4.800000e-07	-2.632956e-06	-6.529999e-09	-1.888301e+01	-4.263661e+02
4.900000e-07	-2.606160e-06	-6.503466e-09	-1.869083e+01	-4.242094e+02
5.000000e-07	-2.578891e-06	-6.465732e-09	-1.849527e+01	-4.220086e+02
5.100000e-07	-2.551238e-06	-6.425581e-09	-1.829694e+01	-4.197741e+02
5.200000e-07	-2.523169e-06	-6.404699e-09	-1.809563e+01	-4.175080e+02
5.300000e-07	-2.494679e-06	-6.364419e-09	-1.789131e+01	-4.152048e+02
5.400000e-07	-2.465801e-06	-6.326620e-09	-1.768420e+01	-4.128548e+02
5.500000e-07	-2.436458e-06	-6.287146e-09	-1.747377e+01	-4.104497e+02
5.600000e-07	-2.406524e-06	-6.247128e-09	-1.725909e+01	-4.079870e+02
5.700000e-07	-2.376082e-06	-6.214182e-09	-1.704076e+01	-4.054714e+02
5.800000e-07	-2.345205e-06	-6.169999e-09	-1.681932e+01	-4.029125e+02
5.900000e-07	-2.313868e-06	-6.136151e-09	-1.659458e+01	-4.003203e+02
6.000000e-07	-2.282058e-06	-6.096370e-09	-1.636644e+01	-3.976991e+02
6.100000e-07	-2.249754e-06	-6.054240e-09	-1.613476e+01	-3.950444e+02
6.200000e-07	-2.217033e-06	-6.013016e-09	-1.590009e+01	-3.923427e+02
6.300000e-07	-2.183946e-06	-5.963464e-09	-1.566280e+01	-3.895761e+02
6.400000e-07	-2.150493e-06	-5.920516e-09	-1.542288e+01	-3.867282e+02
6.500000e-07	-2.116743e-06	-5.871556e-09	-1.518084e+01	-3.837907e+02
6.600000e-07	-2.082704e-06	-5.831280e-09	-1.493671e+01	-3.807673e+02
6.700000e-07	-2.048327e-06	-5.787567e-09	-1.469017e+01	-3.776731e+02
6.800000e-07	-2.013552e-06	-5.733854e-09	-1.444077e+01	-3.745296e+02
6.900000e-07	-1.978436e-06	-5.688372e-09	-1.418892e+01	-3.713574e+02
7.000000e-07	-1.943058e-06	-5.636840e-09	-1.393520e+01	-3.681690e+02
7.100000e-07	-1.907285e-06	-5.587746e-09	-1.367865e+01	-3.649640e+02
7.200000e-07	-1.871027e-06	-5.533879e-09	-1.341861e+01	-3.617291e+02
7.300000e-07	-1.834398e-06	-5.480967e-09	-1.315592e+01	-3.584430e+02
7.400000e-07	-1.797509e-06	-5.434517e-09	-1.289135e+01	-3.550830e+02
7.500000e-07	-1.760320e-06	-5.379825e-09	-1.262465e+01	-3.516325e+02
7.600000e-07	-1.722810e-06	-5.327530e-09	-1.235563e+01	-3.480857e+02
7.700000e-07	-1.685027e-06	-5.270213e-09	-1.208466e+01	-3.444477e+02
7.800000e-07	-1.646964e-06	-5.213873e-09	-1.181168e+01	-3.407313e+02
7.900000e-07	-1.608657e-06	-5.156984e-09	-1.153695e+01	-3.369509e+02
8.000000e-07	-1.570115e-06	-5.093577e-09	-1.126053e+01	-3.331165e+02
8.100000e-07	-1.531246e-06	-5.033983e-09	-1.098178e+01	-3.292304e+02
8.200000e-07	-1.491995e-06	-4.969599e-09	-1.070027e+01	-3.252869e+02
8.300000e-07	-1.452384e-06	-4.909591e-09	-1.041619e+01	-3.212757e+02
8.400000e-07	-1.412529e-06	-4.848939e-09	-1.013036e+01	-3.171874e+02
8.500000e-07	-1.372517e-06	-4.784587e-09	-9.843407e+00	-3.130177e+02
8.600000e-07	-1.332341e-06	-4.724171e-09	-9.555268e+00	-3.087694e+02
8.700000e-07	-1.291937e-06	-4.658698e-09	-9.265504e+00	-3.044516e+02
8.800000e-07	-1.251308e-06	-4.593265e-09	-8.974117e+00	-3.000754e+02
8.900000e-07	-1.210481e-06	-4.521424e-09	-8.681315e+00	-2.956488e+02
9.000000e-07	-1.169441e-06	-4.446529e-09	-8.386987e+00	-2.911726e+02
9.100000e-07	-1.128193e-06	-4.376748e-09	-8.091161e+00	-2.866396e+02
9.200000e-07	-1.086766e-06	-4.306324e-09	-7.794058e+00	-2.820362e+02
9.300000e-07	-1.045198e-06	-4.239196e-09	-7.495942e+00	-2.773474e+02
9.400000e-07	-1.003503e-06	-4.167947e-09	-7.196913e+00	-2.725621e+02
9.500000e-07	-9.616571e-07	-4.094765e-09	-6.896802e+00	-2.676764e+02
9.600000e-07	-9.195955e-07	-4.019100e-09	-6.595145e+00	-2.626956e+02
9.700000e-07	-8.772613e-07	-3.936304e-09	-6.291533e+00	-2.576306e+02
9.800000e-07	-8.346909e-07	-3.854262e-09	-5.986227e+00	-2.524939e+02
9.900000e-07	-7.919099e-07	-3.771247e-09	-5.679411e+00	-2.472941e+02
1.000000e-06	-7.489266e-07	-3.692273e-09	-5.371144e+00	-2.420324e+02
1.010000e-06	-7.058282e-07	-3.612384e-09	-5.062051e+00	-2.367014e+02
1.020000e-06	-6.626720e-07	-3.529098e-09	-4.752544e+00	-2.312883e+02
1.030000e-06	-6.194375e-07	-3.446312e-09	-4.442475e+00	-2.257787e+02
1.040000e-06	-5.761014e-07	-3.358597e-09	-4.131678e+00	-2.201623e+02
1.050000e-06	-5.326514e-07	-3.271237e-09	-3.820064e+00	-2.144359e+02
1.060000e-06	-4.890990e-07	-3.181820e-09	-3.507715e+00	-2.086043e+02
1.070000e-06	-4.454574e-07	-3.090249e-09	-3.194727e+00	-2.026779e+02
1.080000e-06	-4.017461e-07	-2.996139e-09	-2.881238e+00	-1.966684e+02
1.090000e-06	-3.579715e-07	-2.900048e-09	-2.567296e+00	-1.905846e+02
1.100000e-06	-3.141366e-07	-2.808862e-09	-2.252921e+00	-1.844287e+02
1.110000e-06	-2.702524e-07	-2.712776e-09	-1.938193e+00	-1.781962e+02
1.120000e-06	-2.263330e-07	-2.612366e-09	-1.623213e+00	-1.718780e+02
1.130000e-06	-1.823773e-07	-2.512616e-09	-1.307972e+00	-1.654633e+02
1.140000e-06	-1.383929e-07	-2.413454e-09	-9.925244e-01	-1.589443e+02
1.150000e-06	-9.439791e-08	-2.316451e-09	-6.770019e-01	-1.523185e+02
1.160000e-06	-5.039296e-08	-2.213012e-09	-3.614077e-01	-1.455891e+02
1.170000e-06	-6.385116e-09	-2.106180e-09	-4.579271e-02	-1.387637e+02
1.180000e-06	3.762453e-08	-1.999546e-09	2.698352e-01	-1.318509e+02
1.190000e-06	8.162496e-08	-1.891372e-09	5.853970e-01	-1.248570e+02
1.200000e-06	1.256006e-07	-1.781268e-09	9.007814e-01	-1.177840e+02
1.210000e-06	1.695348e-07	-1.666737e-09	1.215868e+00	-1.106291e+02
1.220000e-06	2.134298e-07	-1.554665e-09	1.530674e+00	-1.033853e+02
1.230000e-06	2.572871e-07	-1.443667e-09	1.845209e+00	-9.604424e+01
1.240000e-06	3.010947e-07	-1.330297e-09	2.159388e+00	-8.859832e+01
1.250000e-06	3.448351e-07	-1.212601e-09	2.473085e+00	-8.104272e+01
1.260000e-06	3.884961e-07	-1.090440e-09	2.786212e+00	-7.337614e+01
1.270000e-06	4.320701e-07	-9.703271e-10	3.098716e+00	-6.560051e+01
1.280000e-06	4.755492e-07	-8.491359e-10	3.410539e+00	-5.771996e+01
1.290000e-06	5.189592e-07	-7.228378e-10	3.721866e+00	-4.973966e+01
1.300000e-06	5.623121e-07	-5.937872e-10	4.032784e+00	-4.166487e+01
1.310000e-06	6.055944e-07	-4.687469e-10	4.343195e+00	-3.350044e+01
1.320000e-06	6.488095e-07	-3.475370e-10	4.653125e+00	-2.525061e+01
1.330000e-06	6.919586e-07	-2.213958e-10	4.962581e+00	-1.691896e+01
1.340000e-06	7.350470e-07	-9.219994e-11	5.271602e+00	-8.508351e+00
1.350000e-06	7.780283e-07	3.913899e-11	5.579856e+00	-2.077974e-02
1.360000e-06	8.208464e-07	1.727133e-10	5.886938e+00	8.542648e+00
1.370000e-06	8.634828e-07	3.080864e-10	6.192717e+00	1.718140e+01
1.380000e-06	9.058774e-07	4.459484e-10	6.496762e+00	2.589479e+01
1.390000e-06	9.479782e-07	5.815352e-10	6.798700e+00	3.468087e+01
1.400000e-06	9.898324e-07	7.160938e-10	7.098870e+00	4.353539e+01
1.410000e-06	1.031521e-06	8.502791e-10	7.397854e+00	5.245114e+01
1.420000e-06	1.073086e-06	9.861918e-10	7.695949e+00	6.141809e+01
1.430000e-06	1.114523e-06	1.125181e-09	7.993122e+00	7.042441e+01
1.440000e-06	1.155791e-06	1.263472e-09	8.289091e+00	7.945797e+01
1.450000e-06	1.196856e-06	1.402589e-09	8.583598e+00	8.850789e+01
1.460000e-06	1.237697e-06	1.543953e-09	8.876505e+00	9.756546e+01
1.470000e-06	1.278338e-06	1.686463e-09	9.167972e+00	1.066240e+02
1.480000e-06	1.318751e-06	1.826918e-09	9.457802e+00	1.156777e+02
1.490000e-06	1.358920e-06	1.963319e-09	9.745890e+00	1.247201e+02
1.500000e-06	1.398937e-06	2.100792e-09	1.003288e+01	1.337424e+02
1.510000e-06	1.438790e-06	2.240047e-09	1.031870e+01	1.427327e+02
1.520000e-06	1.478334e-06	2.378121e-09	1.060230e+01	1.516768e+02
1.530000e-06	1.517452e-06	2.513235e-09	1.088285e+01	1.605596e+02
1.540000e-06	1.556176e-06	2.646362e-09	1.116057e+01	1.693667e+02
1.550000e-06	1.594635e-06	2.780379e-09	1.143639e+01	1.780863e+02
1.560000e-06	1.632843e-06	2.911076e-09	1.171041e+01	1.867097e+02
1.570000e-06	1.670755e-06	3.040139e-09	1.198231e+01	1.952298e+02
1.580000e-06	1.708389e-06	3.169359e-09	1.225221e+01	2.036398e+02
1.590000e-06	1.745754e-06	3.297119e-09	1.252018e+01	2.119314e+02
1.600000e-06	1.782830e-06	3.422782e-09	1.278608e+01	2.200934e+02
1.610000e-06	1.819663e-06	3.543365e-09	1.305024e+01	2.281127e+02
1.620000e-06	1.856254e-06	3.662457e-09	1.331266e+01	2.359760e+02
1.630000e-06	1.892414e-06	3.779855e-09	1.357200e+01	2.436728e+02
1.640000e-06	1.928050e-06	3.893159e-09	1.382757e+01	2.511980e+02
1.650000e-06	1.963312e-06	4.003569e-09	1.408046e+01	2.585529e+02
1.660000e-06	1.998303e-06	4.111942e-09	1.433141e+01	2.657444e+02
1.670000e-06	2.032968e-06	4.218983e-09	1.458002e+01	2.727823e+02
1.680000e-06	2.067290e-06	4.322543e-09	1.482617e+01	2.796751e+02
1.690000e-06	2.101265e-06	4.422495e-09	1.506983e+01	2.864271e+02
1.700000e-06	2.134940e-06	4.520940e-09	1.531134e+01	2.930366e+02
1.710000e-06	2.168325e-06	4.619458e-09	1.555077e+01	2.994966e+02
1.720000e-06	2.201308e-06	4.716574e-09	1.578732e+01	3.057981e+02
1.730000e-06	2.233848e-06	4.808407e-09	1.602069e+01	3.119339e+02
1.740000e-06	2.266001e-06	4.897333e-09	1.625129e+01	3.179019e+02
1.750000e-06	2.297756e-06	4.984780e-09	1.647902e+01	3.237074e+02
1.760000e-06	2.329085e-06	5.069585e-09	1.670370e+01	3.293615e+02
1.770000e-06	2.360018e-06	5.151210e-09	1.692555e+01	3.348781e+02
1.780000e-06	2.390581e-06	5.230887e-09	1.714474e+01	3.402695e+02
1.790000e-06	2.420737e-06	5.310982e-09	1.736102e+01	3.455431e+02
1.800000e-06	2.450327e-06	5.391440e-09	1.757323e+01	3.506993e+02
1.810000e-06	2.479353e-06	5.469803e-09	1.778140e+01	3.557325e+02
1.820000e-06	2.507964e-06	5.542565e-09	1.798659e+01	3.606345e+02
1.830000e-06	2.536171e-06	5.613102e-09	1.818889e+01	3.653977e+02
1.840000e-06	2.563942e-06	5.682871e-09	1.838805e+01	3.700189e+02
1.850000e-06	2.591314e-06	5.748409e-09	1.858436e+01	3.744998e+02
1.860000e-06	2.618287e-06	5.810396e-09	1.877781e+01	3.788466e+02
1.870000e-06	2.644717e-06	5.871335e-09	1.896735e+01	3.830660e+02
1.880000e-06	2.670584e-06	5.932305e-09	1.915286e+01	3.871630e+02
1.890000e-06	2.696011e-06	5.992314e-09	1.933523e+01	3.911381e+02
1.900000e-06	2.721006e-06	6.050924e-09	1.951448e+01	3.949875e+02
1.910000e-06	2.745523e-06	6.106999e-09	1.969031e+01	3.987056e+02
1.920000e-06	2.769622e-06	6.160602e-09	1.986314e+01	4.022887e+02
1.930000e-06	2.793283e-06	6.210708e-09	2.003284e+01	4.057376e+02
1.940000e-06	2.816359e-06	6.256800e-09	2.019833e+01	4.090596e+02
1.950000e-06	2.838862e-06	6.301063e-09	2.035972e+01	4.122670e+02
1.960000e-06	2.860864e-06	6.346087e-09	2.051752e+01	4.153737e+02
1.970000e-06	2.882378e-06	6.390075e-09	2.067181e+01	4.183909e+02
1.980000e-06	2.903376e-06	6.431721e-09	2.082240e+01	4.213232e+02
1.990000e-06	2.923715e-06	6.473126e-09	2.096827e+01	4.241679e+02
2.000000e-06	2.943381e-06	6.514222e-09	2.110931e+01	4.269166e+02
2.010000e-06	2.962512e-06	6.553171e-09	2.124651e+01	4.295598e+02
2.020000e-06	2.981138e-06	6.587854e-09	2.138009e+01	4.320909e+02
2.030000e-06	2.999239e-06	6.621066e-09	2.150991e+01	4.345107e+02
2.040000e-06	3.016895e-06	6.653541e-09	2.163654e+01	4.368273e+02
2.050000e-06	3.034071e-06	6.684430e-09	2.175972e+01	4.390537e+02
2.060000e-06	3.050619e-06	6.715724e-09	2.187840e+01	4.412030e+02
2.070000e-06	3.066612e-06	6.746397e-09	2.199310e+01	4.432833e+02
2.080000e-06	3.082112e-06	6.775037e-09	2.210426e+01	4.452944e+02
2.090000e-06	3.097086e-06	6.803169e-09	2.221165e+01	4.472280e+02
2.100000e-06	3.111599e-06	6.830065e-09	2.231573e+01	4.490714e+02
2.110000e-06	3.125591e-06	6.854953e-09	2.241608e+01	4.508132e+02
2.120000e-06	3.138931e-06	6.877897e-09	2.251175e+01	4.524487e+02
2.130000e-06	3.151696e-06	6.898686e-09	2.260330e+01	4.539828e+02
2.140000e-06	3.163967e-06	6.919488e-09	2.269131e+01	4.554295e+02
2.150000e-06	3.175732e-06	6.940018e-09	2.277568e+01	4.568066e+02
2.160000e-06	3.187002e-06	6.958696e-09	2.285651e+01	4.581297e+02
2.170000e-06	3.197689e-06	6.977194e-09	2.293316e+01	4.594059e+02
2.180000e-06	3.207723e-06	6.995670e-09	2.300511e+01	4.606313e+02
2.190000e-06	3.217162e-06	7.013359e-09	2.307281e+01	4.617927e+02
2.200000e-06	3.226061e-06	7.030468e-09	2.313663e+01	4.628736e+02
2.210000e-06	3.234432e-06	7.045601e-09	2.319667e+01	4.638612e+02
2.220000e-06	3.242320e-06	7.056997e-09	2.325324e+01	4.647531e+02
2.230000e-06	3.249653e-06	7.065580e-09	2.330582e+01	4.655599e+02
2.240000e-06	3.256362e-06	7.074526e-09	2.335394e+01	4.663020e+02
2.250000e-06	3.262467e-06	7.084961e-09	2.339773e+01	4.670032e+02
2.260000e-06	3.267958e-06	7.095219e-09	2.343711e+01	4.676817e+02
2.270000e-06	3.272857e-06	7.106454e-09	2.347224e+01	4.683437e+02
2.280000e-06	3.277085e-06	7.120253e-09	2.350257e+01	4.689802e+02
2.290000e-06	3.280625e-06	7.133367e-09	2.352795e+01	4.695711e+02
2.300000e-06	3.283579e-06	7.141866e-09	2.354914e+01	4.700922e+02
2.310000e-06	3.285974e-06	7.144399e-09	2.356631e+01	4.705256e+02
2.320000e-06	3.287840e-06	7.144562e-09	2.357970e+01	4.708664e+02
2.330000e-06	3.289193e-06	7.147201e-09	2.358940e+01	4.711257e+02
2.340000e-06	3.289888e-06	7.151918e-09	2.359438e+01	4.713269e+02
2.350000e-06	3.289946e-06	7.155049e-09	2.359480e+01	4.714968e+02
2.360000e-06	3.289495e-06	7.159886e-09	2.359157e+01	4.716557e+02
2.370000e-06	3.288503e-06	7.166647e-09	2.358445e+01	4.718090e+02
2.380000e-06	3.287022e-06	7.169318e-09	2.357383e+01	4.719456e+02
2.390000e-06	3.285007e-06	7.168304e-09	2.355938e+01	4.720412e+02
2.400000e-06	3.282326e-06	7.164097e-09	2.354015e+01	4.720684e+02
2.410000e-06	3.279092e-06	7.159948e-09	2.351696e+01	4.720078e+02
2.420000e-06	3.275383e-06	7.165287e-09	2.349035e+01	4.718563e+02
2.430000e-06	3.271072e-06	7.171825e-09	2.345944e+01	4.716302e+02
2.440000e-06	3.265822e-06	7.142042e-09	2.342179e+01	4.713602e+02
2.450000e-06	3.259565e-06	7.139344e-09	2.337692e+01	4.710820e+02
2.460000e-06	3.252986e-06	7.160192e-09	2.332973e+01	4.708234e+02
2.470000e-06	3.246382e-06	7.162668e-09	2.328237e+01	4.705946e+02
2.480000e-06	3.239158e-06	7.118575e-09	2.323056e+01	4.703844e+02
2.490000e-06	3.230974e-06	7.126575e-09	2.317187e+01	4.701633e+02
2.500000e-06	3.222416e-06	7.157510e-09	2.311049e+01	4.698933e+02
2.510000e-06	3.213707e-06	7.136421e-09	2.304803e+01	4.695388e+02
2.520000e-06	3.204128e-06	7.084178e-09	2.297933e+01	4.690780e+02
2.530000e-06	3.193663e-06	7.104485e-09	2.290428e+01	4.685069e+02
2.540000e-06	3.182935e-06	7.123424e-09	2.282734e+01	4.678381e+02
2.550000e-06	3.171785e-06	7.070648e-09	2.274737e+01	4.670935e+02
2.560000e-06	3.159752e-06	7.066874e-09	2.266108e+01	4.662944e+02
2.570000e-06	3.147126e-06	7.077237e-09	2.257053e+01	4.654540e+02
2.580000e-06	3.134141e-06	7.050507e-09	2.247740e+01	4.645732e+02
2.590000e-06	3.120507e-06	7.013325e-09	2.237962e+01	4.636428e+02
2.600000e-06	3.106321e-06	7.041509e-09	2.227788e+01	4.626497e+02
2.610000e-06	3.091787e-06	7.000532e-09	2.217365e+01	4.615847e+02
2.620000e-06	3.076582e-06	6.963216e-09	2.206460e+01	4.604483e+02
2.630000e-06	3.060721e-06	6.983876e-09	2.195085e+01	4.592518e+02
2.640000e-06	3.044426e-06	6.957050e-09	2.183399e+01	4.580139e+02
2.650000e-06	3.027524e-06	6.919275e-09	2.171276e+01	4.567528e+02
2.660000e-06	3.010064e-06	6.910734e-09	2.158754e+01	4.554790e+02
2.670000e-06	2.992232e-06	6.895189e-09	2.145966e+01	4.541902e+02
2.680000e-06	2.973814e-06	6.855067e-09	2.132757e+01	4.528717e+02
2.690000e-06	2.954679e-06	6.858871e-09	2.119034e+01	4.515009e+02
2.700000e-06	2.935048e-06	6.838359e-09	2.104955e+01	4.500565e+02
2.710000e-06	2.914921e-06	6.776748e-09	2.090520e+01	4.485259e+02
2.720000e-06	2.894209e-06	6.792177e-09	2.075666e+01	4.469107e+02
2.730000e-06	2.872853e-06	6.765636e-09	2.060350e+01	4.452263e+02
2.740000e-06	2.850842e-06	6.711789e-09	2.044564e+01	4.434963e+02
2.750000e-06	2.828376e-06	6.704045e-09	2.028452e+01	4.417442e+02
2.760000e-06	2.805470e-06	6.678387e-09	2.012024e+01	4.399848e+02
2.770000e-06	2.782028e-06	6.649738e-09	1.995212e+01	4.382196e+02
2.780000e-06	2.758177e-06	6.619437e-09	1.978107e+01	4.364365e+02
2.790000e-06	2.733885e-06	6.592013e-09	1.960685e+01	4.346147e+02
2.800000e-06	2.708958e-06	6.565776e-09	1.942808e+01	4.327327e+02
2.810000e-06	2.683511e-06	6.545473e-09	1.924558e+01	4.307756e+02
2.820000e-06	2.657656e-06	6.508748e-09	1.906015e+01	4.287398e+02
2.830000e-06	2.631308e-06	6.464885e-09	1.887119e+01	4.266328e+02
2.840000e-06	2.604533e-06	6.452995e-09	1.867916e+01	4.244688e+02
2.850000e-06	2.577383e-06	6.413312e-09	1.848445e+01	4.222627e+02
2.860000e-06	2.549694e-06	6.370868e-09	1.828587e+01	4.200237e+02
2.870000e-06	2.521424e-06	6.342456e-09	1.808312e+01	4.177528e+02
2.880000e-06	2.492725e-06	6.304271e-09	1.787730e+01	4.154434e+02
2.890000e-06	2.463645e-06	6.279517e-09	1.766874e+01	4.130858e+02
2.900000e-06	2.434162e-06	6.232624e-09	1.745730e+01	4.106722e+02
2.910000e-06	2.404263e-06	6.195855e-09	1.724287e+01	4.082013e+02
2.920000e-06	2.373904e-06	6.163621e-09	1.702514e+01	4.056787e+02
2.930000e-06	2.342988e-06	6.115518e-09	1.680341e+01	4.031146e+02
2.940000e-06	2.311514e-06	6.082410e-09	1.657769e+01	4.005181e+02
