# Temperatura_=_20.0
# Concentracion g/m^3_=_10000.0
# C_Vs_to_Am_M_A/Vsm_=_65563218390.804596
# pendiente_HvsI_1/m_=_3716.3
# ordenada_HvsI_A/m_=_1297.0
# frecuencia_Hz_=_212937.93573026435

Tiempo_(s)	Campo_(V.s)	Magnetizacion_(V.s)	Campo_(kA/m)	Magnetizacion_(A/m)
0.000000e+00	-3.133865e-06	-4.328175e-09	-2.356045e+01	-2.818165e+02
1.000000e-08	-3.133774e-06	-4.331830e-09	-2.355976e+01	-2.819219e+02
2.000000e-08	-3.133116e-06	-4.334642e-09	-2.355482e+01	-2.820402e+02
3.000000e-08	-3.131858e-06	-4.336468e-09	-2.354536e+01	-2.821603e+02
4.000000e-08	-3.130103e-06	-4.339891e-09	-2.353216e+01	-2.822592e+02
5.000000e-08	-3.127862e-06	-4.340373e-09	-2.351532e+01	-2.823101e+02
6.000000e-08	-3.125132e-06	-4.337701e-09	-2.349480e+01	-2.822919e+02
7.000000e-08	-3.121874e-06	-4.341410e-09	-2.347030e+01	-2.821984e+02
8.000000e-08	-3.117932e-06	-4.346858e-09	-2.344066e+01	-2.820417e+02
9.000000e-08	-3.113187e-06	-4.288287e-09	-2.340499e+01	-2.818508e+02
1.000000e-07	-3.107686e-06	-4.242732e-09	-2.336364e+01	-2.816628e+02
1.100000e-07	-3.101656e-06	-4.368689e-09	-2.331830e+01	-2.815127e+02
1.200000e-07	-3.095209e-06	-4.372081e-09	-2.326983e+01	-2.814223e+02
1.300000e-07	-3.088211e-06	-4.294374e-09	-2.321722e+01	-2.813932e+02
1.400000e-07	-3.080683e-06	-4.238420e-09	-2.316063e+01	-2.814069e+02
1.500000e-07	-3.072821e-06	-4.369015e-09	-2.310152e+01	-2.814296e+02
1.600000e-07	-3.064505e-06	-4.362302e-09	-2.303900e+01	-2.814218e+02
1.700000e-07	-3.055552e-06	-4.230907e-09	-2.297169e+01	-2.813486e+02
1.800000e-07	-3.046079e-06	-4.341288e-09	-2.290048e+01	-2.811870e+02
1.900000e-07	-3.036211e-06	-4.363079e-09	-2.282629e+01	-2.809293e+02
2.000000e-07	-3.025739e-06	-4.313005e-09	-2.274756e+01	-2.805812e+02
2.100000e-07	-3.014575e-06	-4.259332e-09	-2.266363e+01	-2.801563e+02
2.200000e-07	-3.002968e-06	-4.386890e-09	-2.257636e+01	-2.796701e+02
2.300000e-07	-2.990883e-06	-4.307288e-09	-2.248551e+01	-2.791350e+02
2.400000e-07	-2.978163e-06	-4.203108e-09	-2.238988e+01	-2.785584e+02
2.500000e-07	-2.964855e-06	-4.344179e-09	-2.228983e+01	-2.779443e+02
2.600000e-07	-2.951043e-06	-4.310169e-09	-2.218599e+01	-2.772957e+02
2.700000e-07	-2.936703e-06	-4.224567e-09	-2.207818e+01	-2.766171e+02
2.800000e-07	-2.921862e-06	-4.232045e-09	-2.196661e+01	-2.759156e+02
2.900000e-07	-2.906542e-06	-4.279921e-09	-2.185143e+01	-2.751987e+02
3.000000e-07	-2.890607e-06	-4.231441e-09	-2.173164e+01	-2.744710e+02
3.100000e-07	-2.874104e-06	-4.191922e-09	-2.160756e+01	-2.737312e+02
3.200000e-07	-2.857156e-06	-4.219015e-09	-2.148015e+01	-2.729706e+02
3.300000e-07	-2.839657e-06	-4.175113e-09	-2.134859e+01	-2.721749e+02
3.400000e-07	-2.821617e-06	-4.200344e-09	-2.121296e+01	-2.713290e+02
3.500000e-07	-2.803062e-06	-4.182461e-09	-2.107346e+01	-2.704228e+02
3.600000e-07	-2.783875e-06	-4.117689e-09	-2.092922e+01	-2.694561e+02
3.700000e-07	-2.764021e-06	-4.144203e-09	-2.077996e+01	-2.684396e+02
3.800000e-07	-2.743607e-06	-4.118363e-09	-2.062649e+01	-2.673928e+02
3.900000e-07	-2.722740e-06	-4.101969e-09	-2.046961e+01	-2.663370e+02
4.000000e-07	-2.701434e-06	-4.086727e-09	-2.030943e+01	-2.652881e+02
4.100000e-07	-2.679642e-06	-4.059109e-09	-2.014559e+01	-2.642510e+02
4.200000e-07	-2.657305e-06	-4.044395e-09	-1.997766e+01	-2.632170e+02
4.300000e-07	-2.634494e-06	-4.042981e-09	-1.980617e+01	-2.621672e+02
4.400000e-07	-2.611253e-06	-4.040513e-09	-1.963144e+01	-2.610791e+02
4.500000e-07	-2.587549e-06	-3.974137e-09	-1.945324e+01	-2.599350e+02
4.600000e-07	-2.563432e-06	-3.984258e-09	-1.927193e+01	-2.587279e+02
4.700000e-07	-2.538917e-06	-3.974485e-09	-1.908762e+01	-2.574643e+02
4.800000e-07	-2.513883e-06	-3.922276e-09	-1.889942e+01	-2.561604e+02
4.900000e-07	-2.488322e-06	-3.923064e-09	-1.870725e+01	-2.548359e+02
5.000000e-07	-2.462351e-06	-3.884974e-09	-1.851199e+01	-2.535056e+02
5.100000e-07	-2.436012e-06	-3.871780e-09	-1.831398e+01	-2.521737e+02
5.200000e-07	-2.409254e-06	-3.865742e-09	-1.811281e+01	-2.508325e+02
5.300000e-07	-2.382095e-06	-3.841710e-09	-1.790863e+01	-2.494659e+02
5.400000e-07	-2.354588e-06	-3.808113e-09	-1.770183e+01	-2.480574e+02
5.500000e-07	-2.326597e-06	-3.771225e-09	-1.749140e+01	-2.465971e+02
5.600000e-07	-2.298058e-06	-3.772725e-09	-1.727684e+01	-2.450874e+02
5.700000e-07	-2.269047e-06	-3.737204e-09	-1.705873e+01	-2.435422e+02
5.800000e-07	-2.239633e-06	-3.702763e-09	-1.683760e+01	-2.419818e+02
5.900000e-07	-2.209797e-06	-3.685458e-09	-1.661329e+01	-2.404242e+02
6.000000e-07	-2.179496e-06	-3.667125e-09	-1.638549e+01	-2.388767e+02
6.100000e-07	-2.148754e-06	-3.659522e-09	-1.615437e+01	-2.373309e+02
6.200000e-07	-2.117594e-06	-3.609869e-09	-1.592011e+01	-2.357644e+02
6.300000e-07	-2.086041e-06	-3.585301e-09	-1.568289e+01	-2.341478e+02
6.400000e-07	-2.054165e-06	-3.568840e-09	-1.544325e+01	-2.324550e+02
6.500000e-07	-2.022005e-06	-3.535994e-09	-1.520146e+01	-2.306730e+02
6.600000e-07	-1.989528e-06	-3.510195e-09	-1.495731e+01	-2.288077e+02
6.700000e-07	-1.956712e-06	-3.466939e-09	-1.471059e+01	-2.268820e+02
6.800000e-07	-1.923544e-06	-3.446090e-09	-1.446124e+01	-2.249283e+02
6.900000e-07	-1.890085e-06	-3.416853e-09	-1.420969e+01	-2.229768e+02
7.000000e-07	-1.856337e-06	-3.387794e-09	-1.395597e+01	-2.210451e+02
7.100000e-07	-1.822180e-06	-3.359440e-09	-1.369918e+01	-2.191314e+02
7.200000e-07	-1.787580e-06	-3.315941e-09	-1.343906e+01	-2.172155e+02
7.300000e-07	-1.752622e-06	-3.296488e-09	-1.317624e+01	-2.152668e+02
7.400000e-07	-1.717382e-06	-3.263074e-09	-1.291131e+01	-2.132551e+02
7.500000e-07	-1.681881e-06	-3.226284e-09	-1.264441e+01	-2.111620e+02
7.600000e-07	-1.646117e-06	-3.189183e-09	-1.237554e+01	-2.089871e+02
7.700000e-07	-1.610074e-06	-3.152186e-09	-1.210456e+01	-2.067473e+02
7.800000e-07	-1.573769e-06	-3.132158e-09	-1.183162e+01	-2.044695e+02
7.900000e-07	-1.537243e-06	-3.090805e-09	-1.155702e+01	-2.021798e+02
8.000000e-07	-1.500481e-06	-3.053420e-09	-1.128064e+01	-1.998934e+02
8.100000e-07	-1.463397e-06	-3.018108e-09	-1.100184e+01	-1.976084e+02
8.200000e-07	-1.425968e-06	-2.983316e-09	-1.072045e+01	-1.953072e+02
8.300000e-07	-1.388250e-06	-2.951687e-09	-1.043689e+01	-1.929639e+02
8.400000e-07	-1.350304e-06	-2.902538e-09	-1.015161e+01	-1.905544e+02
8.500000e-07	-1.312180e-06	-2.867445e-09	-9.864991e+00	-1.880662e+02
8.600000e-07	-1.273852e-06	-2.831372e-09	-9.576842e+00	-1.855030e+02
8.700000e-07	-1.235307e-06	-2.794443e-09	-9.287061e+00	-1.828831e+02
8.800000e-07	-1.196556e-06	-2.755620e-09	-8.995729e+00	-1.802315e+02
8.900000e-07	-1.157601e-06	-2.705381e-09	-8.702862e+00	-1.775696e+02
9.000000e-07	-1.118431e-06	-2.667560e-09	-8.408384e+00	-1.749067e+02
9.100000e-07	-1.079057e-06	-2.624343e-09	-8.112371e+00	-1.722359e+02
9.200000e-07	-1.039553e-06	-2.582611e-09	-7.815378e+00	-1.695368e+02
9.300000e-07	-9.999475e-07	-2.538216e-09	-7.517622e+00	-1.667838e+02
9.400000e-07	-9.601948e-07	-2.492467e-09	-7.218761e+00	-1.639561e+02
9.500000e-07	-9.202639e-07	-2.457235e-09	-6.918559e+00	-1.610458e+02
9.600000e-07	-8.801301e-07	-2.409572e-09	-6.616833e+00	-1.580603e+02
9.700000e-07	-8.397610e-07	-2.360959e-09	-6.313338e+00	-1.550191e+02
9.800000e-07	-7.991586e-07	-2.308424e-09	-6.008088e+00	-1.519448e+02
9.900000e-07	-7.583564e-07	-2.260145e-09	-5.701336e+00	-1.488533e+02
1.000000e-06	-7.173964e-07	-2.219563e-09	-5.393398e+00	-1.457464e+02
1.010000e-06	-6.763136e-07	-2.167134e-09	-5.084537e+00	-1.426102e+02
1.020000e-06	-6.351289e-07	-2.119214e-09	-4.774910e+00	-1.394201e+02
1.030000e-06	-5.938575e-07	-2.069463e-09	-4.464630e+00	-1.361507e+02
1.040000e-06	-5.525057e-07	-2.020246e-09	-4.153747e+00	-1.327855e+02
1.050000e-06	-5.110480e-07	-1.968045e-09	-3.842067e+00	-1.293243e+02
1.060000e-06	-4.694897e-07	-1.906272e-09	-3.529632e+00	-1.257833e+02
1.070000e-06	-4.278641e-07	-1.854036e-09	-3.216690e+00	-1.221896e+02
1.080000e-06	-3.861679e-07	-1.798639e-09	-2.903217e+00	-1.185701e+02
1.090000e-06	-3.443951e-07	-1.743583e-09	-2.589168e+00	-1.149409e+02
1.100000e-06	-3.025578e-07	-1.687186e-09	-2.274635e+00	-1.113005e+02
1.110000e-06	-2.606973e-07	-1.627938e-09	-1.959926e+00	-1.076298e+02
1.120000e-06	-2.188093e-07	-1.574185e-09	-1.645012e+00	-1.038990e+02
1.130000e-06	-1.768762e-07	-1.514226e-09	-1.329759e+00	-1.000791e+02
1.140000e-06	-1.349267e-07	-1.454112e-09	-1.014381e+00	-9.615337e+01
1.150000e-06	-9.295420e-08	-1.390698e-09	-6.988313e-01	-9.212412e+01
1.160000e-06	-5.094716e-08	-1.327409e-09	-3.830216e-01	-8.801292e+01
1.170000e-06	-8.937663e-09	-1.265286e-09	-6.719350e-02	-8.385283e+01
1.180000e-06	3.305494e-08	-1.198074e-09	2.485076e-01	-7.967630e+01
1.190000e-06	7.501863e-08	-1.136462e-09	5.639913e-01	-7.550302e+01
1.200000e-06	1.169445e-07	-1.072884e-09	8.791904e-01	-7.133219e+01
1.210000e-06	1.588423e-07	-1.009930e-09	1.194179e+00	-6.714233e+01
1.220000e-06	2.007291e-07	-9.449022e-10	1.509084e+00	-6.289869e+01
1.230000e-06	2.425913e-07	-8.723268e-10	1.823806e+00	-5.856556e+01
1.240000e-06	2.843792e-07	-8.013011e-10	2.137968e+00	-5.411888e+01
1.250000e-06	3.261023e-07	-7.277038e-10	2.451642e+00	-4.955461e+01
1.260000e-06	3.677847e-07	-6.574618e-10	2.765012e+00	-4.488969e+01
1.270000e-06	4.094071e-07	-5.853982e-10	3.077930e+00	-4.015545e+01
1.280000e-06	4.509524e-07	-5.119941e-10	3.390267e+00	-3.538585e+01
1.290000e-06	4.924030e-07	-4.405882e-10	3.701894e+00	-3.060508e+01
1.300000e-06	5.337585e-07	-3.633053e-10	4.012805e+00	-2.581907e+01
1.310000e-06	5.750521e-07	-2.884003e-10	4.323251e+00	-2.101382e+01
1.320000e-06	6.162811e-07	-2.131749e-10	4.633212e+00	-1.616128e+01
1.330000e-06	6.574361e-07	-1.381271e-10	4.942616e+00	-1.123022e+01
1.340000e-06	6.985191e-07	-6.372206e-11	5.251479e+00	-6.198181e+00
1.350000e-06	7.395168e-07	1.560605e-11	5.559700e+00	-1.060095e+00
1.360000e-06	7.803727e-07	9.528392e-11	5.866855e+00	4.169505e+00
1.370000e-06	8.210272e-07	1.786351e-10	6.172497e+00	9.461198e+00
1.380000e-06	8.614521e-07	2.620289e-10	6.476411e+00	1.478043e+01
1.390000e-06	9.016512e-07	3.456036e-10	6.778629e+00	2.009860e+01
1.400000e-06	9.416593e-07	4.296148e-10	7.079410e+00	2.540145e+01
1.410000e-06	9.814884e-07	5.088188e-10	7.378846e+00	3.069186e+01
1.420000e-06	1.021163e-06	5.894996e-10	7.677123e+00	3.598636e+01
1.430000e-06	1.060692e-06	6.702565e-10	7.974296e+00	4.130689e+01
1.440000e-06	1.100078e-06	7.546375e-10	8.270402e+00	4.667111e+01
1.450000e-06	1.139306e-06	8.398117e-10	8.565322e+00	5.208472e+01
1.460000e-06	1.178338e-06	9.231549e-10	8.858765e+00	5.753856e+01
1.470000e-06	1.217154e-06	1.008986e-09	9.150582e+00	6.301118e+01
1.480000e-06	1.255734e-06	1.092948e-09	9.440628e+00	6.847561e+01
1.490000e-06	1.294084e-06	1.176133e-09	9.728943e+00	7.390762e+01
1.500000e-06	1.332251e-06	1.256711e-09	1.001588e+01	7.929235e+01
1.510000e-06	1.370233e-06	1.337131e-09	1.030144e+01	8.462700e+01
1.520000e-06	1.407968e-06	1.419797e-09	1.058513e+01	8.991884e+01
1.530000e-06	1.445360e-06	1.499629e-09	1.086624e+01	9.517953e+01
1.540000e-06	1.482358e-06	1.579566e-09	1.114439e+01	1.004181e+02
1.550000e-06	1.519068e-06	1.659639e-09	1.142038e+01	1.056354e+02
1.560000e-06	1.555576e-06	1.739152e-09	1.169485e+01	1.108214e+02
1.570000e-06	1.591843e-06	1.818450e-09	1.196750e+01	1.159575e+02
1.580000e-06	1.627807e-06	1.894596e-09	1.223788e+01	1.210209e+02
1.590000e-06	1.663477e-06	1.969242e-09	1.250605e+01	1.259911e+02
1.600000e-06	1.698878e-06	2.042839e-09	1.277219e+01	1.308551e+02
1.610000e-06	1.734046e-06	2.115586e-09	1.303659e+01	1.356105e+02
1.620000e-06	1.768966e-06	2.186423e-09	1.329911e+01	1.402638e+02
1.630000e-06	1.803490e-06	2.256213e-09	1.355867e+01	1.448276e+02
1.640000e-06	1.837547e-06	2.325966e-09	1.381471e+01	1.493146e+02
1.650000e-06	1.871247e-06	2.393086e-09	1.406807e+01	1.537335e+02
1.660000e-06	1.904668e-06	2.459083e-09	1.431932e+01	1.580857e+02
1.670000e-06	1.937782e-06	2.522244e-09	1.456828e+01	1.623655e+02
1.680000e-06	1.970559e-06	2.582736e-09	1.481469e+01	1.665626e+02
1.690000e-06	2.003011e-06	2.642810e-09	1.505867e+01	1.706652e+02
1.700000e-06	2.035168e-06	2.702472e-09	1.530042e+01	1.746645e+02
1.710000e-06	2.067037e-06	2.763373e-09	1.554002e+01	1.785567e+02
1.720000e-06	2.098539e-06	2.822842e-09	1.577685e+01	1.823433e+02
1.730000e-06	2.129603e-06	2.879793e-09	1.601039e+01	1.860305e+02
1.740000e-06	2.160286e-06	2.934749e-09	1.624107e+01	1.896261e+02
1.750000e-06	2.190607e-06	2.987086e-09	1.646902e+01	1.931366e+02
1.760000e-06	2.220535e-06	3.037484e-09	1.669402e+01	1.965661e+02
1.770000e-06	2.250058e-06	3.084338e-09	1.691597e+01	1.999147e+02
1.780000e-06	2.279212e-06	3.131125e-09	1.713515e+01	2.031802e+02
1.790000e-06	2.307964e-06	3.179767e-09	1.735131e+01	2.063592e+02
1.800000e-06	2.336196e-06	3.228568e-09	1.756356e+01	2.094498e+02
1.810000e-06	2.363927e-06	3.276495e-09	1.777204e+01	2.124527e+02
1.820000e-06	2.391259e-06	3.320151e-09	1.797752e+01	2.153719e+02
1.830000e-06	2.418203e-06	3.361276e-09	1.818009e+01	2.182136e+02
1.840000e-06	2.444744e-06	3.401674e-09	1.837963e+01	2.209849e+02
1.850000e-06	2.470894e-06	3.440753e-09	1.857622e+01	2.236907e+02
1.860000e-06	2.496634e-06	3.478250e-09	1.876974e+01	2.263328e+02
1.870000e-06	2.521850e-06	3.514789e-09	1.895931e+01	2.289082e+02
1.880000e-06	2.546544e-06	3.552933e-09	1.914496e+01	2.314102e+02
1.890000e-06	2.570816e-06	3.590537e-09	1.932744e+01	2.338299e+02
1.900000e-06	2.594664e-06	3.626732e-09	1.950673e+01	2.361592e+02
1.910000e-06	2.618074e-06	3.659362e-09	1.968272e+01	2.383932e+02
1.920000e-06	2.641103e-06	3.689004e-09	1.985586e+01	2.405324e+02
1.930000e-06	2.663720e-06	3.719059e-09	2.002589e+01	2.425831e+02
1.940000e-06	2.685757e-06	3.746531e-09	2.019156e+01	2.445560e+02
1.950000e-06	2.707246e-06	3.771732e-09	2.035312e+01	2.464637e+02
1.960000e-06	2.728274e-06	3.797682e-09	2.051121e+01	2.483174e+02
1.970000e-06	2.748824e-06	3.825155e-09	2.066570e+01	2.501244e+02
1.980000e-06	2.768847e-06	3.852189e-09	2.081624e+01	2.518863e+02
1.990000e-06	2.788224e-06	3.876198e-09	2.096191e+01	2.535994e+02
2.000000e-06	2.806947e-06	3.897927e-09	2.110267e+01	2.552572e+02
2.010000e-06	2.825152e-06	3.918964e-09	2.123954e+01	2.568526e+02
2.020000e-06	2.842894e-06	3.939264e-09	2.137293e+01	2.583813e+02
2.030000e-06	2.860179e-06	3.958190e-09	2.150288e+01	2.598436e+02
2.040000e-06	2.877056e-06	3.976672e-09	2.162975e+01	2.612435e+02
2.050000e-06	2.893454e-06	3.996213e-09	2.175304e+01	2.625880e+02
2.060000e-06	2.909261e-06	4.015906e-09	2.187187e+01	2.638834e+02
2.070000e-06	2.924526e-06	4.034947e-09	2.198663e+01	2.651332e+02
2.080000e-06	2.939310e-06	4.050940e-09	2.209778e+01	2.663368e+02
2.090000e-06	2.953600e-06	4.065155e-09	2.220522e+01	2.674900e+02
2.100000e-06	2.967444e-06	4.080973e-09	2.230929e+01	2.685870e+02
2.110000e-06	2.980789e-06	4.096407e-09	2.240962e+01	2.696241e+02
2.120000e-06	2.993538e-06	4.110252e-09	2.250547e+01	2.706020e+02
2.130000e-06	3.005755e-06	4.122401e-09	2.259732e+01	2.715265e+02
2.140000e-06	3.017492e-06	4.134616e-09	2.268555e+01	2.724078e+02
2.150000e-06	3.028741e-06	4.147458e-09	2.277012e+01	2.732566e+02
2.160000e-06	3.039536e-06	4.158362e-09	2.285128e+01	2.740804e+02
2.170000e-06	3.049759e-06	4.168308e-09	2.292814e+01	2.748805e+02
2.180000e-06	3.059327e-06	4.178693e-09	2.300007e+01	2.756508e+02
2.190000e-06	3.068362e-06	4.189748e-09	2.306800e+01	2.763799e+02
2.200000e-06	3.076885e-06	4.199798e-09	2.313208e+01	2.770555e+02
2.210000e-06	3.084903e-06	4.206447e-09	2.319235e+01	2.776689e+02
2.220000e-06	3.092451e-06	4.211554e-09	2.324910e+01	2.782193e+02
2.230000e-06	3.099455e-06	4.217845e-09	2.330175e+01	2.787143e+02
2.240000e-06	3.105879e-06	4.225595e-09	2.335005e+01	2.791682e+02
2.250000e-06	3.111755e-06	4.233408e-09	2.339422e+01	2.795965e+02
2.260000e-06	3.117062e-06	4.239137e-09	2.343413e+01	2.800105e+02
2.270000e-06	3.121794e-06	4.242818e-09	2.346970e+01	2.804123e+02
2.280000e-06	3.125862e-06	4.246217e-09	2.350028e+01	2.807942e+02
2.290000e-06	3.129274e-06	4.249675e-09	2.352594e+01	2.811415e+02
2.300000e-06	3.132145e-06	4.253497e-09	2.354752e+01	2.814382e+02
2.310000e-06	3.134483e-06	4.258449e-09	2.356510e+01	2.816742e+02
2.320000e-06	3.136314e-06	4.264898e-09	2.357886e+01	2.818501e+02
2.330000e-06	3.137634e-06	4.272944e-09	2.358879e+01	2.819784e+02
2.340000e-06	3.138334e-06	4.277133e-09	2.359405e+01	2.820801e+02
2.350000e-06	3.138434e-06	4.276248e-09	2.359480e+01	2.821773e+02
2.360000e-06	3.138025e-06	4.275956e-09	2.359173e+01	2.822849e+02
2.370000e-06	3.137106e-06	4.275803e-09	2.358481e+01	2.824046e+02
2.380000e-06	3.135730e-06	4.275253e-09	2.357447e+01	2.825233e+02
2.390000e-06	3.133847e-06	4.274629e-09	2.356032e+01	2.826169e+02
2.400000e-06	3.131364e-06	4.274306e-09	2.354165e+01	2.826586e+02
2.410000e-06	3.128327e-06	4.271020e-09	2.351881e+01	2.826292e+02
2.420000e-06	3.124800e-06	4.259633e-09	2.349230e+01	2.825250e+02
2.430000e-06	3.120707e-06	4.307653e-09	2.346153e+01	2.823612e+02
2.440000e-06	3.115718e-06	4.366038e-09	2.342402e+01	2.821684e+02
2.450000e-06	3.109829e-06	4.234058e-09	2.337974e+01	2.819842e+02
2.460000e-06	3.103611e-06	4.221941e-09	2.333300e+01	2.818423e+02
2.470000e-06	3.097278e-06	4.286680e-09	2.328539e+01	2.817615e+02
2.480000e-06	3.090370e-06	4.345393e-09	2.323345e+01	2.817406e+02
2.490000e-06	3.082644e-06	4.227993e-09	2.317537e+01	2.817582e+02
2.500000e-06	3.074573e-06	4.224392e-09	2.311469e+01	2.817790e+02
2.510000e-06	3.066235e-06	4.345283e-09	2.305201e+01	2.817635e+02
2.520000e-06	3.057104e-06	4.286810e-09	2.298336e+01	2.816782e+02
2.530000e-06	3.047209e-06	4.192954e-09	2.290897e+01	2.815024e+02
2.540000e-06	3.036998e-06	4.248059e-09	2.283220e+01	2.812307e+02
2.550000e-06	3.026334e-06	4.331492e-09	2.275203e+01	2.808702e+02
2.560000e-06	3.014892e-06	4.148094e-09	2.266601e+01	2.804353e+02
2.570000e-06	3.002907e-06	4.196201e-09	2.257590e+01	2.799412e+02
2.580000e-06	2.990497e-06	4.306283e-09	2.248260e+01	2.793996e+02
2.590000e-06	2.977486e-06	4.206814e-09	2.238479e+01	2.788174e+02
2.600000e-06	2.963981e-06	4.118424e-09	2.228326e+01	2.781980e+02
2.610000e-06	2.950095e-06	4.218214e-09	2.217887e+01	2.775446e+02
2.620000e-06	2.935581e-06	4.218483e-09	2.206975e+01	2.768622e+02
2.630000e-06	2.920461e-06	4.111365e-09	2.195607e+01	2.761581e+02
2.640000e-06	2.904887e-06	4.165370e-09	2.183899e+01	2.754395e+02
2.650000e-06	2.888751e-06	4.170456e-09	2.171768e+01	2.747104e+02
2.660000e-06	2.872115e-06	4.131608e-09	2.159261e+01	2.739684e+02
2.670000e-06	2.855102e-06	4.143094e-09	2.146471e+01	2.732036e+02
2.680000e-06	2.837552e-06	4.084978e-09	2.133276e+01	2.724013e+02
2.690000e-06	2.819381e-06	4.086529e-09	2.119615e+01	2.715469e+02
2.700000e-06	2.800673e-06	4.108679e-09	2.105551e+01	2.706316e+02
2.710000e-06	2.781457e-06	4.072472e-09	2.091104e+01	2.696565e+02
2.720000e-06	2.761727e-06	4.041110e-09	2.076271e+01	2.686343e+02
2.730000e-06	2.741403e-06	4.065440e-09	2.060992e+01	2.675849e+02
2.740000e-06	2.720480e-06	4.040013e-09	2.045262e+01	2.665295e+02
2.750000e-06	2.699089e-06	3.981207e-09	2.029179e+01	2.654825e+02
2.760000e-06	2.677261e-06	4.023778e-09	2.012770e+01	2.644468e+02
2.770000e-06	2.654930e-06	3.969668e-09	1.995980e+01	2.634120e+02
2.780000e-06	2.632191e-06	3.940553e-09	1.978886e+01	2.623580e+02
2.790000e-06	2.609053e-06	3.982131e-09	1.961491e+01	2.612625e+02
2.800000e-06	2.585348e-06	3.920681e-09	1.943669e+01	2.601092e+02
2.810000e-06	2.561151e-06	3.911703e-09	1.925478e+01	2.588931e+02
2.820000e-06	2.536531e-06	3.912066e-09	1.906968e+01	2.576223e+02
2.830000e-06	2.511455e-06	3.871397e-09	1.888116e+01	2.563142e+02
2.840000e-06	2.485963e-06	3.863644e-09	1.868951e+01	2.549882e+02
2.850000e-06	2.460071e-06	3.846805e-09	1.849486e+01	2.536579e+02
2.860000e-06	2.433710e-06	3.814494e-09	1.829667e+01	2.523255e+02
2.870000e-06	2.406846e-06	3.784909e-09	1.809471e+01	2.509817e+02
2.880000e-06	2.379540e-06	3.792177e-09	1.788942e+01	2.496099e+02
2.890000e-06	2.351817e-06	3.766462e-09	1.768100e+01	2.481941e+02
2.900000e-06	2.323709e-06	3.732222e-09	1.746968e+01	2.467261e+02
2.910000e-06	2.295214e-06	3.720611e-09	1.725546e+01	2.452100e+02
2.920000e-06	2.266283e-06	3.693682e-09	1.703795e+01	2.436613e+02
2.930000e-06	2.236815e-06	3.682654e-09	1.681641e+01	2.421005e+02
2.940000e-06	2.206821e-06	3.638283e-09	1.659091e+01	2.405444e+02
