# Temperatura_=_20.0
# Concentracion g/m^3_=_10000.0
# C_Vs_to_Am_M_A/Vsm_=_65563218390.804596
# pendiente_HvsI_1/m_=_3716.3
# ordenada_HvsI_A/m_=_1297.0
# frecuencia_Hz_=_212936.5973028921

Tiempo_(s)	Campo_(V.s)	Magnetizacion_(V.s)	Campo_(kA/m)	Magnetizacion_(A/m)
0.000000e+00	-3.290915e-06	-7.211213e-09	-2.355900e+01	-4.694475e+02
1.000000e-08	-3.290731e-06	-7.212144e-09	-2.355768e+01	-4.696885e+02
2.000000e-08	-3.289926e-06	-7.212728e-09	-2.355192e+01	-4.698832e+02
3.000000e-08	-3.288513e-06	-7.213618e-09	-2.354180e+01	-4.700013e+02
4.000000e-08	-3.286612e-06	-7.214662e-09	-2.352819e+01	-4.700219e+02
5.000000e-08	-3.284193e-06	-7.214290e-09	-2.351087e+01	-4.699423e+02
6.000000e-08	-3.281258e-06	-7.211982e-09	-2.348986e+01	-4.697793e+02
7.000000e-08	-3.277772e-06	-7.208347e-09	-2.346490e+01	-4.695645e+02
8.000000e-08	-3.273540e-06	-7.212758e-09	-2.343461e+01	-4.693331e+02
9.000000e-08	-3.268444e-06	-7.211691e-09	-2.339813e+01	-4.691110e+02
1.000000e-07	-3.262490e-06	-7.193178e-09	-2.335550e+01	-4.689059e+02
1.100000e-07	-3.255979e-06	-7.200590e-09	-2.330889e+01	-4.687051e+02
1.200000e-07	-3.249112e-06	-7.188750e-09	-2.325974e+01	-4.684804e+02
1.300000e-07	-3.241698e-06	-7.192232e-09	-2.320666e+01	-4.681991e+02
1.400000e-07	-3.233735e-06	-7.175315e-09	-2.314965e+01	-4.678358e+02
1.500000e-07	-3.225435e-06	-7.187167e-09	-2.309024e+01	-4.673816e+02
1.600000e-07	-3.216631e-06	-7.178809e-09	-2.302721e+01	-4.668453e+02
1.700000e-07	-3.207089e-06	-7.140900e-09	-2.295890e+01	-4.662482e+02
1.800000e-07	-3.196982e-06	-7.147746e-09	-2.288654e+01	-4.656138e+02
1.900000e-07	-3.186512e-06	-7.134643e-09	-2.281159e+01	-4.649563e+02
2.000000e-07	-3.175423e-06	-7.132249e-09	-2.273221e+01	-4.642735e+02
2.100000e-07	-3.163559e-06	-7.088692e-09	-2.264728e+01	-4.635467e+02
2.200000e-07	-3.151256e-06	-7.104813e-09	-2.255920e+01	-4.627478e+02
2.300000e-07	-3.138507e-06	-7.092934e-09	-2.246794e+01	-4.618509e+02
2.400000e-07	-3.125037e-06	-7.054963e-09	-2.237151e+01	-4.608437e+02
2.500000e-07	-3.110946e-06	-7.053755e-09	-2.227063e+01	-4.597341e+02
2.600000e-07	-3.096423e-06	-7.027981e-09	-2.216667e+01	-4.585498e+02
2.700000e-07	-3.081297e-06	-7.015897e-09	-2.205838e+01	-4.573289e+02
2.800000e-07	-3.065598e-06	-6.991745e-09	-2.194599e+01	-4.561072e+02
2.900000e-07	-3.049426e-06	-6.974002e-09	-2.183022e+01	-4.549051e+02
3.000000e-07	-3.032578e-06	-6.953315e-09	-2.170961e+01	-4.537204e+02
3.100000e-07	-3.015131e-06	-6.937518e-09	-2.158471e+01	-4.525286e+02
3.200000e-07	-2.997237e-06	-6.927510e-09	-2.145662e+01	-4.512917e+02
3.300000e-07	-2.978748e-06	-6.888221e-09	-2.132425e+01	-4.499719e+02
3.400000e-07	-2.959710e-06	-6.877203e-09	-2.118797e+01	-4.485453e+02
3.500000e-07	-2.940146e-06	-6.858736e-09	-2.104791e+01	-4.470098e+02
3.600000e-07	-2.919862e-06	-6.819715e-09	-2.090270e+01	-4.453861e+02
3.700000e-07	-2.898859e-06	-6.806247e-09	-2.075234e+01	-4.437088e+02
3.800000e-07	-2.877320e-06	-6.779327e-09	-2.059815e+01	-4.420144e+02
3.900000e-07	-2.855324e-06	-6.750126e-09	-2.044069e+01	-4.403274e+02
4.000000e-07	-2.832894e-06	-6.722587e-09	-2.028011e+01	-4.386525e+02
4.100000e-07	-2.809941e-06	-6.704873e-09	-2.011580e+01	-4.369733e+02
4.200000e-07	-2.786367e-06	-6.672806e-09	-1.994704e+01	-4.352596e+02
4.300000e-07	-2.762314e-06	-6.634994e-09	-1.977484e+01	-4.334791e+02
4.400000e-07	-2.737830e-06	-6.623569e-09	-1.959957e+01	-4.316095e+02
4.500000e-07	-2.712873e-06	-6.582800e-09	-1.942091e+01	-4.296460e+02
4.600000e-07	-2.687508e-06	-6.549054e-09	-1.923932e+01	-4.276021e+02
4.700000e-07	-2.661697e-06	-6.521266e-09	-1.905455e+01	-4.255033e+02
4.800000e-07	-2.635305e-06	-6.482192e-09	-1.886561e+01	-4.233763e+02
4.900000e-07	-2.608385e-06	-6.454747e-09	-1.867290e+01	-4.212385e+02
5.000000e-07	-2.581092e-06	-6.417618e-09	-1.847751e+01	-4.190917e+02
5.100000e-07	-2.553406e-06	-6.384479e-09	-1.827932e+01	-4.169221e+02
5.200000e-07	-2.525265e-06	-6.349526e-09	-1.807786e+01	-4.147067e+02
5.300000e-07	-2.496722e-06	-6.317868e-09	-1.787353e+01	-4.124234e+02
5.400000e-07	-2.467776e-06	-6.280513e-09	-1.766631e+01	-4.100604e+02
5.500000e-07	-2.438314e-06	-6.231769e-09	-1.745540e+01	-4.076211e+02
5.600000e-07	-2.408275e-06	-6.200681e-09	-1.724035e+01	-4.051228e+02
5.700000e-07	-2.377740e-06	-6.161118e-09	-1.702176e+01	-4.025897e+02
5.800000e-07	-2.346801e-06	-6.121018e-09	-1.680028e+01	-4.000429e+02
5.900000e-07	-2.315391e-06	-6.084745e-09	-1.657542e+01	-3.974910e+02
6.000000e-07	-2.283450e-06	-6.044062e-09	-1.634675e+01	-3.949263e+02
6.100000e-07	-2.251053e-06	-6.009835e-09	-1.611483e+01	-3.923258e+02
6.200000e-07	-2.218284e-06	-5.962333e-09	-1.588024e+01	-3.896598e+02
6.300000e-07	-2.185123e-06	-5.917974e-09	-1.564285e+01	-3.869018e+02
6.400000e-07	-2.151607e-06	-5.873039e-09	-1.540292e+01	-3.840378e+02
6.500000e-07	-2.117798e-06	-5.825654e-09	-1.516089e+01	-3.810716e+02
6.600000e-07	-2.083654e-06	-5.782662e-09	-1.491646e+01	-3.780229e+02
6.700000e-07	-2.049159e-06	-5.730286e-09	-1.466951e+01	-3.749204e+02
6.800000e-07	-2.014309e-06	-5.685211e-09	-1.442003e+01	-3.717916e+02
6.900000e-07	-1.979156e-06	-5.635255e-09	-1.416838e+01	-3.686536e+02
7.000000e-07	-1.943679e-06	-5.586017e-09	-1.391440e+01	-3.655073e+02
7.100000e-07	-1.907736e-06	-5.539492e-09	-1.365710e+01	-3.623383e+02
7.200000e-07	-1.871353e-06	-5.483757e-09	-1.339663e+01	-3.591228e+02
7.300000e-07	-1.834650e-06	-5.434241e-09	-1.313389e+01	-3.558357e+02
7.400000e-07	-1.797658e-06	-5.380833e-09	-1.286907e+01	-3.524597e+02
7.500000e-07	-1.760377e-06	-5.326984e-09	-1.260218e+01	-3.489900e+02
7.600000e-07	-1.722808e-06	-5.272857e-09	-1.233323e+01	-3.454342e+02
7.700000e-07	-1.684931e-06	-5.215623e-09	-1.206208e+01	-3.418080e+02
7.800000e-07	-1.646772e-06	-5.164359e-09	-1.178891e+01	-3.381279e+02
7.900000e-07	-1.608408e-06	-5.106461e-09	-1.151427e+01	-3.344040e+02
8.000000e-07	-1.569799e-06	-5.047756e-09	-1.123788e+01	-3.306361e+02
8.100000e-07	-1.530819e-06	-4.986951e-09	-1.095883e+01	-3.268140e+02
8.200000e-07	-1.491440e-06	-4.925631e-09	-1.067692e+01	-3.229213e+02
8.300000e-07	-1.451755e-06	-4.867415e-09	-1.039282e+01	-3.189422e+02
8.400000e-07	-1.411877e-06	-4.802320e-09	-1.010734e+01	-3.148676e+02
8.500000e-07	-1.371836e-06	-4.741028e-09	-9.820698e+00	-3.106982e+02
8.600000e-07	-1.331590e-06	-4.678267e-09	-9.532586e+00	-3.064445e+02
8.700000e-07	-1.291115e-06	-4.614446e-09	-9.242832e+00	-3.021231e+02
8.800000e-07	-1.250433e-06	-4.549380e-09	-8.951596e+00	-2.977505e+02
8.900000e-07	-1.209546e-06	-4.478620e-09	-8.658895e+00	-2.933374e+02
9.000000e-07	-1.168456e-06	-4.409010e-09	-8.364739e+00	-2.888853e+02
9.100000e-07	-1.127155e-06	-4.336677e-09	-8.069072e+00	-2.843860e+02
9.200000e-07	-1.085674e-06	-4.267973e-09	-7.772120e+00	-2.798250e+02
9.300000e-07	-1.044054e-06	-4.199126e-09	-7.474168e+00	-2.751862e+02
9.400000e-07	-1.002276e-06	-4.126852e-09	-7.175090e+00	-2.704570e+02
9.500000e-07	-9.602675e-07	-4.055674e-09	-6.874361e+00	-2.656317e+02
9.600000e-07	-9.179947e-07	-3.980129e-09	-6.571738e+00	-2.607124e+02
9.700000e-07	-8.754633e-07	-3.903353e-09	-6.267264e+00	-2.557069e+02
9.800000e-07	-8.327025e-07	-3.820997e-09	-5.961149e+00	-2.506244e+02
9.900000e-07	-7.898107e-07	-3.739058e-09	-5.654095e+00	-2.454719e+02
1.000000e-06	-7.468043e-07	-3.662169e-09	-5.346221e+00	-2.402506e+02
1.010000e-06	-7.036760e-07	-3.582212e-09	-5.037474e+00	-2.349553e+02
1.020000e-06	-6.604548e-07	-3.502478e-09	-4.728062e+00	-2.295758e+02
1.030000e-06	-6.171480e-07	-3.417233e-09	-4.418038e+00	-2.241005e+02
1.040000e-06	-5.737553e-07	-3.328761e-09	-4.107398e+00	-2.185198e+02
1.050000e-06	-5.302639e-07	-3.239531e-09	-3.796052e+00	-2.128296e+02
1.060000e-06	-4.866579e-07	-3.147417e-09	-3.483885e+00	-2.070322e+02
1.070000e-06	-4.429599e-07	-3.057489e-09	-3.171060e+00	-2.011357e+02
1.080000e-06	-3.991914e-07	-2.965136e-09	-2.857730e+00	-1.951510e+02
1.090000e-06	-3.553437e-07	-2.872632e-09	-2.543834e+00	-1.890882e+02
1.100000e-06	-3.114313e-07	-2.779786e-09	-2.229474e+00	-1.829534e+02
1.110000e-06	-2.674649e-07	-2.683392e-09	-1.914727e+00	-1.767464e+02
1.120000e-06	-2.234601e-07	-2.585892e-09	-1.599706e+00	-1.704610e+02
1.130000e-06	-1.794374e-07	-2.486739e-09	-1.284556e+00	-1.640874e+02
1.140000e-06	-1.353829e-07	-2.388556e-09	-9.691788e-01	-1.576150e+02
1.150000e-06	-9.129428e-08	-2.289204e-09	-6.535573e-01	-1.510367e+02
1.160000e-06	-4.720375e-08	-2.186788e-09	-3.379221e-01	-1.443513e+02
1.170000e-06	-3.132330e-09	-2.081355e-09	-2.242372e-02	-1.375642e+02
1.180000e-06	4.093403e-08	-1.974179e-09	2.930384e-01	-1.306862e+02
1.190000e-06	8.499153e-08	-1.867341e-09	6.084372e-01	-1.237296e+02
1.200000e-06	1.290280e-07	-1.757126e-09	9.236854e-01	-1.167047e+02
1.210000e-06	1.730238e-07	-1.646331e-09	1.238643e+00	-1.096152e+02
1.220000e-06	2.169769e-07	-1.535812e-09	1.553293e+00	-1.024570e+02
1.230000e-06	2.609074e-07	-1.424151e-09	1.867783e+00	-9.521876e+01
1.240000e-06	3.047936e-07	-1.311524e-09	2.181956e+00	-8.788477e+01
1.250000e-06	3.486185e-07	-1.194921e-09	2.495689e+00	-8.043990e+01
1.260000e-06	3.923994e-07	-1.077692e-09	2.809108e+00	-7.287421e+01
1.270000e-06	4.360774e-07	-9.592913e-10	3.121790e+00	-6.518601e+01
1.280000e-06	4.796299e-07	-8.389856e-10	3.433574e+00	-5.738220e+01
1.290000e-06	5.231102e-07	-7.152863e-10	3.744840e+00	-4.947566e+01
1.300000e-06	5.665107e-07	-5.879426e-10	4.055536e+00	-4.148049e+01
1.310000e-06	6.098258e-07	-4.650028e-10	4.365619e+00	-3.340683e+01
1.320000e-06	6.530619e-07	-3.426994e-10	4.675138e+00	-2.525713e+01
1.330000e-06	6.962309e-07	-2.183855e-10	4.984176e+00	-1.702537e+01
1.340000e-06	7.393324e-07	-9.356724e-11	5.292731e+00	-8.699704e+00
1.350000e-06	7.823436e-07	3.532701e-11	5.600640e+00	-2.678090e-01
1.360000e-06	8.252209e-07	1.670579e-10	5.907589e+00	8.276990e+00
1.370000e-06	8.679124e-07	3.024066e-10	6.213209e+00	1.693096e+01
1.380000e-06	9.103938e-07	4.393668e-10	6.517325e+00	2.567845e+01
1.390000e-06	9.526157e-07	5.762992e-10	6.819583e+00	3.449446e+01
1.400000e-06	9.945834e-07	7.123452e-10	7.120021e+00	4.335042e+01
1.410000e-06	1.036358e-06	8.463047e-10	7.419074e+00	5.222152e+01
1.420000e-06	1.077971e-06	9.815891e-10	7.716978e+00	6.109277e+01
1.430000e-06	1.119443e-06	1.116889e-09	8.013868e+00	6.996179e+01
1.440000e-06	1.160751e-06	1.252782e-09	8.309579e+00	7.883713e+01
1.450000e-06	1.201866e-06	1.390255e-09	8.603917e+00	8.773278e+01
1.460000e-06	1.242787e-06	1.529846e-09	8.896859e+00	9.666067e+01
1.470000e-06	1.283503e-06	1.670203e-09	9.188340e+00	1.056240e+02
1.480000e-06	1.323985e-06	1.807498e-09	9.478142e+00	1.146135e+02
1.490000e-06	1.364218e-06	1.944869e-09	9.766160e+00	1.236086e+02
1.500000e-06	1.404236e-06	2.083080e-09	1.005264e+01	1.325822e+02
1.510000e-06	1.444083e-06	2.220926e-09	1.033790e+01	1.415078e+02
1.520000e-06	1.483691e-06	2.356684e-09	1.062144e+01	1.503659e+02
1.530000e-06	1.522927e-06	2.489305e-09	1.090233e+01	1.591478e+02
1.540000e-06	1.561756e-06	2.621595e-09	1.118029e+01	1.678544e+02
1.550000e-06	1.600247e-06	2.753978e-09	1.145584e+01	1.764915e+02
1.560000e-06	1.638493e-06	2.884931e-09	1.172964e+01	1.850632e+02
1.570000e-06	1.676497e-06	3.014534e-09	1.200170e+01	1.935655e+02
1.580000e-06	1.714205e-06	3.143225e-09	1.227165e+01	2.019832e+02
1.590000e-06	1.751607e-06	3.270930e-09	1.253940e+01	2.102921e+02
1.600000e-06	1.788702e-06	3.396225e-09	1.280496e+01	2.184637e+02
1.610000e-06	1.825538e-06	3.518148e-09	1.306865e+01	2.264729e+02
1.620000e-06	1.862131e-06	3.636950e-09	1.333062e+01	2.343044e+02
1.630000e-06	1.898387e-06	3.753171e-09	1.359017e+01	2.419563e+02
1.640000e-06	1.934144e-06	3.866933e-09	1.384614e+01	2.494383e+02
1.650000e-06	1.969446e-06	3.977315e-09	1.409886e+01	2.567667e+02
1.660000e-06	2.004462e-06	4.085939e-09	1.434954e+01	2.639572e+02
1.670000e-06	2.039163e-06	4.192620e-09	1.459796e+01	2.710187e+02
1.680000e-06	2.073505e-06	4.297486e-09	1.484380e+01	2.779494e+02
1.690000e-06	2.107499e-06	4.399340e-09	1.508716e+01	2.847389e+02
1.700000e-06	2.141196e-06	4.497753e-09	1.532839e+01	2.913720e+02
1.710000e-06	2.174631e-06	4.595752e-09	1.556775e+01	2.978354e+02
1.720000e-06	2.207687e-06	4.692733e-09	1.580438e+01	3.041230e+02
1.730000e-06	2.240279e-06	4.786193e-09	1.603770e+01	3.102384e+02
1.740000e-06	2.272449e-06	4.875561e-09	1.626801e+01	3.161931e+02
1.750000e-06	2.304208e-06	4.961745e-09	1.649536e+01	3.220017e+02
1.760000e-06	2.335569e-06	5.045310e-09	1.671986e+01	3.276769e+02
1.770000e-06	2.366557e-06	5.126803e-09	1.694170e+01	3.332247e+02
1.780000e-06	2.397152e-06	5.208007e-09	1.716072e+01	3.386434e+02
1.790000e-06	2.427313e-06	5.288464e-09	1.737665e+01	3.439261e+02
1.800000e-06	2.456949e-06	5.368019e-09	1.758880e+01	3.490654e+02
1.810000e-06	2.486006e-06	5.445441e-09	1.779682e+01	3.540580e+02
1.820000e-06	2.514597e-06	5.517037e-09	1.800149e+01	3.589082e+02
1.830000e-06	2.542790e-06	5.586064e-09	1.820332e+01	3.636264e+02
1.840000e-06	2.570548e-06	5.654812e-09	1.840203e+01	3.682258e+02
1.850000e-06	2.597891e-06	5.722028e-09	1.859778e+01	3.727168e+02
1.860000e-06	2.624858e-06	5.787008e-09	1.879083e+01	3.771022e+02
1.870000e-06	2.651312e-06	5.849489e-09	1.898020e+01	3.813751e+02
1.880000e-06	2.677174e-06	5.910190e-09	1.916535e+01	3.855217e+02
1.890000e-06	2.702574e-06	5.970547e-09	1.934718e+01	3.895263e+02
1.900000e-06	2.727548e-06	6.029426e-09	1.952597e+01	3.933781e+02
1.910000e-06	2.752054e-06	6.083037e-09	1.970139e+01	3.970770e+02
1.920000e-06	2.776141e-06	6.133738e-09	1.987383e+01	4.006341e+02
1.930000e-06	2.799801e-06	6.183150e-09	2.004321e+01	4.040697e+02
1.940000e-06	2.822874e-06	6.229440e-09	2.020838e+01	4.074056e+02
1.950000e-06	2.845367e-06	6.272634e-09	2.036941e+01	4.106582e+02
1.960000e-06	2.867378e-06	6.317529e-09	2.052698e+01	4.138325e+02
1.970000e-06	2.888905e-06	6.365084e-09	2.068109e+01	4.169207e+02
1.980000e-06	2.909904e-06	6.411401e-09	2.083141e+01	4.199063e+02
1.990000e-06	2.930260e-06	6.453293e-09	2.097714e+01	4.227710e+02
2.000000e-06	2.949931e-06	6.489804e-09	2.111796e+01	4.255028e+02
2.010000e-06	2.969042e-06	6.523519e-09	2.125477e+01	4.281022e+02
2.020000e-06	2.987676e-06	6.555958e-09	2.138817e+01	4.305824e+02
2.030000e-06	3.005828e-06	6.588538e-09	2.151811e+01	4.329656e+02
2.040000e-06	3.023512e-06	6.621060e-09	2.164471e+01	4.352750e+02
2.050000e-06	3.040686e-06	6.653908e-09	2.176766e+01	4.375267e+02
2.060000e-06	3.057237e-06	6.687730e-09	2.188614e+01	4.397239e+02
2.070000e-06	3.073200e-06	6.720186e-09	2.200042e+01	4.418567e+02
2.080000e-06	3.088659e-06	6.748372e-09	2.211108e+01	4.439066e+02
2.090000e-06	3.103607e-06	6.772739e-09	2.221810e+01	4.458548e+02
2.100000e-06	3.118087e-06	6.796026e-09	2.232176e+01	4.476901e+02
2.110000e-06	3.132068e-06	6.819389e-09	2.242184e+01	4.494139e+02
2.120000e-06	3.145420e-06	6.842339e-09	2.251742e+01	4.510399e+02
2.130000e-06	3.158180e-06	6.865405e-09	2.260877e+01	4.525884e+02
2.140000e-06	3.170428e-06	6.888922e-09	2.269645e+01	4.540786e+02
2.150000e-06	3.182154e-06	6.911613e-09	2.278040e+01	4.555202e+02
2.160000e-06	3.193398e-06	6.931499e-09	2.286089e+01	4.569097e+02
2.170000e-06	3.204091e-06	6.948994e-09	2.293744e+01	4.582321e+02
2.180000e-06	3.214107e-06	6.964937e-09	2.300914e+01	4.594673e+02
2.190000e-06	3.223521e-06	6.980344e-09	2.307653e+01	4.605988e+02
2.200000e-06	3.232402e-06	6.995510e-09	2.314011e+01	4.616218e+02
2.210000e-06	3.240745e-06	7.009514e-09	2.319984e+01	4.625461e+02
2.220000e-06	3.248596e-06	7.022211e-09	2.325604e+01	4.633934e+02
2.230000e-06	3.255873e-06	7.033386e-09	2.330814e+01	4.641900e+02
2.240000e-06	3.262535e-06	7.044593e-09	2.335583e+01	4.649570e+02
2.250000e-06	3.268595e-06	7.055766e-09	2.339921e+01	4.657022e+02
2.260000e-06	3.274041e-06	7.065403e-09	2.343820e+01	4.664185e+02
2.270000e-06	3.278927e-06	7.073811e-09	2.347317e+01	4.670863e+02
2.280000e-06	3.283159e-06	7.083000e-09	2.350347e+01	4.676830e+02
2.290000e-06	3.286684e-06	7.093464e-09	2.352871e+01	4.681924e+02
2.300000e-06	3.289627e-06	7.103031e-09	2.354977e+01	4.686125e+02
2.310000e-06	3.292014e-06	7.109150e-09	2.356686e+01	4.689573e+02
2.320000e-06	3.293862e-06	7.111856e-09	2.358009e+01	4.692518e+02
2.330000e-06	3.295179e-06	7.115474e-09	2.358952e+01	4.695225e+02
2.340000e-06	3.295853e-06	7.119051e-09	2.359434e+01	4.697870e+02
2.350000e-06	3.295917e-06	7.120575e-09	2.359480e+01	4.700459e+02
2.360000e-06	3.295433e-06	7.122669e-09	2.359134e+01	4.702822e+02
2.370000e-06	3.294393e-06	7.125638e-09	2.358389e+01	4.704675e+02
2.380000e-06	3.292877e-06	7.129066e-09	2.357304e+01	4.705723e+02
2.390000e-06	3.290834e-06	7.131409e-09	2.355842e+01	4.705780e+02
2.400000e-06	3.288125e-06	7.131527e-09	2.353902e+01	4.704846e+02
2.410000e-06	3.284831e-06	7.130534e-09	2.351544e+01	4.703119e+02
2.420000e-06	3.281066e-06	7.122624e-09	2.348849e+01	4.700929e+02
2.430000e-06	3.276699e-06	7.113011e-09	2.345723e+01	4.698619e+02
2.440000e-06	3.271332e-06	7.121857e-09	2.341880e+01	4.696427e+02
2.450000e-06	3.264971e-06	7.102809e-09	2.337327e+01	4.694399e+02
2.460000e-06	3.258350e-06	7.108088e-09	2.332587e+01	4.692379e+02
2.470000e-06	3.251677e-06	7.101094e-09	2.327810e+01	4.690071e+02
2.480000e-06	3.244336e-06	7.105176e-09	2.322555e+01	4.687150e+02
2.490000e-06	3.236063e-06	7.091332e-09	2.316632e+01	4.683386e+02
2.500000e-06	3.227523e-06	7.085149e-09	2.310519e+01	4.678714e+02
2.510000e-06	3.218794e-06	7.088504e-09	2.304269e+01	4.673248e+02
2.520000e-06	3.209078e-06	7.069000e-09	2.297314e+01	4.667211e+02
2.530000e-06	3.198499e-06	7.052759e-09	2.289741e+01	4.660830e+02
2.540000e-06	3.187712e-06	7.052600e-09	2.282018e+01	4.654226e+02
2.550000e-06	3.176488e-06	7.073597e-09	2.273983e+01	4.647350e+02
2.560000e-06	3.164343e-06	7.022418e-09	2.265289e+01	4.639997e+02
2.570000e-06	3.151624e-06	7.011090e-09	2.256184e+01	4.631879e+02
2.580000e-06	3.138538e-06	7.023728e-09	2.246816e+01	4.622751e+02
2.590000e-06	3.124807e-06	7.010290e-09	2.236986e+01	4.612518e+02
2.600000e-06	3.110562e-06	6.972438e-09	2.226788e+01	4.601292e+02
2.610000e-06	3.095957e-06	6.959063e-09	2.216333e+01	4.589372e+02
2.620000e-06	3.080650e-06	6.952489e-09	2.205375e+01	4.577144e+02
2.630000e-06	3.064692e-06	6.921510e-09	2.193951e+01	4.564952e+02
2.640000e-06	3.048304e-06	6.913579e-09	2.182219e+01	4.552968e+02
2.650000e-06	3.031304e-06	6.887105e-09	2.170049e+01	4.541134e+02
2.660000e-06	3.013765e-06	6.863835e-09	2.157494e+01	4.529177e+02
2.670000e-06	2.995848e-06	6.861674e-09	2.144667e+01	4.516709e+02
2.680000e-06	2.977310e-06	6.832338e-09	2.131396e+01	4.503365e+02
2.690000e-06	2.958060e-06	6.810880e-09	2.117615e+01	4.488934e+02
2.700000e-06	2.938324e-06	6.792172e-09	2.103487e+01	4.473433e+02
2.710000e-06	2.918111e-06	6.768621e-09	2.089017e+01	4.457094e+02
2.720000e-06	2.897327e-06	6.730496e-09	2.074138e+01	4.440277e+02
2.730000e-06	2.875914e-06	6.711746e-09	2.058809e+01	4.423336e+02
2.740000e-06	2.853857e-06	6.692566e-09	2.043018e+01	4.406491e+02
2.750000e-06	2.831318e-06	6.643396e-09	2.026884e+01	4.389754e+02
2.760000e-06	2.808357e-06	6.638927e-09	2.010446e+01	4.372935e+02
2.770000e-06	2.784843e-06	6.621156e-09	1.993613e+01	4.355720e+02
2.780000e-06	2.760895e-06	6.578955e-09	1.976469e+01	4.337795e+02
2.790000e-06	2.736537e-06	6.557486e-09	1.959032e+01	4.318960e+02
2.800000e-06	2.711580e-06	6.528536e-09	1.941165e+01	4.299194e+02
2.810000e-06	2.686106e-06	6.499019e-09	1.922929e+01	4.278659e+02
2.820000e-06	2.660204e-06	6.463295e-09	1.904386e+01	4.257616e+02
2.830000e-06	2.633797e-06	6.427452e-09	1.885482e+01	4.236326e+02
2.840000e-06	2.606937e-06	6.398616e-09	1.866254e+01	4.214941e+02
2.850000e-06	2.579697e-06	6.372682e-09	1.846753e+01	4.193454e+02
2.860000e-06	2.551947e-06	6.344883e-09	1.826887e+01	4.171708e+02
2.870000e-06	2.523608e-06	6.299181e-09	1.806600e+01	4.149468e+02
2.880000e-06	2.494821e-06	6.273379e-09	1.785992e+01	4.126523e+02
2.890000e-06	2.465639e-06	6.242712e-09	1.765101e+01	4.102776e+02
2.900000e-06	2.436068e-06	6.195275e-09	1.743932e+01	4.078284e+02
2.910000e-06	2.406067e-06	6.157831e-09	1.722455e+01	4.053236e+02
2.920000e-06	2.375575e-06	6.118208e-09	1.700626e+01	4.027877e+02
2.930000e-06	2.344552e-06	6.087077e-09	1.678417e+01	4.002403e+02
2.940000e-06	2.312984e-06	6.046818e-09	1.655819e+01	3.976877e+02
