# Temperatura_=_20.0
# Concentracion g/m^3_=_10000.0
# C_Vs_to_Am_M_A/Vsm_=_65563218390.804596
# pendiente_HvsI_1/m_=_3716.3
# ordenada_HvsI_A/m_=_1297.0
# frecuencia_Hz_=_212933.79729610344

Tiempo_(s)	Campo_(V.s)	Magnetizacion_(V.s)	Campo_(kA/m)	Magnetizacion_(A/m)
0.000000e+00	-3.283007e-06	-7.239377e-09	-2.355998e+01	-4.710028e+02
1.000000e-08	-3.282761e-06	-7.239922e-09	-2.355822e+01	-4.711435e+02
2.000000e-08	-3.281849e-06	-7.242168e-09	-2.355167e+01	-4.712825e+02
3.000000e-08	-3.280298e-06	-7.242783e-09	-2.354054e+01	-4.714131e+02
4.000000e-08	-3.278272e-06	-7.241061e-09	-2.352600e+01	-4.715114e+02
5.000000e-08	-3.275756e-06	-7.238052e-09	-2.350795e+01	-4.715449e+02
6.000000e-08	-3.272726e-06	-7.234386e-09	-2.348621e+01	-4.714851e+02
7.000000e-08	-3.269131e-06	-7.227290e-09	-2.346040e+01	-4.713186e+02
8.000000e-08	-3.264790e-06	-7.250136e-09	-2.342925e+01	-4.710537e+02
9.000000e-08	-3.259570e-06	-7.260406e-09	-2.339179e+01	-4.707187e+02
1.000000e-07	-3.253526e-06	-7.195734e-09	-2.334842e+01	-4.703537e+02
1.100000e-07	-3.246962e-06	-7.216411e-09	-2.330131e+01	-4.699974e+02
1.200000e-07	-3.240011e-06	-7.213768e-09	-2.325143e+01	-4.696746e+02
1.300000e-07	-3.232489e-06	-7.253796e-09	-2.319745e+01	-4.693885e+02
1.400000e-07	-3.224467e-06	-7.180237e-09	-2.313988e+01	-4.691202e+02
1.500000e-07	-3.216129e-06	-7.210578e-09	-2.308005e+01	-4.688349e+02
1.600000e-07	-3.207230e-06	-7.232423e-09	-2.301618e+01	-4.684936e+02
1.700000e-07	-3.197623e-06	-7.144058e-09	-2.294724e+01	-4.680639e+02
1.800000e-07	-3.187550e-06	-7.169734e-09	-2.287495e+01	-4.675287e+02
1.900000e-07	-3.177055e-06	-7.169866e-09	-2.279963e+01	-4.668874e+02
2.000000e-07	-3.165829e-06	-7.211334e-09	-2.271908e+01	-4.661522e+02
2.100000e-07	-3.153890e-06	-7.073388e-09	-2.263340e+01	-4.653401e+02
2.200000e-07	-3.141564e-06	-7.140009e-09	-2.254494e+01	-4.644653e+02
2.300000e-07	-3.128734e-06	-7.153265e-09	-2.245286e+01	-4.635337e+02
2.400000e-07	-3.115189e-06	-7.039950e-09	-2.235567e+01	-4.625439e+02
2.500000e-07	-3.101072e-06	-7.056162e-09	-2.225435e+01	-4.614904e+02
2.600000e-07	-3.086444e-06	-7.064021e-09	-2.214938e+01	-4.603708e+02
2.700000e-07	-3.071240e-06	-7.059751e-09	-2.204027e+01	-4.591899e+02
2.800000e-07	-3.055545e-06	-6.978864e-09	-2.192764e+01	-4.579615e+02
2.900000e-07	-3.039309e-06	-6.996144e-09	-2.181113e+01	-4.567043e+02
3.000000e-07	-3.022371e-06	-6.998319e-09	-2.168957e+01	-4.554356e+02
3.100000e-07	-3.004869e-06	-6.942792e-09	-2.156397e+01	-4.541633e+02
3.200000e-07	-2.986904e-06	-6.943693e-09	-2.143505e+01	-4.528814e+02
3.300000e-07	-2.968313e-06	-6.891660e-09	-2.130163e+01	-4.515708e+02
3.400000e-07	-2.949207e-06	-6.887976e-09	-2.116452e+01	-4.502046e+02
3.500000e-07	-2.929557e-06	-6.870293e-09	-2.102351e+01	-4.487575e+02
3.600000e-07	-2.909167e-06	-6.825311e-09	-2.087718e+01	-4.472150e+02
3.700000e-07	-2.888088e-06	-6.830701e-09	-2.072591e+01	-4.455787e+02
3.800000e-07	-2.866473e-06	-6.778619e-09	-2.057079e+01	-4.438663e+02
3.900000e-07	-2.844422e-06	-6.762968e-09	-2.041255e+01	-4.421056e+02
4.000000e-07	-2.821941e-06	-6.742226e-09	-2.025122e+01	-4.403244e+02
4.100000e-07	-2.798960e-06	-6.719024e-09	-2.008630e+01	-4.385407e+02
4.200000e-07	-2.775374e-06	-6.670844e-09	-1.991703e+01	-4.367570e+02
4.300000e-07	-2.751284e-06	-6.631491e-09	-1.974416e+01	-4.349595e+02
4.400000e-07	-2.726767e-06	-6.657563e-09	-1.956822e+01	-4.331241e+02
4.500000e-07	-2.701782e-06	-6.587440e-09	-1.938891e+01	-4.312256e+02
4.600000e-07	-2.676365e-06	-6.555330e-09	-1.920651e+01	-4.292470e+02
4.700000e-07	-2.650499e-06	-6.538815e-09	-1.902089e+01	-4.271853e+02
4.800000e-07	-2.624075e-06	-6.492082e-09	-1.883126e+01	-4.250516e+02
4.900000e-07	-2.597139e-06	-6.476850e-09	-1.863796e+01	-4.228660e+02
5.000000e-07	-2.569820e-06	-6.423691e-09	-1.844191e+01	-4.206490e+02
5.100000e-07	-2.542113e-06	-6.396855e-09	-1.824308e+01	-4.184138e+02
5.200000e-07	-2.513953e-06	-6.366268e-09	-1.804099e+01	-4.161614e+02
5.300000e-07	-2.485382e-06	-6.335310e-09	-1.783595e+01	-4.138814e+02
5.400000e-07	-2.456413e-06	-6.297588e-09	-1.762806e+01	-4.115568e+02
5.500000e-07	-2.426910e-06	-6.236803e-09	-1.741634e+01	-4.091719e+02
5.600000e-07	-2.396842e-06	-6.220909e-09	-1.720056e+01	-4.067185e+02
5.700000e-07	-2.366294e-06	-6.175832e-09	-1.698134e+01	-4.041988e+02
5.800000e-07	-2.335312e-06	-6.136783e-09	-1.675900e+01	-4.016233e+02
5.900000e-07	-2.303886e-06	-6.101064e-09	-1.653348e+01	-3.990049e+02
6.000000e-07	-2.271963e-06	-6.049823e-09	-1.630438e+01	-3.963521e+02
6.100000e-07	-2.239558e-06	-6.028475e-09	-1.607184e+01	-3.936638e+02
6.200000e-07	-2.206742e-06	-5.973495e-09	-1.583634e+01	-3.909285e+02
6.300000e-07	-2.173542e-06	-5.928350e-09	-1.559808e+01	-3.881284e+02
6.400000e-07	-2.140023e-06	-5.878744e-09	-1.535754e+01	-3.852466e+02
6.500000e-07	-2.106239e-06	-5.828766e-09	-1.511509e+01	-3.822750e+02
6.600000e-07	-2.072146e-06	-5.798657e-09	-1.487043e+01	-3.792183e+02
6.700000e-07	-2.037692e-06	-5.739266e-09	-1.462318e+01	-3.760939e+02
6.800000e-07	-2.002857e-06	-5.694204e-09	-1.437319e+01	-3.729263e+02
6.900000e-07	-1.967711e-06	-5.639568e-09	-1.412097e+01	-3.697380e+02
7.000000e-07	-1.932271e-06	-5.594402e-09	-1.386664e+01	-3.665410e+02
7.100000e-07	-1.896371e-06	-5.551471e-09	-1.360901e+01	-3.633322e+02
7.200000e-07	-1.859993e-06	-5.483528e-09	-1.334795e+01	-3.600934e+02
7.300000e-07	-1.823309e-06	-5.440668e-09	-1.308469e+01	-3.567979e+02
7.400000e-07	-1.786358e-06	-5.388233e-09	-1.281952e+01	-3.534196e+02
7.500000e-07	-1.749115e-06	-5.339016e-09	-1.255225e+01	-3.499414e+02
7.600000e-07	-1.711564e-06	-5.284497e-09	-1.228277e+01	-3.463611e+02
7.700000e-07	-1.673726e-06	-5.218501e-09	-1.201123e+01	-3.426902e+02
7.800000e-07	-1.635636e-06	-5.172202e-09	-1.173788e+01	-3.389486e+02
7.900000e-07	-1.597291e-06	-5.110114e-09	-1.146271e+01	-3.351558e+02
8.000000e-07	-1.558676e-06	-5.053644e-09	-1.118559e+01	-3.313229e+02
8.100000e-07	-1.519757e-06	-4.990225e-09	-1.090630e+01	-3.274486e+02
8.200000e-07	-1.480483e-06	-4.925646e-09	-1.062445e+01	-3.235203e+02
8.300000e-07	-1.440871e-06	-4.873549e-09	-1.034019e+01	-3.195202e+02
8.400000e-07	-1.401032e-06	-4.804359e-09	-1.005428e+01	-3.154333e+02
8.500000e-07	-1.361033e-06	-4.744013e-09	-9.767241e+00	-3.112541e+02
8.600000e-07	-1.320840e-06	-4.677460e-09	-9.478803e+00	-3.069893e+02
8.700000e-07	-1.280394e-06	-4.615919e-09	-9.188543e+00	-3.026553e+02
8.800000e-07	-1.239718e-06	-4.556447e-09	-8.896641e+00	-2.982705e+02
8.900000e-07	-1.198844e-06	-4.478862e-09	-8.603312e+00	-2.938475e+02
9.000000e-07	-1.157775e-06	-4.408724e-09	-8.308587e+00	-2.893864e+02
9.100000e-07	-1.116516e-06	-4.335429e-09	-8.012501e+00	-2.848736e+02
9.200000e-07	-1.075100e-06	-4.270757e-09	-7.715285e+00	-2.802854e+02
9.300000e-07	-1.033558e-06	-4.199343e-09	-7.417166e+00	-2.755968e+02
9.400000e-07	-9.918824e-07	-4.117778e-09	-7.118088e+00	-2.707903e+02
9.500000e-07	-9.500372e-07	-4.048043e-09	-6.817793e+00	-2.658627e+02
9.600000e-07	-9.079104e-07	-3.969665e-09	-6.515476e+00	-2.608261e+02
9.700000e-07	-8.655155e-07	-3.893135e-09	-6.211236e+00	-2.557032e+02
9.800000e-07	-8.229336e-07	-3.807610e-09	-5.905653e+00	-2.505186e+02
9.900000e-07	-7.801288e-07	-3.723486e-09	-5.598472e+00	-2.452893e+02
1.000000e-06	-7.371222e-07	-3.650028e-09	-5.289841e+00	-2.400181e+02
1.010000e-06	-6.939992e-07	-3.565447e-09	-4.980376e+00	-2.346923e+02
1.020000e-06	-6.508268e-07	-3.483967e-09	-4.670556e+00	-2.292890e+02
1.030000e-06	-6.076028e-07	-3.395269e-09	-4.360366e+00	-2.237836e+02
1.040000e-06	-5.643019e-07	-3.309062e-09	-4.049624e+00	-2.181596e+02
1.050000e-06	-5.208964e-07	-3.224917e-09	-3.738131e+00	-2.124141e+02
1.060000e-06	-4.773750e-07	-3.132214e-09	-3.425807e+00	-2.065589e+02
1.070000e-06	-4.337602e-07	-3.044277e-09	-3.112811e+00	-2.006149e+02
1.080000e-06	-3.900646e-07	-2.949358e-09	-2.799237e+00	-1.946032e+02
1.090000e-06	-3.462920e-07	-2.859350e-09	-2.485110e+00	-1.885361e+02
1.100000e-06	-3.024547e-07	-2.767531e-09	-2.170519e+00	-1.824112e+02
1.110000e-06	-2.585779e-07	-2.666933e-09	-1.855643e+00	-1.762124e+02
1.120000e-06	-2.146562e-07	-2.569898e-09	-1.540446e+00	-1.699147e+02
1.130000e-06	-1.707119e-07	-2.469637e-09	-1.225087e+00	-1.634949e+02
1.140000e-06	-1.267635e-07	-2.374382e-09	-9.096985e-01	-1.569402e+02
1.150000e-06	-8.278468e-08	-2.272663e-09	-5.940912e-01	-1.502540e+02
1.160000e-06	-3.879560e-08	-2.166266e-09	-2.784105e-01	-1.434551e+02
1.170000e-06	5.172084e-09	-2.062316e-09	3.711665e-02	-1.365713e+02
1.180000e-06	4.912387e-08	-1.954786e-09	3.525298e-01	-1.296296e+02
1.190000e-06	9.305400e-08	-1.851311e-09	6.677874e-01	-1.226454e+02
1.200000e-06	1.369745e-07	-1.740150e-09	9.829760e-01	-1.156175e+02
1.210000e-06	1.808823e-07	-1.628445e-09	1.298073e+00	-1.085274e+02
1.220000e-06	2.247490e-07	-1.518308e-09	1.612876e+00	-1.013457e+02
1.230000e-06	2.685649e-07	-1.402529e-09	1.927314e+00	-9.404243e+01
1.240000e-06	3.123187e-07	-1.286803e-09	2.241306e+00	-8.659699e+01
1.250000e-06	3.560159e-07	-1.165441e-09	2.554892e+00	-7.900501e+01
1.260000e-06	3.996304e-07	-1.047123e-09	2.867885e+00	-7.127925e+01
1.270000e-06	4.431517e-07	-9.286694e-10	3.180208e+00	-6.344443e+01
1.280000e-06	4.865990e-07	-8.067069e-10	3.492001e+00	-5.552817e+01
1.290000e-06	5.299632e-07	-6.832249e-10	3.803198e+00	-4.755131e+01
1.300000e-06	5.732449e-07	-5.553438e-10	4.113802e+00	-3.952114e+01
1.310000e-06	6.164501e-07	-4.328336e-10	4.423857e+00	-3.142981e+01
1.320000e-06	6.596011e-07	-3.076595e-10	4.733524e+00	-2.325839e+01
1.330000e-06	7.027012e-07	-1.787871e-10	5.042824e+00	-1.498473e+01
1.340000e-06	7.457310e-07	-5.107852e-11	5.351621e+00	-6.592287e+00
1.350000e-06	7.886593e-07	7.883132e-11	5.659689e+00	1.923427e+00
1.360000e-06	8.314400e-07	2.091777e-10	5.966698e+00	1.055274e+01
1.370000e-06	8.740142e-07	3.470918e-10	6.272225e+00	1.927475e+01
1.380000e-06	9.163088e-07	4.854495e-10	6.575746e+00	2.806372e+01
1.390000e-06	9.583224e-07	6.224619e-10	6.877250e+00	3.689666e+01
1.400000e-06	1.000113e-06	7.598580e-10	7.177155e+00	4.575904e+01
1.410000e-06	1.041739e-06	8.938485e-10	7.475875e+00	5.464688e+01
1.420000e-06	1.083247e-06	1.031748e-09	7.773749e+00	6.356466e+01
1.430000e-06	1.124629e-06	1.168747e-09	8.070723e+00	7.252002e+01
1.440000e-06	1.165840e-06	1.306399e-09	8.366465e+00	8.151756e+01
1.450000e-06	1.206830e-06	1.446004e-09	8.660625e+00	9.055391e+01
1.460000e-06	1.247603e-06	1.586751e-09	8.953227e+00	9.961595e+01
1.470000e-06	1.288157e-06	1.729734e-09	9.244259e+00	1.086827e+02
1.480000e-06	1.328463e-06	1.868177e-09	9.533503e+00	1.177298e+02
1.490000e-06	1.368572e-06	2.006547e-09	9.821342e+00	1.267354e+02
1.500000e-06	1.408529e-06	2.145083e-09	1.010808e+01	1.356845e+02
1.510000e-06	1.448274e-06	2.282857e-09	1.039331e+01	1.445709e+02
1.520000e-06	1.487735e-06	2.419430e-09	1.067650e+01	1.533960e+02
1.530000e-06	1.526782e-06	2.550376e-09	1.095671e+01	1.621651e+02
1.540000e-06	1.565418e-06	2.682952e-09	1.123397e+01	1.708818e+02
1.550000e-06	1.603792e-06	2.816834e-09	1.150936e+01	1.795440e+02
1.560000e-06	1.641919e-06	2.949064e-09	1.178297e+01	1.881412e+02
1.570000e-06	1.679762e-06	3.079282e-09	1.205455e+01	1.966550e+02
1.580000e-06	1.717316e-06	3.207163e-09	1.232405e+01	2.050621e+02
1.590000e-06	1.754569e-06	3.335864e-09	1.259139e+01	2.133389e+02
1.600000e-06	1.791540e-06	3.460113e-09	1.285670e+01	2.214664e+02
1.610000e-06	1.828284e-06	3.579483e-09	1.312039e+01	2.294330e+02
1.620000e-06	1.864738e-06	3.696333e-09	1.338200e+01	2.372360e+02
1.630000e-06	1.900748e-06	3.811376e-09	1.364042e+01	2.448800e+02
1.640000e-06	1.936264e-06	3.925650e-09	1.389529e+01	2.523734e+02
1.650000e-06	1.971439e-06	4.036305e-09	1.414772e+01	2.597244e+02
1.660000e-06	2.006356e-06	4.146169e-09	1.439829e+01	2.669376e+02
1.670000e-06	2.040955e-06	4.253947e-09	1.464660e+01	2.740115e+02
1.680000e-06	2.075196e-06	4.359759e-09	1.489232e+01	2.809391e+02
1.690000e-06	2.109097e-06	4.461010e-09	1.513560e+01	2.877098e+02
1.700000e-06	2.142720e-06	4.555751e-09	1.537689e+01	2.943131e+02
1.710000e-06	2.176051e-06	4.650785e-09	1.561609e+01	3.007418e+02
1.720000e-06	2.208925e-06	4.744698e-09	1.585200e+01	3.069950e+02
1.730000e-06	2.241316e-06	4.836747e-09	1.608445e+01	3.130786e+02
1.740000e-06	2.273351e-06	4.926979e-09	1.631435e+01	3.190042e+02
1.750000e-06	2.305010e-06	5.014906e-09	1.654154e+01	3.247853e+02
1.760000e-06	2.336240e-06	5.101398e-09	1.676566e+01	3.304343e+02
1.770000e-06	2.367038e-06	5.183847e-09	1.698668e+01	3.359588e+02
1.780000e-06	2.397459e-06	5.264378e-09	1.720499e+01	3.413600e+02
1.790000e-06	2.427432e-06	5.342758e-09	1.742008e+01	3.466332e+02
1.800000e-06	2.456804e-06	5.418255e-09	1.763087e+01	3.517704e+02
1.810000e-06	2.485662e-06	5.492890e-09	1.783796e+01	3.567639e+02
1.820000e-06	2.514136e-06	5.564596e-09	1.804230e+01	3.616098e+02
1.830000e-06	2.542197e-06	5.634769e-09	1.824368e+01	3.663099e+02
1.840000e-06	2.569805e-06	5.703966e-09	1.844180e+01	3.708715e+02
1.850000e-06	2.597030e-06	5.771147e-09	1.863718e+01	3.753050e+02
1.860000e-06	2.623845e-06	5.836091e-09	1.882961e+01	3.796199e+02
1.870000e-06	2.650054e-06	5.898477e-09	1.901770e+01	3.838221e+02
1.880000e-06	2.675726e-06	5.958072e-09	1.920193e+01	3.879108e+02
1.890000e-06	2.700995e-06	6.016813e-09	1.938326e+01	3.918800e+02
1.900000e-06	2.725828e-06	6.075386e-09	1.956148e+01	3.957206e+02
1.910000e-06	2.750225e-06	6.129054e-09	1.973655e+01	3.994249e+02
1.920000e-06	2.774230e-06	6.178699e-09	1.990882e+01	4.029902e+02
1.930000e-06	2.797784e-06	6.227514e-09	2.007786e+01	4.064217e+02
1.940000e-06	2.820712e-06	6.274984e-09	2.024239e+01	4.097306e+02
1.950000e-06	2.843056e-06	6.320817e-09	2.040274e+01	4.129320e+02
1.960000e-06	2.864919e-06	6.365804e-09	2.055964e+01	4.160391e+02
1.970000e-06	2.886286e-06	6.410278e-09	2.071298e+01	4.190590e+02
1.980000e-06	2.907108e-06	6.453587e-09	2.086241e+01	4.219908e+02
1.990000e-06	2.927266e-06	6.494624e-09	2.100706e+01	4.248262e+02
2.000000e-06	2.946764e-06	6.531593e-09	2.114699e+01	4.275538e+02
2.010000e-06	2.965734e-06	6.565219e-09	2.128312e+01	4.301645e+02
2.020000e-06	2.984191e-06	6.597796e-09	2.141558e+01	4.326569e+02
2.030000e-06	3.002156e-06	6.633047e-09	2.154450e+01	4.350391e+02
2.040000e-06	3.019708e-06	6.666853e-09	2.167046e+01	4.373273e+02
2.050000e-06	3.036721e-06	6.698641e-09	2.179255e+01	4.395409e+02
2.060000e-06	3.053094e-06	6.731579e-09	2.191005e+01	4.416952e+02
2.070000e-06	3.068919e-06	6.762624e-09	2.202362e+01	4.437959e+02
2.080000e-06	3.084232e-06	6.789336e-09	2.213351e+01	4.458361e+02
2.090000e-06	3.099056e-06	6.812453e-09	2.223989e+01	4.477985e+02
2.100000e-06	3.113448e-06	6.836082e-09	2.234317e+01	4.496616e+02
2.110000e-06	3.127275e-06	6.861282e-09	2.244240e+01	4.514074e+02
2.120000e-06	3.140453e-06	6.886908e-09	2.253697e+01	4.530287e+02
2.130000e-06	3.153086e-06	6.910040e-09	2.262762e+01	4.545326e+02
2.140000e-06	3.165195e-06	6.931372e-09	2.271452e+01	4.559387e+02
2.150000e-06	3.176803e-06	6.952112e-09	2.279782e+01	4.572725e+02
2.160000e-06	3.187931e-06	6.970678e-09	2.287768e+01	4.585570e+02
2.170000e-06	3.198451e-06	6.987533e-09	2.295318e+01	4.598047e+02
2.180000e-06	3.208295e-06	7.002527e-09	2.302382e+01	4.610136e+02
2.190000e-06	3.217566e-06	7.018560e-09	2.309036e+01	4.621691e+02
2.200000e-06	3.226311e-06	7.036491e-09	2.315312e+01	4.632506e+02
2.210000e-06	3.234549e-06	7.052103e-09	2.321223e+01	4.642407e+02
2.220000e-06	3.242277e-06	7.064667e-09	2.326769e+01	4.651327e+02
2.230000e-06	3.249423e-06	7.074707e-09	2.331897e+01	4.659349e+02
2.240000e-06	3.255985e-06	7.086719e-09	2.336606e+01	4.666683e+02
2.250000e-06	3.261958e-06	7.099511e-09	2.340893e+01	4.673590e+02
2.260000e-06	3.267317e-06	7.109262e-09	2.344739e+01	4.680287e+02
2.270000e-06	3.272071e-06	7.117281e-09	2.348150e+01	4.686860e+02
2.280000e-06	3.276114e-06	7.126105e-09	2.351051e+01	4.693232e+02
2.290000e-06	3.279459e-06	7.137560e-09	2.353452e+01	4.699189e+02
2.300000e-06	3.282254e-06	7.147896e-09	2.355458e+01	4.704460e+02
2.310000e-06	3.284509e-06	7.154453e-09	2.357076e+01	4.708825e+02
2.320000e-06	3.286235e-06	7.157161e-09	2.358315e+01	4.712204e+02
2.330000e-06	3.287378e-06	7.159692e-09	2.359135e+01	4.714695e+02
2.340000e-06	3.287859e-06	7.161765e-09	2.359480e+01	4.716542e+02
2.350000e-06	3.287759e-06	7.162718e-09	2.359409e+01	4.718046e+02
2.360000e-06	3.287132e-06	7.165630e-09	2.358959e+01	4.719448e+02
2.370000e-06	3.285987e-06	7.169073e-09	2.358137e+01	4.720835e+02
2.380000e-06	3.284383e-06	7.172139e-09	2.356986e+01	4.722103e+02
2.390000e-06	3.282220e-06	7.173200e-09	2.355433e+01	4.722985e+02
2.400000e-06	3.279413e-06	7.173571e-09	2.353419e+01	4.723156e+02
2.410000e-06	3.276085e-06	7.180128e-09	2.351031e+01	4.722351e+02
2.420000e-06	3.272257e-06	7.159538e-09	2.348284e+01	4.720478e+02
2.430000e-06	3.267720e-06	7.126711e-09	2.345028e+01	4.717663e+02
2.440000e-06	3.262135e-06	7.183275e-09	2.341020e+01	4.714222e+02
2.450000e-06	3.255706e-06	7.143730e-09	2.336406e+01	4.710564e+02
2.460000e-06	3.249140e-06	7.137972e-09	2.331694e+01	4.707056e+02
2.470000e-06	3.242411e-06	7.101028e-09	2.326865e+01	4.703909e+02
2.480000e-06	3.234881e-06	7.148373e-09	2.321461e+01	4.701108e+02
2.490000e-06	3.226502e-06	7.125960e-09	2.315448e+01	4.698425e+02
2.500000e-06	3.217983e-06	7.081449e-09	2.309335e+01	4.695493e+02
2.510000e-06	3.209106e-06	7.099181e-09	2.302964e+01	4.691927e+02
2.520000e-06	3.199203e-06	7.101902e-09	2.295858e+01	4.687430e+02
2.530000e-06	3.188627e-06	7.073691e-09	2.288268e+01	4.681863e+02
2.540000e-06	3.177846e-06	7.044096e-09	2.280531e+01	4.675252e+02
2.550000e-06	3.166469e-06	7.154742e-09	2.272366e+01	4.667735e+02
2.560000e-06	3.154186e-06	7.046757e-09	2.263552e+01	4.659483e+02
2.570000e-06	3.141445e-06	6.998766e-09	2.254409e+01	4.650621e+02
2.580000e-06	3.128281e-06	7.054635e-09	2.244962e+01	4.641195e+02
2.590000e-06	3.114472e-06	7.072870e-09	2.235052e+01	4.631176e+02
2.600000e-06	3.100220e-06	6.964807e-09	2.224824e+01	4.620512e+02
2.610000e-06	3.085531e-06	6.958966e-09	2.214283e+01	4.609188e+02
2.620000e-06	3.070094e-06	7.022328e-09	2.203205e+01	4.597273e+02
2.630000e-06	3.054049e-06	6.945368e-09	2.191690e+01	4.584919e+02
2.640000e-06	3.037560e-06	6.931806e-09	2.179857e+01	4.572315e+02
2.650000e-06	3.020465e-06	6.919293e-09	2.167589e+01	4.559621e+02
2.660000e-06	3.002896e-06	6.894659e-09	2.154981e+01	4.546890e+02
2.670000e-06	2.984936e-06	6.892189e-09	2.142092e+01	4.534035e+02
2.680000e-06	2.966326e-06	6.852239e-09	2.128737e+01	4.520843e+02
2.690000e-06	2.947058e-06	6.839738e-09	2.114910e+01	4.507040e+02
2.700000e-06	2.927273e-06	6.807049e-09	2.100711e+01	4.492388e+02
2.710000e-06	2.906979e-06	6.793351e-09	2.086147e+01	4.476770e+02
2.720000e-06	2.886152e-06	6.757244e-09	2.071202e+01	4.460239e+02
2.730000e-06	2.864695e-06	6.741009e-09	2.055804e+01	4.442998e+02
2.740000e-06	2.842591e-06	6.725432e-09	2.039941e+01	4.425332e+02
2.750000e-06	2.820006e-06	6.648352e-09	2.023733e+01	4.407507e+02
2.760000e-06	2.796958e-06	6.688426e-09	2.007193e+01	4.389676e+02
2.770000e-06	2.773396e-06	6.653462e-09	1.990284e+01	4.371829e+02
2.780000e-06	2.749451e-06	6.571012e-09	1.973100e+01	4.353802e+02
2.790000e-06	2.725023e-06	6.588052e-09	1.955570e+01	4.335343e+02
2.800000e-06	2.699964e-06	6.558969e-09	1.937586e+01	4.316210e+02
2.810000e-06	2.674446e-06	6.524971e-09	1.919274e+01	4.296258e+02
2.820000e-06	2.648494e-06	6.483927e-09	1.900650e+01	4.275487e+02
2.830000e-06	2.622048e-06	6.454219e-09	1.881672e+01	4.254031e+02
2.840000e-06	2.595199e-06	6.434107e-09	1.862404e+01	4.232099e+02
2.850000e-06	2.567969e-06	6.398957e-09	1.842862e+01	4.209888e+02
2.860000e-06	2.540202e-06	6.364428e-09	1.822936e+01	4.187508e+02
2.870000e-06	2.511865e-06	6.304321e-09	1.802600e+01	4.164942e+02
2.880000e-06	2.483077e-06	6.297752e-09	1.781941e+01	4.142070e+02
2.890000e-06	2.453878e-06	6.261085e-09	1.760987e+01	4.118716e+02
2.900000e-06	2.424288e-06	6.206498e-09	1.739752e+01	4.094736e+02
2.910000e-06	2.394260e-06	6.183887e-09	1.718203e+01	4.070068e+02
2.920000e-06	2.363744e-06	6.131089e-09	1.696304e+01	4.044751e+02
2.930000e-06	2.332704e-06	6.110339e-09	1.674028e+01	4.018903e+02
2.940000e-06	2.301139e-06	6.065457e-09	1.651377e+01	3.992649e+02
