# Temperatura_=_20.0
# Concentracion g/m^3_=_10000.0
# C_Vs_to_Am_M_A/Vsm_=_65563218390.804596
# pendiente_HvsI_1/m_=_3716.3
# ordenada_HvsI_A/m_=_1297.0
# frecuencia_Hz_=_212932.8046179347

Tiempo_(s)	Campo_(V.s)	Magnetizacion_(V.s)	Campo_(kA/m)	Magnetizacion_(A/m)
0.000000e+00	-3.261613e-06	-2.149920e-11	-2.355781e+01	-1.918694e+00
1.000000e-08	-3.261453e-06	-2.064099e-11	-2.355666e+01	-1.983134e+00
2.000000e-08	-3.260679e-06	-2.119001e-11	-2.355106e+01	-2.056289e+00
3.000000e-08	-3.259271e-06	-2.335567e-11	-2.354089e+01	-2.110381e+00
4.000000e-08	-3.257348e-06	-2.421950e-11	-2.352700e+01	-2.125083e+00
5.000000e-08	-3.254911e-06	-2.221330e-11	-2.350940e+01	-2.096395e+00
6.000000e-08	-3.251955e-06	-2.116491e-11	-2.348805e+01	-2.038863e+00
7.000000e-08	-3.248470e-06	-2.669732e-11	-2.346288e+01	-1.980154e+00
8.000000e-08	-3.244255e-06	-3.322032e-11	-2.343243e+01	-1.950136e+00
9.000000e-08	-3.239193e-06	-1.144561e-11	-2.339587e+01	-1.968813e+00
1.000000e-07	-3.233341e-06	1.223510e-11	-2.335360e+01	-2.037972e+00
1.100000e-07	-3.226954e-06	-4.027541e-11	-2.330747e+01	-2.139940e+00
1.200000e-07	-3.220180e-06	-6.052280e-11	-2.325855e+01	-2.243995e+00
1.300000e-07	-3.212815e-06	-2.544263e-11	-2.320535e+01	-2.317934e+00
1.400000e-07	-3.204913e-06	4.681623e-13	-2.314828e+01	-2.340240e+00
1.500000e-07	-3.196708e-06	-4.530322e-11	-2.308902e+01	-2.308042e+00
1.600000e-07	-3.187992e-06	-6.175005e-11	-2.302606e+01	-2.237738e+00
1.700000e-07	-3.178559e-06	-9.621441e-12	-2.295793e+01	-2.158083e+00
1.800000e-07	-3.168623e-06	-4.720683e-11	-2.288617e+01	-2.098514e+00
1.900000e-07	-3.158317e-06	-6.599798e-11	-2.281173e+01	-2.077372e+00
2.000000e-07	-3.147333e-06	-4.289831e-11	-2.273239e+01	-2.094704e+00
2.100000e-07	-3.135590e-06	-3.274030e-11	-2.264758e+01	-2.132455e+00
2.200000e-07	-3.123433e-06	-7.839472e-11	-2.255977e+01	-2.161958e+00
2.300000e-07	-3.110808e-06	-7.329964e-11	-2.246858e+01	-2.155684e+00
2.400000e-07	-3.097476e-06	-2.416297e-11	-2.237229e+01	-2.098584e+00
2.500000e-07	-3.083518e-06	-6.668092e-11	-2.227147e+01	-1.994501e+00
2.600000e-07	-3.069085e-06	-7.379500e-11	-2.216723e+01	-1.865141e+00
2.700000e-07	-3.054118e-06	-4.717006e-11	-2.205912e+01	-1.741996e+00
2.800000e-07	-3.038640e-06	-3.300938e-11	-2.194733e+01	-1.654420e+00
2.900000e-07	-3.022641e-06	-4.270659e-11	-2.183177e+01	-1.618509e+00
3.000000e-07	-3.005926e-06	-6.361088e-11	-2.171105e+01	-1.631106e+00
3.100000e-07	-2.988592e-06	-4.520923e-11	-2.158585e+01	-1.671197e+00
3.200000e-07	-2.970821e-06	-3.728813e-11	-2.145749e+01	-1.708066e+00
3.300000e-07	-2.952487e-06	-4.898862e-11	-2.132507e+01	-1.712978e+00
3.400000e-07	-2.933589e-06	-6.326818e-11	-2.118857e+01	-1.669866e+00
3.500000e-07	-2.914239e-06	-4.082754e-11	-2.104881e+01	-1.580956e+00
3.600000e-07	-2.894221e-06	-3.137088e-11	-2.090423e+01	-1.465345e+00
3.700000e-07	-2.873416e-06	-5.837986e-11	-2.075396e+01	-1.351292e+00
3.800000e-07	-2.852041e-06	-2.958578e-11	-2.059957e+01	-1.265393e+00
3.900000e-07	-2.830203e-06	-3.211297e-11	-2.044184e+01	-1.222880e+00
4.000000e-07	-2.807938e-06	-6.174594e-11	-2.028103e+01	-1.222728e+00
4.100000e-07	-2.785225e-06	-2.988811e-11	-2.011698e+01	-1.249216e+00
4.200000e-07	-2.761897e-06	-1.971497e-11	-1.994848e+01	-1.279039e+00
4.300000e-07	-2.738008e-06	-4.838424e-11	-1.977594e+01	-1.290920e+00
4.400000e-07	-2.713715e-06	-5.134145e-11	-1.960048e+01	-1.273856e+00
4.500000e-07	-2.688999e-06	-2.390566e-11	-1.942196e+01	-1.230798e+00
4.600000e-07	-2.663826e-06	-3.267614e-11	-1.924014e+01	-1.176539e+00
4.700000e-07	-2.638242e-06	-3.988221e-11	-1.905535e+01	-1.130908e+00
4.800000e-07	-2.612197e-06	-2.363636e-11	-1.886724e+01	-1.110220e+00
4.900000e-07	-2.585570e-06	-3.209133e-11	-1.867492e+01	-1.120472e+00
5.000000e-07	-2.558460e-06	-2.157415e-11	-1.847911e+01	-1.154986e+00
5.100000e-07	-2.530967e-06	-2.044339e-11	-1.828053e+01	-1.197289e+00
5.200000e-07	-2.503055e-06	-3.916945e-11	-1.807893e+01	-1.227903e+00
5.300000e-07	-2.474732e-06	-3.615088e-11	-1.787436e+01	-1.232203e+00
5.400000e-07	-2.446019e-06	-2.335323e-11	-1.766698e+01	-1.206140e+00
5.500000e-07	-2.416863e-06	-1.473600e-11	-1.745639e+01	-1.157617e+00
5.600000e-07	-2.387132e-06	-2.475158e-11	-1.724165e+01	-1.103071e+00
5.700000e-07	-2.356868e-06	-2.416340e-11	-1.702306e+01	-1.060764e+00
5.800000e-07	-2.326189e-06	-1.467643e-11	-1.680148e+01	-1.043527e+00
5.900000e-07	-2.295081e-06	-1.603552e-11	-1.657679e+01	-1.053829e+00
6.000000e-07	-2.263510e-06	-2.137201e-11	-1.634876e+01	-1.083034e+00
6.100000e-07	-2.231425e-06	-3.122775e-11	-1.611702e+01	-1.115000e+00
6.200000e-07	-2.198934e-06	-2.068909e-11	-1.588235e+01	-1.132462e+00
6.300000e-07	-2.166067e-06	-1.462364e-11	-1.564496e+01	-1.123656e+00
6.400000e-07	-2.132793e-06	-2.033187e-11	-1.540462e+01	-1.086621e+00
6.500000e-07	-2.099239e-06	-1.825308e-11	-1.516228e+01	-1.029673e+00
6.600000e-07	-2.065399e-06	-2.071860e-11	-1.491786e+01	-9.680524e-01
6.700000e-07	-2.031179e-06	-1.294736e-11	-1.467069e+01	-9.182386e-01
6.800000e-07	-1.996584e-06	-9.161148e-12	-1.442083e+01	-8.921707e-01
6.900000e-07	-1.961680e-06	-1.439535e-11	-1.416872e+01	-8.935148e-01
7.000000e-07	-1.926536e-06	-1.939191e-11	-1.391488e+01	-9.171576e-01
7.100000e-07	-1.891047e-06	-1.869790e-11	-1.365856e+01	-9.517924e-01
7.200000e-07	-1.855076e-06	-8.590249e-12	-1.339874e+01	-9.843122e-01
7.300000e-07	-1.818682e-06	-1.280670e-11	-1.313588e+01	-1.004185e+00
7.400000e-07	-1.781974e-06	-1.718200e-11	-1.287075e+01	-1.006209e+00
7.500000e-07	-1.744995e-06	-1.283665e-11	-1.260366e+01	-9.908865e-01
7.600000e-07	-1.707744e-06	-9.242531e-12	-1.233460e+01	-9.626775e-01
7.700000e-07	-1.670214e-06	-9.133509e-12	-1.206354e+01	-9.272116e-01
7.800000e-07	-1.632412e-06	-1.916348e-11	-1.179050e+01	-8.887915e-01
7.900000e-07	-1.594349e-06	-1.933427e-11	-1.151558e+01	-8.491836e-01
8.000000e-07	-1.556066e-06	-1.283496e-11	-1.123907e+01	-8.079792e-01
8.100000e-07	-1.517536e-06	-9.385034e-12	-1.096078e+01	-7.640557e-01
8.200000e-07	-1.478696e-06	-8.502543e-12	-1.068025e+01	-7.172234e-01
8.300000e-07	-1.439453e-06	-1.318675e-11	-1.039680e+01	-6.691697e-01
8.400000e-07	-1.399857e-06	-9.987922e-12	-1.011081e+01	-6.232609e-01
8.500000e-07	-1.360065e-06	-8.851715e-12	-9.823408e+00	-5.833757e-01
8.600000e-07	-1.320110e-06	-1.248258e-11	-9.534821e+00	-5.524293e-01
8.700000e-07	-1.279981e-06	-1.678092e-11	-9.244981e+00	-5.313636e-01
8.800000e-07	-1.239652e-06	-1.916392e-11	-8.953693e+00	-5.191012e-01
8.900000e-07	-1.199106e-06	-1.064319e-11	-8.660843e+00	-5.134345e-01
9.000000e-07	-1.158346e-06	-5.788706e-12	-8.366438e+00	-5.123203e-01
9.100000e-07	-1.117376e-06	-6.007546e-12	-8.070527e+00	-5.148337e-01
9.200000e-07	-1.076209e-06	-7.881489e-12	-7.773187e+00	-5.212123e-01
9.300000e-07	-1.034884e-06	-1.011724e-11	-7.474703e+00	-5.319082e-01
9.400000e-07	-9.934392e-07	-1.015646e-11	-7.175361e+00	-5.461281e-01
9.500000e-07	-9.518804e-07	-1.631272e-11	-6.875192e+00	-5.606881e-01
9.600000e-07	-9.101708e-07	-1.930952e-11	-6.573934e+00	-5.699515e-01
9.700000e-07	-8.682657e-07	-1.512214e-11	-6.271264e+00	-5.671548e-01
9.800000e-07	-8.260948e-07	-9.279649e-12	-5.966674e+00	-5.467535e-01
9.900000e-07	-7.836907e-07	-5.895723e-12	-5.660400e+00	-5.068496e-01
1.000000e-06	-7.410849e-07	-9.490419e-12	-5.352669e+00	-4.505845e-01
1.010000e-06	-6.982709e-07	-9.306051e-12	-5.043434e+00	-3.857072e-01
1.020000e-06	-6.553289e-07	-8.839304e-12	-4.733276e+00	-3.222631e-01
1.030000e-06	-6.122930e-07	-9.541852e-12	-4.422438e+00	-2.691730e-01
1.040000e-06	-5.691810e-07	-9.904310e-12	-4.111051e+00	-2.310354e-01
1.050000e-06	-5.259899e-07	-1.083816e-11	-3.799092e+00	-2.064932e-01
1.060000e-06	-4.827538e-07	-6.278411e-12	-3.486809e+00	-1.889373e-01
1.070000e-06	-4.394654e-07	-3.389278e-12	-3.174148e+00	-1.693649e-01
1.080000e-06	-3.960808e-07	-1.481152e-12	-2.860792e+00	-1.402839e-01
1.090000e-06	-3.526212e-07	-2.627485e-12	-2.546894e+00	-9.904802e-02
1.100000e-06	-3.090734e-07	-3.335185e-12	-2.232359e+00	-4.917595e-02
1.110000e-06	-2.654578e-07	1.196622e-12	-1.917334e+00	9.894927e-04
1.120000e-06	-2.217931e-07	2.014187e-12	-1.601956e+00	4.181041e-02
1.130000e-06	-1.781066e-07	9.109251e-13	-1.286419e+00	6.662757e-02
1.140000e-06	-1.344182e-07	-1.401844e-12	-9.708688e-01	7.494642e-02
1.150000e-06	-9.071685e-08	-2.003501e-12	-6.552249e-01	7.308604e-02
1.160000e-06	-4.700164e-08	1.605411e-13	-3.394810e-01	7.187183e-02
1.170000e-06	-3.271868e-09	-6.635393e-13	-2.363187e-02	8.221445e-02
1.180000e-06	4.045584e-08	-8.880342e-13	2.922023e-01	1.103785e-01
1.190000e-06	8.416941e-08	3.872167e-13	6.079344e-01	1.549773e-01
1.200000e-06	1.278598e-07	3.805437e-12	9.234991e-01	2.070970e-01
1.210000e-06	1.715253e-07	5.882992e-12	1.238884e+00	2.536889e-01
1.220000e-06	2.151430e-07	3.718229e-12	1.553924e+00	2.829745e-01
1.230000e-06	2.586954e-07	2.992390e-12	1.868491e+00	2.896800e-01
1.240000e-06	3.021810e-07	3.803403e-12	2.182577e+00	2.778656e-01
1.250000e-06	3.455933e-07	5.950281e-12	2.496133e+00	2.600063e-01
1.260000e-06	3.889173e-07	5.262581e-12	2.809052e+00	2.524816e-01
1.270000e-06	4.321769e-07	4.935616e-12	3.121505e+00	2.691432e-01
1.280000e-06	4.753878e-07	6.875007e-12	3.433606e+00	3.155109e-01
1.290000e-06	5.185574e-07	9.335924e-12	3.745409e+00	3.860189e-01
1.300000e-06	5.616850e-07	1.267929e-11	4.056909e+00	4.655918e-01
1.310000e-06	6.047653e-07	1.051406e-11	4.368067e+00	5.351155e-01
1.320000e-06	6.477935e-07	7.863736e-12	4.678849e+00	5.787670e-01
1.330000e-06	6.907420e-07	8.591126e-12	4.989055e+00	5.903345e-01
1.340000e-06	7.335491e-07	8.277914e-12	5.298240e+00	5.759673e-01
1.350000e-06	7.761493e-07	6.946824e-12	5.605930e+00	5.521518e-01
1.360000e-06	8.185116e-07	5.138950e-12	5.911903e+00	5.395894e-01
1.370000e-06	8.606316e-07	5.990478e-12	6.216125e+00	5.553060e-01
1.380000e-06	9.025336e-07	8.470894e-12	6.518772e+00	6.060770e-01
1.390000e-06	9.442368e-07	8.768262e-12	6.819984e+00	6.857730e-01
1.400000e-06	9.858007e-07	1.045584e-11	7.120190e+00	7.777049e-01
1.410000e-06	1.027281e-06	1.351126e-11	7.419789e+00	8.610601e-01
1.420000e-06	1.068648e-06	1.773333e-11	7.718575e+00	9.188821e-01
1.430000e-06	1.109837e-06	1.809316e-11	8.016071e+00	9.444199e-01
1.440000e-06	1.150827e-06	1.419723e-11	8.312135e+00	9.433217e-01
1.450000e-06	1.191612e-06	1.263485e-11	8.606711e+00	9.308237e-01
1.460000e-06	1.232160e-06	1.519486e-11	8.899579e+00	9.251151e-01
1.470000e-06	1.272453e-06	1.971901e-11	9.190606e+00	9.396089e-01
1.480000e-06	1.312525e-06	2.107123e-11	9.480037e+00	9.773002e-01
1.490000e-06	1.352447e-06	2.109168e-11	9.768381e+00	1.029534e+00
1.500000e-06	1.392225e-06	2.255040e-11	1.005569e+01	1.079697e+00
1.510000e-06	1.431746e-06	2.276745e-11	1.034114e+01	1.110311e+00
1.520000e-06	1.470853e-06	2.032478e-11	1.062360e+01	1.110601e+00
1.530000e-06	1.509546e-06	1.685905e-11	1.090307e+01	1.081379e+00
1.540000e-06	1.547966e-06	1.641539e-11	1.118057e+01	1.035190e+00
1.550000e-06	1.586174e-06	1.820334e-11	1.145654e+01	9.915869e-01
1.560000e-06	1.624117e-06	1.842160e-11	1.173058e+01	9.694371e-01
1.570000e-06	1.661758e-06	1.983974e-11	1.200246e+01	9.793999e-01
1.580000e-06	1.699120e-06	2.205632e-11	1.227231e+01	1.019666e+00
1.590000e-06	1.736190e-06	2.437802e-11	1.254006e+01	1.076748e+00
1.600000e-06	1.773006e-06	2.520119e-11	1.280597e+01	1.131023e+00
1.610000e-06	1.809609e-06	2.398681e-11	1.307035e+01	1.164790e+00
1.620000e-06	1.845870e-06	2.400485e-11	1.333225e+01	1.169514e+00
1.630000e-06	1.881631e-06	2.526364e-11	1.359054e+01	1.149286e+00
1.640000e-06	1.916938e-06	2.679087e-11	1.384556e+01	1.119026e+00
1.650000e-06	1.951953e-06	2.713784e-11	1.409846e+01	1.098167e+00
1.660000e-06	1.986706e-06	2.722450e-11	1.434948e+01	1.102410e+00
1.670000e-06	2.021133e-06	2.755612e-11	1.459814e+01	1.136981e+00
1.680000e-06	2.055224e-06	2.795006e-11	1.484437e+01	1.194236e+00
1.690000e-06	2.088985e-06	2.809054e-11	1.508822e+01	1.256665e+00
1.700000e-06	2.122461e-06	2.796306e-11	1.533000e+01	1.304147e+00
1.710000e-06	2.155628e-06	2.978815e-11	1.556956e+01	1.322479e+00
1.720000e-06	2.188341e-06	3.275460e-11	1.580583e+01	1.309671e+00
1.730000e-06	2.220626e-06	3.291890e-11	1.603902e+01	1.277334e+00
1.740000e-06	2.252571e-06	3.188565e-11	1.626975e+01	1.246495e+00
1.750000e-06	2.284097e-06	3.174388e-11	1.649745e+01	1.239432e+00
1.760000e-06	2.315184e-06	3.153842e-11	1.672199e+01	1.270812e+00
1.770000e-06	2.345880e-06	3.083132e-11	1.694370e+01	1.341694e+00
1.780000e-06	2.376205e-06	3.050618e-11	1.716273e+01	1.438852e+00
1.790000e-06	2.406055e-06	3.175438e-11	1.737833e+01	1.539718e+00
1.800000e-06	2.435297e-06	3.442837e-11	1.758953e+01	1.620939e+00
1.810000e-06	2.464062e-06	3.794119e-11	1.779730e+01	1.667100e+00
1.820000e-06	2.492445e-06	3.889093e-11	1.800230e+01	1.676079e+00
1.830000e-06	2.520413e-06	3.803772e-11	1.820430e+01	1.658909e+00
1.840000e-06	2.547959e-06	3.750680e-11	1.840327e+01	1.634300e+00
1.850000e-06	2.575120e-06	3.637267e-11	1.859944e+01	1.620187e+00
1.860000e-06	2.601871e-06	3.483420e-11	1.879266e+01	1.625903e+00
1.870000e-06	2.628070e-06	3.345478e-11	1.898189e+01	1.648328e+00
1.880000e-06	2.653729e-06	3.380996e-11	1.916722e+01	1.673655e+00
1.890000e-06	2.678953e-06	3.668313e-11	1.934940e+01	1.684070e+00
1.900000e-06	2.703739e-06	3.955149e-11	1.952843e+01	1.666480e+00
1.910000e-06	2.728079e-06	3.967189e-11	1.970423e+01	1.619515e+00
1.920000e-06	2.752037e-06	3.791339e-11	1.987727e+01	1.555642e+00
1.930000e-06	2.775507e-06	3.594224e-11	2.004679e+01	1.497246e+00
1.940000e-06	2.798346e-06	3.399549e-11	2.021175e+01	1.468048e+00
1.950000e-06	2.820636e-06	3.281232e-11	2.037274e+01	1.483282e+00
1.960000e-06	2.842453e-06	3.391579e-11	2.053032e+01	1.542705e+00
1.970000e-06	2.863790e-06	3.567563e-11	2.068443e+01	1.629490e+00
1.980000e-06	2.884582e-06	3.784128e-11	2.083460e+01	1.715776e+00
1.990000e-06	2.904684e-06	4.002618e-11	2.097980e+01	1.772890e+00
2.000000e-06	2.924121e-06	3.993103e-11	2.112019e+01	1.782331e+00
2.010000e-06	2.943045e-06	3.798518e-11	2.125687e+01	1.743157e+00
2.020000e-06	2.961479e-06	3.547332e-11	2.139002e+01	1.672724e+00
2.030000e-06	2.979438e-06	3.442129e-11	2.151973e+01	1.600362e+00
2.040000e-06	2.996939e-06	3.403135e-11	2.164614e+01	1.556334e+00
2.050000e-06	3.013896e-06	3.343699e-11	2.176861e+01	1.560380e+00
2.060000e-06	3.030235e-06	3.354497e-11	2.188662e+01	1.614332e+00
2.070000e-06	3.046036e-06	3.494113e-11	2.200075e+01	1.701737e+00
2.080000e-06	3.061357e-06	3.674478e-11	2.211141e+01	1.794625e+00
2.090000e-06	3.076187e-06	3.814658e-11	2.221852e+01	1.864717e+00
2.100000e-06	3.090559e-06	3.896523e-11	2.232233e+01	1.894573e+00
2.110000e-06	3.104386e-06	3.873784e-11	2.242220e+01	1.884205e+00
2.120000e-06	3.117581e-06	3.836558e-11	2.251750e+01	1.850494e+00
2.130000e-06	3.130215e-06	3.720919e-11	2.260875e+01	1.819640e+00
2.140000e-06	3.142345e-06	3.539457e-11	2.269636e+01	1.815743e+00
2.150000e-06	3.153985e-06	3.487028e-11	2.278043e+01	1.850177e+00
2.160000e-06	3.165142e-06	3.628783e-11	2.286102e+01	1.916151e+00
2.170000e-06	3.175703e-06	3.817779e-11	2.293730e+01	1.990791e+00
2.180000e-06	3.185606e-06	3.937429e-11	2.300883e+01	2.044029e+00
2.190000e-06	3.194935e-06	3.969802e-11	2.307621e+01	2.050815e+00
2.200000e-06	3.203730e-06	3.987457e-11	2.313973e+01	2.001758e+00
2.210000e-06	3.212028e-06	3.838941e-11	2.319967e+01	1.907863e+00
2.220000e-06	3.219851e-06	3.490522e-11	2.325617e+01	1.797343e+00
2.230000e-06	3.227105e-06	3.056378e-11	2.330856e+01	1.705605e+00
2.240000e-06	3.233723e-06	2.782731e-11	2.335637e+01	1.662264e+00
2.250000e-06	3.239740e-06	2.919504e-11	2.339983e+01	1.680236e+00
2.260000e-06	3.245181e-06	3.083696e-11	2.343912e+01	1.751163e+00
2.270000e-06	3.250023e-06	3.248403e-11	2.347410e+01	1.848949e+00
2.280000e-06	3.254179e-06	3.607902e-11	2.350412e+01	1.939985e+00
2.290000e-06	3.257666e-06	3.971092e-11	2.352930e+01	1.996015e+00
2.300000e-06	3.260594e-06	4.066117e-11	2.355045e+01	2.004579e+00
2.310000e-06	3.262968e-06	3.708407e-11	2.356760e+01	1.972988e+00
2.320000e-06	3.264790e-06	3.218042e-11	2.358075e+01	1.924379e+00
2.330000e-06	3.266078e-06	3.175065e-11	2.359006e+01	1.887576e+00
2.340000e-06	3.266714e-06	3.452096e-11	2.359465e+01	1.884943e+00
2.350000e-06	3.266735e-06	3.662229e-11	2.359480e+01	1.923172e+00
2.360000e-06	3.266252e-06	3.923173e-11	2.359132e+01	1.990701e+00
2.370000e-06	3.265238e-06	4.277135e-11	2.358399e+01	2.062767e+00
2.380000e-06	3.263739e-06	4.373938e-11	2.357316e+01	2.111973e+00
2.390000e-06	3.261702e-06	4.178539e-11	2.355845e+01	2.120007e+00
2.400000e-06	3.259014e-06	3.815727e-11	2.353903e+01	2.085700e+00
2.410000e-06	3.255750e-06	3.231412e-11	2.351546e+01	2.026085e+00
2.420000e-06	3.252009e-06	2.485247e-11	2.348844e+01	1.969939e+00
2.430000e-06	3.247669e-06	4.663012e-11	2.345709e+01	1.946381e+00
2.440000e-06	3.242357e-06	7.522083e-11	2.341873e+01	1.973068e+00
2.450000e-06	3.236106e-06	2.651029e-11	2.337357e+01	2.048752e+00
2.460000e-06	3.229572e-06	1.087928e-11	2.332638e+01	2.153225e+00
2.470000e-06	3.222934e-06	3.970580e-11	2.327844e+01	2.254732e+00
2.480000e-06	3.215640e-06	6.869689e-11	2.322576e+01	2.321953e+00
2.490000e-06	3.207471e-06	2.557008e-11	2.316675e+01	2.335815e+00
2.500000e-06	3.199043e-06	1.502210e-11	2.310588e+01	2.296495e+00
2.510000e-06	3.190351e-06	5.975696e-11	2.304310e+01	2.222845e+00
2.520000e-06	3.180706e-06	2.415180e-11	2.297344e+01	2.144528e+00
2.530000e-06	3.170291e-06	-1.284521e-11	2.289821e+01	2.090003e+00
2.540000e-06	3.159651e-06	2.351761e-11	2.282136e+01	2.075165e+00
2.550000e-06	3.148512e-06	5.301446e-11	2.274091e+01	2.097136e+00
2.560000e-06	3.136442e-06	-2.624061e-11	2.265373e+01	2.135643e+00
2.570000e-06	3.123797e-06	-1.491637e-11	2.256240e+01	2.161395e+00
2.580000e-06	3.110779e-06	4.704850e-11	2.246837e+01	2.148085e+00
2.590000e-06	3.097145e-06	9.516660e-12	2.236990e+01	2.083257e+00
2.600000e-06	3.082977e-06	-2.853511e-11	2.226756e+01	1.973692e+00
2.610000e-06	3.068408e-06	1.155308e-12	2.216234e+01	1.843218e+00
2.620000e-06	3.053161e-06	2.119975e-11	2.205221e+01	1.723803e+00
2.630000e-06	3.037279e-06	-4.495911e-13	2.193750e+01	1.643438e+00
2.640000e-06	3.020971e-06	-2.668070e-12	2.181971e+01	1.615545e+00
2.650000e-06	3.004070e-06	2.377297e-12	2.169764e+01	1.634014e+00
2.660000e-06	2.986641e-06	7.688217e-12	2.157176e+01	1.675721e+00
2.670000e-06	2.968860e-06	7.386701e-12	2.144333e+01	1.709474e+00
2.680000e-06	2.950543e-06	-2.143356e-11	2.131103e+01	1.707842e+00
2.690000e-06	2.931557e-06	1.106526e-11	2.117390e+01	1.657307e+00
2.700000e-06	2.912057e-06	2.072838e-11	2.103305e+01	1.562890e+00
2.710000e-06	2.892059e-06	-1.980985e-11	2.088861e+01	1.445676e+00
2.720000e-06	2.871492e-06	5.908422e-12	2.074006e+01	1.334387e+00
2.730000e-06	2.850339e-06	1.479723e-11	2.058728e+01	1.254448e+00
2.740000e-06	2.828542e-06	-2.370635e-11	2.042984e+01	1.218814e+00
2.750000e-06	2.806177e-06	-1.303694e-11	2.026831e+01	1.223998e+00
2.760000e-06	2.783344e-06	2.466418e-11	2.010339e+01	1.252585e+00
2.770000e-06	2.760006e-06	-4.879914e-12	1.993483e+01	1.280950e+00
2.780000e-06	2.736220e-06	-1.425723e-11	1.976303e+01	1.288915e+00
2.790000e-06	2.712014e-06	1.790722e-11	1.958819e+01	1.267474e+00
2.800000e-06	2.687275e-06	3.879339e-13	1.940951e+01	1.221628e+00
2.810000e-06	2.662002e-06	5.234488e-13	1.922697e+01	1.167440e+00
2.820000e-06	2.636280e-06	2.818338e-12	1.904119e+01	1.124755e+00
2.830000e-06	2.610082e-06	-6.733710e-12	1.885196e+01	1.108686e+00
2.840000e-06	2.583436e-06	1.737983e-11	1.865950e+01	1.123350e+00
2.850000e-06	2.556401e-06	1.304073e-11	1.846424e+01	1.160297e+00
2.860000e-06	2.528928e-06	-3.842302e-13	1.826581e+01	1.202106e+00
2.870000e-06	2.500949e-06	3.947722e-12	1.806372e+01	1.229546e+00
2.880000e-06	2.472448e-06	1.396157e-11	1.785787e+01	1.229300e+00
2.890000e-06	2.443517e-06	1.837175e-11	1.764891e+01	1.199148e+00
2.900000e-06	2.414209e-06	8.104541e-12	1.743722e+01	1.148594e+00
2.910000e-06	2.384496e-06	9.011172e-12	1.722261e+01	1.094827e+00
2.920000e-06	2.354320e-06	1.189350e-11	1.700466e+01	1.055729e+00
2.930000e-06	2.323614e-06	1.462111e-11	1.678288e+01	1.042802e+00
2.940000e-06	2.292385e-06	1.024004e-11	1.655732e+01	1.056784e+00
2.950000e-06	2.260680e-06	7.248351e-12	1.632832e+01	1.087592e+00
