# Temperatura_=_20.0
# Concentracion g/m^3_=_10000.0
# C_Vs_to_Am_M_A/Vsm_=_65563218390.804596
# pendiente_HvsI_1/m_=_3716.3
# ordenada_HvsI_A/m_=_1297.0
# frecuencia_Hz_=_212936.9136601602

Tiempo_(s)	Campo_(V.s)	Magnetizacion_(V.s)	Campo_(kA/m)	Magnetizacion_(A/m)
0.000000e+00	-3.296274e-06	-7.238164e-09	-2.355882e+01	-4.715825e+02
1.000000e-08	-3.296038e-06	-7.237789e-09	-2.355713e+01	-4.716934e+02
2.000000e-08	-3.295169e-06	-7.237918e-09	-2.355092e+01	-4.718004e+02
3.000000e-08	-3.293695e-06	-7.237533e-09	-2.354039e+01	-4.719004e+02
4.000000e-08	-3.291736e-06	-7.239458e-09	-2.352639e+01	-4.719756e+02
5.000000e-08	-3.289277e-06	-7.241316e-09	-2.350881e+01	-4.719996e+02
6.000000e-08	-3.286307e-06	-7.240866e-09	-2.348759e+01	-4.719470e+02
7.000000e-08	-3.282744e-06	-7.237415e-09	-2.346212e+01	-4.718031e+02
8.000000e-08	-3.278426e-06	-7.246785e-09	-2.343126e+01	-4.715691e+02
9.000000e-08	-3.273239e-06	-7.236478e-09	-2.339419e+01	-4.712627e+02
1.000000e-07	-3.267217e-06	-7.203083e-09	-2.335115e+01	-4.709132e+02
1.100000e-07	-3.260671e-06	-7.251363e-09	-2.330436e+01	-4.705523e+02
1.200000e-07	-3.253743e-06	-7.216701e-09	-2.325484e+01	-4.702047e+02
1.300000e-07	-3.246251e-06	-7.207742e-09	-2.320130e+01	-4.698808e+02
1.400000e-07	-3.238241e-06	-7.183317e-09	-2.314405e+01	-4.695737e+02
1.500000e-07	-3.229884e-06	-7.233981e-09	-2.308432e+01	-4.692614e+02
1.600000e-07	-3.221002e-06	-7.227077e-09	-2.302084e+01	-4.689133e+02
1.700000e-07	-3.211394e-06	-7.123770e-09	-2.295218e+01	-4.684976e+02
1.800000e-07	-3.201262e-06	-7.196863e-09	-2.287976e+01	-4.679889e+02
1.900000e-07	-3.190736e-06	-7.174310e-09	-2.280453e+01	-4.673729e+02
2.000000e-07	-3.179553e-06	-7.167875e-09	-2.272460e+01	-4.666467e+02
2.100000e-07	-3.167648e-06	-7.108586e-09	-2.263952e+01	-4.658176e+02
2.200000e-07	-3.155306e-06	-7.137814e-09	-2.255131e+01	-4.648990e+02
2.300000e-07	-3.142488e-06	-7.116757e-09	-2.245969e+01	-4.639063e+02
2.400000e-07	-3.128973e-06	-7.038626e-09	-2.236310e+01	-4.628545e+02
2.500000e-07	-3.114848e-06	-7.099528e-09	-2.226215e+01	-4.617564e+02
2.600000e-07	-3.100249e-06	-7.048270e-09	-2.215781e+01	-4.606224e+02
2.700000e-07	-3.085054e-06	-7.029090e-09	-2.204920e+01	-4.594606e+02
2.800000e-07	-3.069314e-06	-7.024108e-09	-2.193671e+01	-4.582767e+02
2.900000e-07	-3.053054e-06	-7.009458e-09	-2.182050e+01	-4.570728e+02
3.000000e-07	-3.036108e-06	-6.984067e-09	-2.169939e+01	-4.558467e+02
3.100000e-07	-3.018613e-06	-6.947093e-09	-2.157435e+01	-4.545909e+02
3.200000e-07	-3.000661e-06	-6.955067e-09	-2.144604e+01	-4.532930e+02
3.300000e-07	-2.982120e-06	-6.900058e-09	-2.131352e+01	-4.519381e+02
3.400000e-07	-2.963047e-06	-6.901299e-09	-2.117721e+01	-4.505117e+02
3.500000e-07	-2.943430e-06	-6.885366e-09	-2.103701e+01	-4.490042e+02
3.600000e-07	-2.923084e-06	-6.822592e-09	-2.089159e+01	-4.474134e+02
3.700000e-07	-2.902025e-06	-6.839202e-09	-2.074108e+01	-4.457456e+02
3.800000e-07	-2.880416e-06	-6.798864e-09	-2.058664e+01	-4.440145e+02
3.900000e-07	-2.858365e-06	-6.767713e-09	-2.042904e+01	-4.422375e+02
4.000000e-07	-2.835892e-06	-6.742994e-09	-2.026842e+01	-4.404306e+02
4.100000e-07	-2.812859e-06	-6.709550e-09	-2.010380e+01	-4.386047e+02
4.200000e-07	-2.789206e-06	-6.690794e-09	-1.993475e+01	-4.367628e+02
4.300000e-07	-2.765097e-06	-6.649490e-09	-1.976244e+01	-4.349001e+02
4.400000e-07	-2.740559e-06	-6.643483e-09	-1.958706e+01	-4.330064e+02
4.500000e-07	-2.715558e-06	-6.591777e-09	-1.940838e+01	-4.310701e+02
4.600000e-07	-2.690144e-06	-6.572792e-09	-1.922675e+01	-4.290821e+02
4.700000e-07	-2.664259e-06	-6.550048e-09	-1.904174e+01	-4.270382e+02
4.800000e-07	-2.637773e-06	-6.490773e-09	-1.885244e+01	-4.249398e+02
4.900000e-07	-2.610781e-06	-6.484983e-09	-1.865953e+01	-4.227922e+02
5.000000e-07	-2.583418e-06	-6.436599e-09	-1.846396e+01	-4.206020e+02
5.100000e-07	-2.555641e-06	-6.402095e-09	-1.826543e+01	-4.183738e+02
5.200000e-07	-2.527421e-06	-6.374117e-09	-1.806375e+01	-4.161086e+02
5.300000e-07	-2.498815e-06	-6.334268e-09	-1.785930e+01	-4.138038e+02
5.400000e-07	-2.469795e-06	-6.303036e-09	-1.765189e+01	-4.114539e+02
5.500000e-07	-2.440210e-06	-6.248932e-09	-1.744044e+01	-4.090535e+02
5.600000e-07	-2.410064e-06	-6.224936e-09	-1.722499e+01	-4.065988e+02
5.700000e-07	-2.379451e-06	-6.180272e-09	-1.700619e+01	-4.040891e+02
5.800000e-07	-2.348406e-06	-6.136796e-09	-1.678431e+01	-4.015260e+02
5.900000e-07	-2.316898e-06	-6.105797e-09	-1.655911e+01	-3.989126e+02
6.000000e-07	-2.284850e-06	-6.053464e-09	-1.633007e+01	-3.962509e+02
6.100000e-07	-2.252367e-06	-6.023157e-09	-1.609791e+01	-3.935407e+02
6.200000e-07	-2.219511e-06	-5.966101e-09	-1.586308e+01	-3.907794e+02
6.300000e-07	-2.186260e-06	-5.922233e-09	-1.562543e+01	-3.879626e+02
6.400000e-07	-2.152701e-06	-5.883872e-09	-1.538558e+01	-3.850861e+02
6.500000e-07	-2.118830e-06	-5.828013e-09	-1.514351e+01	-3.821479e+02
6.600000e-07	-2.084597e-06	-5.791576e-09	-1.489884e+01	-3.791496e+02
6.700000e-07	-2.050004e-06	-5.735516e-09	-1.465159e+01	-3.760956e+02
6.800000e-07	-2.015068e-06	-5.694562e-09	-1.440191e+01	-3.729920e+02
6.900000e-07	-1.979841e-06	-5.646536e-09	-1.415013e+01	-3.698440e+02
7.000000e-07	-1.944252e-06	-5.594181e-09	-1.389577e+01	-3.666535e+02
7.100000e-07	-1.908159e-06	-5.551828e-09	-1.363781e+01	-3.634178e+02
7.200000e-07	-1.871642e-06	-5.487247e-09	-1.337683e+01	-3.601300e+02
7.300000e-07	-1.834859e-06	-5.439698e-09	-1.311393e+01	-3.567807e+02
7.400000e-07	-1.797786e-06	-5.384066e-09	-1.284897e+01	-3.533607e+02
7.500000e-07	-1.760402e-06	-5.329797e-09	-1.258178e+01	-3.498636e+02
7.600000e-07	-1.722722e-06	-5.281380e-09	-1.231248e+01	-3.462875e+02
7.700000e-07	-1.684758e-06	-5.219361e-09	-1.204115e+01	-3.426349e+02
7.800000e-07	-1.646565e-06	-5.171688e-09	-1.176817e+01	-3.389116e+02
7.900000e-07	-1.608126e-06	-5.108761e-09	-1.149345e+01	-3.351236e+02
8.000000e-07	-1.569351e-06	-5.048383e-09	-1.121631e+01	-3.312754e+02
8.100000e-07	-1.530184e-06	-4.987205e-09	-1.093639e+01	-3.273680e+02
8.200000e-07	-1.490693e-06	-4.918909e-09	-1.065414e+01	-3.233993e+02
8.300000e-07	-1.450950e-06	-4.863827e-09	-1.037009e+01	-3.193653e+02
8.400000e-07	-1.411018e-06	-4.795954e-09	-1.008470e+01	-3.152626e+02
8.500000e-07	-1.370915e-06	-4.737976e-09	-9.798071e+00	-3.110898e+02
8.600000e-07	-1.330588e-06	-4.676068e-09	-9.509852e+00	-3.068494e+02
8.700000e-07	-1.290015e-06	-4.609578e-09	-9.219876e+00	-3.025463e+02
8.800000e-07	-1.249187e-06	-4.548260e-09	-8.928069e+00	-2.981868e+02
8.900000e-07	-1.208174e-06	-4.474930e-09	-8.634951e+00	-2.937749e+02
9.000000e-07	-1.166992e-06	-4.409001e-09	-8.340614e+00	-2.893111e+02
9.100000e-07	-1.125621e-06	-4.335230e-09	-8.044936e+00	-2.847903e+02
9.200000e-07	-1.084106e-06	-4.264087e-09	-7.748218e+00	-2.802031e+02
9.300000e-07	-1.042456e-06	-4.197263e-09	-7.450541e+00	-2.755379e+02
9.400000e-07	-1.000607e-06	-4.122038e-09	-7.151445e+00	-2.707840e+02
9.500000e-07	-9.584634e-07	-4.052211e-09	-6.850239e+00	-2.659344e+02
9.600000e-07	-9.160465e-07	-3.972562e-09	-6.547082e+00	-2.609880e+02
9.700000e-07	-8.734018e-07	-3.896254e-09	-6.242295e+00	-2.559488e+02
9.800000e-07	-8.305782e-07	-3.816624e-09	-5.936230e+00	-2.508247e+02
9.900000e-07	-7.876273e-07	-3.732652e-09	-5.629256e+00	-2.456236e+02
1.000000e-06	-7.445591e-07	-3.656227e-09	-5.321443e+00	-2.403510e+02
1.010000e-06	-7.014052e-07	-3.569540e-09	-5.013017e+00	-2.350069e+02
1.020000e-06	-6.581578e-07	-3.488491e-09	-4.703923e+00	-2.295862e+02
1.030000e-06	-6.147785e-07	-3.404881e-09	-4.393887e+00	-2.240796e+02
1.040000e-06	-5.712654e-07	-3.318364e-09	-4.082894e+00	-2.184770e+02
1.050000e-06	-5.276231e-07	-3.233592e-09	-3.770978e+00	-2.127703e+02
1.060000e-06	-4.838911e-07	-3.140751e-09	-3.458421e+00	-2.069563e+02
1.070000e-06	-4.400977e-07	-3.054280e-09	-3.145425e+00	-2.010375e+02
1.080000e-06	-3.962314e-07	-2.960979e-09	-2.831908e+00	-1.950206e+02
1.090000e-06	-3.523151e-07	-2.866839e-09	-2.518033e+00	-1.889144e+02
1.100000e-06	-3.083530e-07	-2.773409e-09	-2.203832e+00	-1.827265e+02
1.110000e-06	-2.643183e-07	-2.672207e-09	-1.889111e+00	-1.764609e+02
1.120000e-06	-2.202150e-07	-2.576265e-09	-1.573900e+00	-1.701168e+02
1.130000e-06	-1.760904e-07	-2.476756e-09	-1.258537e+00	-1.636896e+02
1.140000e-06	-1.319659e-07	-2.379838e-09	-9.431741e-01	-1.571731e+02
1.150000e-06	-8.781229e-08	-2.280345e-09	-6.276037e-01	-1.505625e+02
1.160000e-06	-4.365390e-08	-2.176726e-09	-3.119990e-01	-1.438567e+02
1.170000e-06	4.762318e-10	-2.074454e-09	3.403679e-03	-1.370593e+02
1.180000e-06	4.459333e-08	-1.964314e-09	3.187132e-01	-1.301772e+02
1.190000e-06	8.869438e-08	-1.856896e-09	6.339082e-01	-1.232179e+02
1.200000e-06	1.327571e-07	-1.745655e-09	9.488288e-01	-1.161859e+02
1.210000e-06	1.768063e-07	-1.633271e-09	1.263653e+00	-1.090802e+02
1.220000e-06	2.208420e-07	-1.522794e-09	1.578381e+00	-1.018933e+02
1.230000e-06	2.647991e-07	-1.407569e-09	1.892547e+00	-9.461220e+01
1.240000e-06	3.086932e-07	-1.295584e-09	2.206263e+00	-8.722261e+01
1.250000e-06	3.525475e-07	-1.179474e-09	2.519694e+00	-7.971298e+01
1.260000e-06	3.963342e-07	-1.061895e-09	2.832643e+00	-7.207877e+01
1.270000e-06	4.400572e-07	-9.416399e-10	3.145136e+00	-6.432430e+01
1.280000e-06	4.837120e-07	-8.170073e-10	3.457141e+00	-5.646190e+01
1.290000e-06	5.272619e-07	-6.929092e-10	3.768397e+00	-4.850818e+01
1.300000e-06	5.707366e-07	-5.635098e-10	4.079115e+00	-4.047871e+01
1.310000e-06	6.141141e-07	-4.375691e-10	4.389138e+00	-3.238281e+01
1.320000e-06	6.573695e-07	-3.126821e-10	4.698290e+00	-2.422028e+01
1.330000e-06	7.005538e-07	-1.844377e-10	5.006932e+00	-1.598147e+01
1.340000e-06	7.436811e-07	-5.689997e-11	5.315168e+00	-7.650774e+00
1.350000e-06	7.867429e-07	7.499562e-11	5.622935e+00	7.874253e-01
1.360000e-06	8.297058e-07	2.072903e-10	5.929995e+00	9.342297e+00
1.370000e-06	8.725352e-07	3.425649e-10	6.236101e+00	1.801174e+01
1.380000e-06	9.151569e-07	4.779225e-10	6.540723e+00	2.678101e+01
1.390000e-06	9.575118e-07	6.132469e-10	6.843438e+00	3.562533e+01
1.400000e-06	9.996187e-07	7.521516e-10	7.144381e+00	4.451582e+01
1.410000e-06	1.041485e-06	8.895074e-10	7.443605e+00	5.342681e+01
1.420000e-06	1.083141e-06	1.028718e-09	7.741326e+00	6.234204e+01
1.430000e-06	1.124646e-06	1.164150e-09	8.037966e+00	7.125768e+01
1.440000e-06	1.165976e-06	1.298711e-09	8.333353e+00	8.018105e+01
1.450000e-06	1.207135e-06	1.435769e-09	8.627525e+00	8.912550e+01
1.460000e-06	1.248104e-06	1.573422e-09	8.920333e+00	9.810306e+01
1.470000e-06	1.288846e-06	1.714436e-09	9.211521e+00	1.071175e+02
1.480000e-06	1.329369e-06	1.853070e-09	9.501138e+00	1.161603e+02
1.490000e-06	1.369654e-06	1.992898e-09	9.789059e+00	1.252105e+02
1.500000e-06	1.409733e-06	2.133475e-09	1.007551e+01	1.342393e+02
1.510000e-06	1.449618e-06	2.270113e-09	1.036057e+01	1.432166e+02
1.520000e-06	1.489241e-06	2.406094e-09	1.064376e+01	1.521188e+02
1.530000e-06	1.528510e-06	2.538403e-09	1.092442e+01	1.609328e+02
1.540000e-06	1.567392e-06	2.670308e-09	1.120232e+01	1.696575e+02
1.550000e-06	1.605933e-06	2.802827e-09	1.147777e+01	1.783001e+02
1.560000e-06	1.644195e-06	2.932507e-09	1.175123e+01	1.868693e+02
1.570000e-06	1.682194e-06	3.061322e-09	1.202282e+01	1.953687e+02
1.580000e-06	1.719914e-06	3.188478e-09	1.229241e+01	2.037916e+02
1.590000e-06	1.757338e-06	3.315908e-09	1.255988e+01	2.121197e+02
1.600000e-06	1.794465e-06	3.441148e-09	1.282523e+01	2.203264e+02
1.610000e-06	1.831344e-06	3.562431e-09	1.308881e+01	2.283829e+02
1.620000e-06	1.867974e-06	3.682409e-09	1.335061e+01	2.362661e+02
1.630000e-06	1.904238e-06	3.800200e-09	1.360979e+01	2.439638e+02
1.640000e-06	1.940034e-06	3.913816e-09	1.386563e+01	2.514771e+02
1.650000e-06	1.975385e-06	4.022463e-09	1.411828e+01	2.588183e+02
1.660000e-06	2.010423e-06	4.129829e-09	1.436871e+01	2.660051e+02
1.670000e-06	2.045147e-06	4.234998e-09	1.461688e+01	2.730542e+02
1.680000e-06	2.079516e-06	4.339277e-09	1.486252e+01	2.799746e+02
1.690000e-06	2.113552e-06	4.442580e-09	1.510578e+01	2.867657e+02
1.700000e-06	2.147270e-06	4.540355e-09	1.534676e+01	2.934179e+02
1.710000e-06	2.180691e-06	4.637590e-09	1.558563e+01	2.999171e+02
1.720000e-06	2.213715e-06	4.733447e-09	1.582166e+01	3.062502e+02
1.730000e-06	2.246305e-06	4.825549e-09	1.605458e+01	3.124101e+02
1.740000e-06	2.278498e-06	4.916210e-09	1.628467e+01	3.183982e+02
1.750000e-06	2.310275e-06	5.004131e-09	1.651178e+01	3.242238e+02
1.760000e-06	2.341648e-06	5.090062e-09	1.673601e+01	3.299001e+02
1.770000e-06	2.372627e-06	5.171949e-09	1.695742e+01	3.354400e+02
1.780000e-06	2.403228e-06	5.251059e-09	1.717613e+01	3.408523e+02
1.790000e-06	2.433438e-06	5.330228e-09	1.739204e+01	3.461395e+02
1.800000e-06	2.463109e-06	5.409378e-09	1.760410e+01	3.512991e+02
1.810000e-06	2.492238e-06	5.488226e-09	1.781229e+01	3.563265e+02
1.820000e-06	2.520938e-06	5.560437e-09	1.801741e+01	3.612176e+02
1.830000e-06	2.549175e-06	5.627991e-09	1.821922e+01	3.659724e+02
1.840000e-06	2.576934e-06	5.696217e-09	1.841762e+01	3.705939e+02
1.850000e-06	2.604296e-06	5.763773e-09	1.861318e+01	3.750878e+02
1.860000e-06	2.631266e-06	5.829134e-09	1.880594e+01	3.794584e+02
1.870000e-06	2.657704e-06	5.891426e-09	1.899489e+01	3.837067e+02
1.880000e-06	2.683581e-06	5.952747e-09	1.917984e+01	3.878294e+02
1.890000e-06	2.709000e-06	6.013450e-09	1.936151e+01	3.918201e+02
1.900000e-06	2.733999e-06	6.072001e-09	1.954018e+01	3.956730e+02
1.910000e-06	2.758539e-06	6.124909e-09	1.971557e+01	3.993861e+02
1.920000e-06	2.782645e-06	6.173196e-09	1.988786e+01	4.029644e+02
1.930000e-06	2.806328e-06	6.222741e-09	2.005713e+01	4.064196e+02
1.940000e-06	2.829433e-06	6.271621e-09	2.022226e+01	4.097674e+02
1.950000e-06	2.851921e-06	6.318408e-09	2.038298e+01	4.130225e+02
1.960000e-06	2.873907e-06	6.365124e-09	2.054012e+01	4.161939e+02
1.970000e-06	2.895417e-06	6.410860e-09	2.069385e+01	4.192811e+02
1.980000e-06	2.916419e-06	6.454231e-09	2.084396e+01	4.222746e+02
1.990000e-06	2.936789e-06	6.493644e-09	2.098954e+01	4.251594e+02
2.000000e-06	2.956457e-06	6.529941e-09	2.113011e+01	4.279211e+02
2.010000e-06	2.975540e-06	6.565128e-09	2.126650e+01	4.305522e+02
2.020000e-06	2.994124e-06	6.599364e-09	2.139932e+01	4.330563e+02
2.030000e-06	3.012226e-06	6.635240e-09	2.152870e+01	4.354479e+02
2.040000e-06	3.029852e-06	6.670067e-09	2.165467e+01	4.377483e+02
2.050000e-06	3.046957e-06	6.701756e-09	2.177692e+01	4.399789e+02
2.060000e-06	3.063432e-06	6.733100e-09	2.189467e+01	4.421533e+02
2.070000e-06	3.079348e-06	6.763283e-09	2.200843e+01	4.442728e+02
2.080000e-06	3.094792e-06	6.791318e-09	2.211881e+01	4.463258e+02
2.090000e-06	3.109724e-06	6.816245e-09	2.222553e+01	4.482923e+02
2.100000e-06	3.124224e-06	6.840207e-09	2.232916e+01	4.501512e+02
2.110000e-06	3.138220e-06	6.863742e-09	2.242919e+01	4.518891e+02
2.120000e-06	3.151551e-06	6.887032e-09	2.252447e+01	4.535056e+02
2.130000e-06	3.164286e-06	6.909497e-09	2.261549e+01	4.550149e+02
2.140000e-06	3.176499e-06	6.930314e-09	2.270278e+01	4.564410e+02
2.150000e-06	3.188209e-06	6.951296e-09	2.278647e+01	4.578103e+02
2.160000e-06	3.199440e-06	6.971850e-09	2.286673e+01	4.591423e+02
2.170000e-06	3.210113e-06	6.991977e-09	2.294302e+01	4.604431e+02
2.180000e-06	3.220124e-06	7.009170e-09	2.301457e+01	4.617041e+02
2.190000e-06	3.229525e-06	7.024017e-09	2.308176e+01	4.629052e+02
2.200000e-06	3.238378e-06	7.039464e-09	2.314503e+01	4.640230e+02
2.210000e-06	3.246711e-06	7.052556e-09	2.320459e+01	4.650398e+02
2.220000e-06	3.254568e-06	7.063415e-09	2.326074e+01	4.659509e+02
2.230000e-06	3.261840e-06	7.074307e-09	2.331272e+01	4.667663e+02
2.240000e-06	3.268458e-06	7.087813e-09	2.336001e+01	4.675073e+02
2.250000e-06	3.274486e-06	7.102932e-09	2.340310e+01	4.681994e+02
2.260000e-06	3.279924e-06	7.114319e-09	2.344196e+01	4.688625e+02
2.270000e-06	3.284755e-06	7.121969e-09	2.347649e+01	4.695040e+02
2.280000e-06	3.288912e-06	7.129470e-09	2.350620e+01	4.701163e+02
2.290000e-06	3.292384e-06	7.138771e-09	2.353102e+01	4.706803e+02
2.300000e-06	3.295259e-06	7.145828e-09	2.355156e+01	4.711726e+02
2.310000e-06	3.297579e-06	7.148200e-09	2.356814e+01	4.715750e+02
2.320000e-06	3.299385e-06	7.151105e-09	2.358105e+01	4.718821e+02
2.330000e-06	3.300670e-06	7.157451e-09	2.359024e+01	4.721036e+02
2.340000e-06	3.301308e-06	7.162614e-09	2.359480e+01	4.722622e+02
2.350000e-06	3.301294e-06	7.164196e-09	2.359469e+01	4.723851e+02
2.360000e-06	3.300726e-06	7.164221e-09	2.359064e+01	4.724948e+02
2.370000e-06	3.299650e-06	7.165903e-09	2.358295e+01	4.726014e+02
2.380000e-06	3.298096e-06	7.169150e-09	2.357184e+01	4.726985e+02
2.390000e-06	3.295987e-06	7.168989e-09	2.355677e+01	4.727658e+02
2.400000e-06	3.293250e-06	7.165787e-09	2.353721e+01	4.727765e+02
2.410000e-06	3.289952e-06	7.164483e-09	2.351364e+01	4.727066e+02
2.420000e-06	3.286153e-06	7.149376e-09	2.348648e+01	4.725442e+02
2.430000e-06	3.281719e-06	7.148736e-09	2.345479e+01	4.722940e+02
2.440000e-06	3.276289e-06	7.180888e-09	2.341599e+01	4.719767e+02
2.450000e-06	3.269935e-06	7.106774e-09	2.337057e+01	4.716226e+02
2.460000e-06	3.263318e-06	7.130783e-09	2.332328e+01	4.712630e+02
2.470000e-06	3.256603e-06	7.136526e-09	2.327529e+01	4.709201e+02
2.480000e-06	3.249183e-06	7.151217e-09	2.322226e+01	4.706008e+02
2.490000e-06	3.240850e-06	7.093948e-09	2.316270e+01	4.702950e+02
2.500000e-06	3.232234e-06	7.087150e-09	2.310112e+01	4.699784e+02
2.510000e-06	3.223366e-06	7.131790e-09	2.303774e+01	4.696193e+02
2.520000e-06	3.213553e-06	7.081402e-09	2.296761e+01	4.691870e+02
2.530000e-06	3.202951e-06	7.055546e-09	2.289183e+01	4.686579e+02
2.540000e-06	3.192124e-06	7.070404e-09	2.281445e+01	4.680198e+02
2.550000e-06	3.180771e-06	7.134357e-09	2.273330e+01	4.672725e+02
2.560000e-06	3.168533e-06	7.026729e-09	2.264584e+01	4.664245e+02
2.570000e-06	3.155778e-06	7.039285e-09	2.255468e+01	4.654899e+02
2.580000e-06	3.142604e-06	7.073621e-09	2.246052e+01	4.644845e+02
2.590000e-06	3.128784e-06	7.019593e-09	2.236175e+01	4.634227e+02
2.600000e-06	3.114490e-06	6.978438e-09	2.225959e+01	4.623168e+02
2.610000e-06	3.099815e-06	6.994673e-09	2.215471e+01	4.611769e+02
2.620000e-06	3.084458e-06	6.988208e-09	2.204495e+01	4.600106e+02
2.630000e-06	3.068466e-06	6.927318e-09	2.193065e+01	4.588228e+02
2.640000e-06	3.051994e-06	6.952549e-09	2.181293e+01	4.576150e+02
2.650000e-06	3.034913e-06	6.927072e-09	2.169085e+01	4.563839e+02
2.660000e-06	3.017334e-06	6.884021e-09	2.156520e+01	4.551210e+02
2.670000e-06	2.999368e-06	6.904576e-09	2.143680e+01	4.538132e+02
2.680000e-06	2.980761e-06	6.840060e-09	2.130381e+01	4.524452e+02
2.690000e-06	2.961483e-06	6.829186e-09	2.116604e+01	4.510034e+02
2.700000e-06	2.941704e-06	6.821780e-09	2.102467e+01	4.494794e+02
2.710000e-06	2.921408e-06	6.783200e-09	2.087961e+01	4.478725e+02
2.720000e-06	2.900531e-06	6.758422e-09	2.073041e+01	4.461910e+02
2.730000e-06	2.879012e-06	6.744424e-09	2.057661e+01	4.444496e+02
2.740000e-06	2.856863e-06	6.727486e-09	2.041830e+01	4.426656e+02
2.750000e-06	2.834224e-06	6.660877e-09	2.025650e+01	4.408544e+02
2.760000e-06	2.811151e-06	6.673602e-09	2.009159e+01	4.390256e+02
2.770000e-06	2.787547e-06	6.638021e-09	1.992290e+01	4.371803e+02
2.780000e-06	2.763545e-06	6.587264e-09	1.975135e+01	4.353125e+02
2.790000e-06	2.739101e-06	6.594950e-09	1.957664e+01	4.334114e+02
2.800000e-06	2.713998e-06	6.532090e-09	1.939723e+01	4.314656e+02
2.810000e-06	2.688418e-06	6.517820e-09	1.921441e+01	4.294667e+02
2.820000e-06	2.662440e-06	6.495707e-09	1.902874e+01	4.274119e+02
2.830000e-06	2.635964e-06	6.439771e-09	1.883951e+01	4.253033e+02
2.840000e-06	2.609050e-06	6.426445e-09	1.864716e+01	4.231469e+02
2.850000e-06	2.581714e-06	6.391397e-09	1.845178e+01	4.209490e+02
2.860000e-06	2.553841e-06	6.360498e-09	1.825257e+01	4.187137e+02
2.870000e-06	2.525420e-06	6.311559e-09	1.804944e+01	4.164411e+02
2.880000e-06	2.496570e-06	6.286992e-09	1.784325e+01	4.141279e+02
2.890000e-06	2.467304e-06	6.254566e-09	1.763408e+01	4.117686e+02
2.900000e-06	2.437643e-06	6.201969e-09	1.742209e+01	4.093577e+02
2.910000e-06	2.407546e-06	6.177154e-09	1.720699e+01	4.068922e+02
2.920000e-06	2.376952e-06	6.129707e-09	1.698832e+01	4.043718e+02
2.930000e-06	2.345813e-06	6.104794e-09	1.676577e+01	4.017986e+02
2.940000e-06	2.314133e-06	6.058977e-09	1.653935e+01	3.991756e+02
