# Temperatura_=_20.0
# Concentracion g/m^3_=_10000.0
# C_Vs_to_Am_M_A/Vsm_=_65563218390.804596
# pendiente_HvsI_1/m_=_3716.3
# ordenada_HvsI_A/m_=_1297.0
# frecuencia_Hz_=_212930.59497249135

Tiempo_(s)	Campo_(V.s)	Magnetizacion_(V.s)	Campo_(kA/m)	Magnetizacion_(A/m)
0.000000e+00	-3.292739e-06	-7.263337e-09	-2.355701e+01	-4.725330e+02
1.000000e-08	-3.292413e-06	-7.265905e-09	-2.355467e+01	-4.726640e+02
2.000000e-08	-3.291475e-06	-7.270318e-09	-2.354797e+01	-4.727668e+02
3.000000e-08	-3.289921e-06	-7.271575e-09	-2.353685e+01	-4.728447e+02
4.000000e-08	-3.287876e-06	-7.270231e-09	-2.352222e+01	-4.728899e+02
5.000000e-08	-3.285314e-06	-7.267951e-09	-2.350389e+01	-4.728864e+02
6.000000e-08	-3.282213e-06	-7.263151e-09	-2.348170e+01	-4.728165e+02
7.000000e-08	-3.278523e-06	-7.253466e-09	-2.345531e+01	-4.726681e+02
8.000000e-08	-3.274068e-06	-7.264212e-09	-2.342343e+01	-4.724409e+02
9.000000e-08	-3.268735e-06	-7.289802e-09	-2.338528e+01	-4.721486e+02
1.000000e-07	-3.262645e-06	-7.258662e-09	-2.334171e+01	-4.718160e+02
1.100000e-07	-3.256059e-06	-7.224054e-09	-2.329459e+01	-4.714721e+02
1.200000e-07	-3.249046e-06	-7.232368e-09	-2.324442e+01	-4.711420e+02
1.300000e-07	-3.241443e-06	-7.281455e-09	-2.319003e+01	-4.708391e+02
1.400000e-07	-3.233345e-06	-7.237651e-09	-2.313209e+01	-4.705614e+02
1.500000e-07	-3.224951e-06	-7.218476e-09	-2.307204e+01	-4.702917e+02
1.600000e-07	-3.215993e-06	-7.232800e-09	-2.300795e+01	-4.700025e+02
1.700000e-07	-3.206304e-06	-7.218786e-09	-2.293864e+01	-4.696627e+02
1.800000e-07	-3.196148e-06	-7.164390e-09	-2.286598e+01	-4.692441e+02
1.900000e-07	-3.185614e-06	-7.166174e-09	-2.279062e+01	-4.687265e+02
2.000000e-07	-3.174373e-06	-7.217162e-09	-2.271019e+01	-4.680991e+02
2.100000e-07	-3.162390e-06	-7.128628e-09	-2.262446e+01	-4.673601e+02
2.200000e-07	-3.149986e-06	-7.140278e-09	-2.253572e+01	-4.665144e+02
2.300000e-07	-3.137105e-06	-7.164060e-09	-2.244357e+01	-4.655712e+02
2.400000e-07	-3.123527e-06	-7.110344e-09	-2.234643e+01	-4.645423e+02
2.500000e-07	-3.109322e-06	-7.053060e-09	-2.224480e+01	-4.634414e+02
2.600000e-07	-3.094633e-06	-7.088897e-09	-2.213972e+01	-4.622840e+02
2.700000e-07	-3.079371e-06	-7.090196e-09	-2.203053e+01	-4.610858e+02
2.800000e-07	-3.063584e-06	-7.003676e-09	-2.191758e+01	-4.598612e+02
2.900000e-07	-3.047286e-06	-7.013058e-09	-2.180098e+01	-4.586194e+02
3.000000e-07	-3.030280e-06	-7.020832e-09	-2.167932e+01	-4.573623e+02
3.100000e-07	-3.012702e-06	-6.974810e-09	-2.155356e+01	-4.560820e+02
3.200000e-07	-2.994684e-06	-6.955630e-09	-2.142466e+01	-4.547630e+02
3.300000e-07	-2.976034e-06	-6.937578e-09	-2.129123e+01	-4.533854e+02
3.400000e-07	-2.956859e-06	-6.903518e-09	-2.115405e+01	-4.519317e+02
3.500000e-07	-2.937196e-06	-6.878473e-09	-2.101338e+01	-4.503924e+02
3.600000e-07	-2.916793e-06	-6.870557e-09	-2.086741e+01	-4.487702e+02
3.700000e-07	-2.895645e-06	-6.840424e-09	-2.071611e+01	-4.470799e+02
3.800000e-07	-2.873954e-06	-6.796355e-09	-2.056093e+01	-4.453440e+02
3.900000e-07	-2.851813e-06	-6.787478e-09	-2.040252e+01	-4.435858e+02
4.000000e-07	-2.829233e-06	-6.762799e-09	-2.024098e+01	-4.418209e+02
4.100000e-07	-2.806126e-06	-6.734597e-09	-2.007567e+01	-4.400528e+02
4.200000e-07	-2.782415e-06	-6.689166e-09	-1.990603e+01	-4.382708e+02
4.300000e-07	-2.758226e-06	-6.665515e-09	-1.973298e+01	-4.364548e+02
4.400000e-07	-2.733599e-06	-6.662894e-09	-1.955679e+01	-4.345821e+02
4.500000e-07	-2.708514e-06	-6.614192e-09	-1.937733e+01	-4.326357e+02
4.600000e-07	-2.683012e-06	-6.576538e-09	-1.919488e+01	-4.306099e+02
4.700000e-07	-2.657054e-06	-6.547425e-09	-1.900917e+01	-4.285118e+02
4.800000e-07	-2.630542e-06	-6.517075e-09	-1.881950e+01	-4.263577e+02
4.900000e-07	-2.603499e-06	-6.484730e-09	-1.862603e+01	-4.241662e+02
5.000000e-07	-2.576060e-06	-6.445839e-09	-1.842972e+01	-4.219506e+02
5.100000e-07	-2.548232e-06	-6.414885e-09	-1.823063e+01	-4.197136e+02
5.200000e-07	-2.519969e-06	-6.381272e-09	-1.802844e+01	-4.174474e+02
5.300000e-07	-2.491306e-06	-6.352325e-09	-1.782338e+01	-4.151370e+02
5.400000e-07	-2.462216e-06	-6.307687e-09	-1.761526e+01	-4.127672e+02
5.500000e-07	-2.432580e-06	-6.260473e-09	-1.740324e+01	-4.103297e+02
5.600000e-07	-2.402389e-06	-6.229603e-09	-1.718724e+01	-4.078267e+02
5.700000e-07	-2.371756e-06	-6.188140e-09	-1.696809e+01	-4.052698e+02
5.800000e-07	-2.340687e-06	-6.153064e-09	-1.674581e+01	-4.026747e+02
5.900000e-07	-2.309101e-06	-6.113124e-09	-1.651984e+01	-4.000534e+02
6.000000e-07	-2.276993e-06	-6.072902e-09	-1.629013e+01	-3.974081e+02
6.100000e-07	-2.244459e-06	-6.040025e-09	-1.605738e+01	-3.947282e+02
6.200000e-07	-2.211546e-06	-5.992170e-09	-1.582191e+01	-3.919934e+02
6.300000e-07	-2.178252e-06	-5.944676e-09	-1.558371e+01	-3.891808e+02
6.400000e-07	-2.144652e-06	-5.893909e-09	-1.534333e+01	-3.862742e+02
6.500000e-07	-2.110783e-06	-5.850943e-09	-1.510103e+01	-3.832717e+02
6.600000e-07	-2.076567e-06	-5.809255e-09	-1.485624e+01	-3.801871e+02
6.700000e-07	-2.041980e-06	-5.757856e-09	-1.460879e+01	-3.770470e+02
6.800000e-07	-2.007031e-06	-5.711618e-09	-1.435876e+01	-3.738808e+02
6.900000e-07	-1.971738e-06	-5.662640e-09	-1.410627e+01	-3.707103e+02
7.000000e-07	-1.936134e-06	-5.619573e-09	-1.385155e+01	-3.675408e+02
7.100000e-07	-1.900087e-06	-5.568697e-09	-1.359366e+01	-3.643582e+02
7.200000e-07	-1.863580e-06	-5.509759e-09	-1.333248e+01	-3.611325e+02
7.300000e-07	-1.826755e-06	-5.459391e-09	-1.306903e+01	-3.578280e+02
7.400000e-07	-1.789665e-06	-5.406027e-09	-1.280368e+01	-3.544147e+02
7.500000e-07	-1.752307e-06	-5.354618e-09	-1.253641e+01	-3.508780e+02
7.600000e-07	-1.714655e-06	-5.298118e-09	-1.226703e+01	-3.472233e+02
7.700000e-07	-1.676719e-06	-5.241116e-09	-1.199563e+01	-3.434725e+02
7.800000e-07	-1.638498e-06	-5.187975e-09	-1.172219e+01	-3.396557e+02
7.900000e-07	-1.600023e-06	-5.127864e-09	-1.144693e+01	-3.358002e+02
8.000000e-07	-1.561298e-06	-5.068160e-09	-1.116988e+01	-3.319205e+02
8.100000e-07	-1.522210e-06	-5.003252e-09	-1.089024e+01	-3.280151e+02
8.200000e-07	-1.482746e-06	-4.941394e-09	-1.060791e+01	-3.240682e+02
8.300000e-07	-1.442972e-06	-4.881019e-09	-1.032335e+01	-3.200573e+02
8.400000e-07	-1.402993e-06	-4.815394e-09	-1.003733e+01	-3.159631e+02
8.500000e-07	-1.362846e-06	-4.754191e-09	-9.750111e+00	-3.117770e+02
8.600000e-07	-1.322499e-06	-4.691994e-09	-9.461459e+00	-3.075037e+02
8.700000e-07	-1.281938e-06	-4.631134e-09	-9.171282e+00	-3.031579e+02
8.800000e-07	-1.241158e-06	-4.563132e-09	-8.879526e+00	-2.987574e+02
8.900000e-07	-1.200170e-06	-4.488730e-09	-8.586292e+00	-2.943138e+02
9.000000e-07	-1.158980e-06	-4.416875e-09	-8.291611e+00	-2.898271e+02
9.100000e-07	-1.117591e-06	-4.344641e-09	-7.995504e+00	-2.852841e+02
9.200000e-07	-1.076044e-06	-4.276562e-09	-7.698267e+00	-2.806632e+02
9.300000e-07	-1.034365e-06	-4.203843e-09	-7.400087e+00	-2.759422e+02
9.400000e-07	-9.925250e-07	-4.130369e-09	-7.100751e+00	-2.711070e+02
9.500000e-07	-9.504587e-07	-4.058690e-09	-6.799799e+00	-2.661566e+02
9.600000e-07	-9.081575e-07	-3.980649e-09	-6.497167e+00	-2.611031e+02
9.700000e-07	-8.656055e-07	-3.900736e-09	-6.192740e+00	-2.559663e+02
9.800000e-07	-8.228104e-07	-3.816967e-09	-5.886574e+00	-2.507653e+02
9.900000e-07	-7.798674e-07	-3.736763e-09	-5.579350e+00	-2.455103e+02
1.000000e-06	-7.367875e-07	-3.656159e-09	-5.271147e+00	-2.401982e+02
1.010000e-06	-6.935938e-07	-3.570128e-09	-4.962129e+00	-2.348137e+02
1.020000e-06	-6.503088e-07	-3.485702e-09	-4.652459e+00	-2.293355e+02
1.030000e-06	-6.069307e-07	-3.398010e-09	-4.342121e+00	-2.237449e+02
1.040000e-06	-5.634634e-07	-3.311445e-09	-4.031147e+00	-2.180338e+02
1.050000e-06	-5.198922e-07	-3.223409e-09	-3.719428e+00	-2.122078e+02
1.060000e-06	-4.762013e-07	-3.134166e-09	-3.406853e+00	-2.062848e+02
1.070000e-06	-4.324351e-07	-3.044919e-09	-3.093740e+00	-2.002875e+02
1.080000e-06	-3.886255e-07	-2.950399e-09	-2.780316e+00	-1.942346e+02
1.090000e-06	-3.447334e-07	-2.856978e-09	-2.466302e+00	-1.881332e+02
1.100000e-06	-3.007630e-07	-2.760865e-09	-2.151727e+00	-1.819758e+02
1.110000e-06	-2.567635e-07	-2.661568e-09	-1.836945e+00	-1.757430e+02
1.120000e-06	-2.127333e-07	-2.561593e-09	-1.521943e+00	-1.694109e+02
1.130000e-06	-1.686760e-07	-2.463075e-09	-1.206747e+00	-1.629602e+02
1.140000e-06	-1.245856e-07	-2.367902e-09	-8.913136e-01	-1.563834e+02
1.150000e-06	-8.047162e-08	-2.267979e-09	-5.757124e-01	-1.496873e+02
1.160000e-06	-3.635170e-08	-2.163619e-09	-2.600684e-01	-1.428898e+02
1.170000e-06	7.753858e-09	-2.055079e-09	5.547288e-02	-1.360123e+02
1.180000e-06	5.182890e-08	-1.945855e-09	3.707958e-01	-1.290708e+02
1.190000e-06	9.590067e-08	-1.837411e-09	6.860954e-01	-1.220688e+02
1.200000e-06	1.399553e-07	-1.725532e-09	1.001273e+00	-1.149960e+02
1.210000e-06	1.839836e-07	-1.613819e-09	1.316261e+00	-1.078316e+02
1.220000e-06	2.279470e-07	-1.500835e-09	1.630785e+00	-1.005521e+02
1.230000e-06	2.718424e-07	-1.387156e-09	1.944823e+00	-9.314037e+01
1.240000e-06	3.156937e-07	-1.273050e-09	2.258545e+00	-8.559183e+01
1.250000e-06	3.594846e-07	-1.154573e-09	2.571836e+00	-7.791604e+01
1.260000e-06	4.032091e-07	-1.034413e-09	2.884650e+00	-7.013278e+01
1.270000e-06	4.468654e-07	-9.136483e-10	3.196977e+00	-6.226446e+01
1.280000e-06	4.904541e-07	-7.918966e-10	3.508821e+00	-5.432770e+01
1.290000e-06	5.339624e-07	-6.647267e-10	3.820090e+00	-4.632752e+01
1.300000e-06	5.773702e-07	-5.345390e-10	4.130639e+00	-3.825619e+01
1.310000e-06	6.206977e-07	-4.087685e-10	4.440613e+00	-3.009718e+01
1.320000e-06	6.639649e-07	-2.831569e-10	4.750157e+00	-2.183232e+01
1.330000e-06	7.071525e-07	-1.556347e-10	5.059131e+00	-1.344952e+01
1.340000e-06	7.502762e-07	-2.624033e-11	5.367648e+00	-4.947901e+00
1.350000e-06	7.933072e-07	1.051147e-10	5.675502e+00	3.661432e+00
1.360000e-06	8.361939e-07	2.389890e-10	5.982323e+00	1.235912e+01
1.370000e-06	8.789202e-07	3.760982e-10	6.287997e+00	2.112404e+01
1.380000e-06	9.214276e-07	5.125900e-10	6.592104e+00	2.993981e+01
1.390000e-06	9.636392e-07	6.494810e-10	6.894096e+00	3.879880e+01
1.400000e-06	1.005577e-06	7.865583e-10	7.194131e+00	4.770206e+01
1.410000e-06	1.047331e-06	9.234230e-10	7.492849e+00	5.665538e+01
1.420000e-06	1.088933e-06	1.062225e-09	7.790473e+00	6.566331e+01
1.430000e-06	1.130377e-06	1.200957e-09	8.086979e+00	7.472357e+01
1.440000e-06	1.171666e-06	1.339790e-09	8.382368e+00	8.382421e+01
1.450000e-06	1.212769e-06	1.478195e-09	8.676426e+00	9.294458e+01
1.460000e-06	1.253665e-06	1.617502e-09	8.969010e+00	1.020598e+02
1.470000e-06	1.294335e-06	1.758682e-09	9.259967e+00	1.111467e+02
1.480000e-06	1.334761e-06	1.899467e-09	9.549187e+00	1.201893e+02
1.490000e-06	1.374974e-06	2.039841e-09	9.836881e+00	1.291813e+02
1.500000e-06	1.415007e-06	2.179256e-09	1.012328e+01	1.381249e+02
1.510000e-06	1.454852e-06	2.318190e-09	1.040835e+01	1.470268e+02
1.520000e-06	1.494394e-06	2.454075e-09	1.069124e+01	1.558929e+02
1.530000e-06	1.533511e-06	2.585994e-09	1.097109e+01	1.647231e+02
1.540000e-06	1.572233e-06	2.717898e-09	1.124812e+01	1.735088e+02
1.550000e-06	1.610702e-06	2.848635e-09	1.152333e+01	1.822338e+02
1.560000e-06	1.648931e-06	2.979176e-09	1.179683e+01	1.908770e+02
1.570000e-06	1.686874e-06	3.111055e-09	1.206829e+01	1.994162e+02
1.580000e-06	1.724515e-06	3.241028e-09	1.233758e+01	2.078321e+02
1.590000e-06	1.761862e-06	3.368225e-09	1.260476e+01	2.161101e+02
1.600000e-06	1.798927e-06	3.493381e-09	1.286993e+01	2.242400e+02
1.610000e-06	1.835733e-06	3.615330e-09	1.313326e+01	2.322153e+02
1.620000e-06	1.872266e-06	3.733380e-09	1.339462e+01	2.400313e+02
1.630000e-06	1.908376e-06	3.846797e-09	1.365296e+01	2.476845e+02
1.640000e-06	1.943977e-06	3.956661e-09	1.390765e+01	2.551727e+02
1.650000e-06	1.979209e-06	4.066630e-09	1.415971e+01	2.624962e+02
1.660000e-06	2.014182e-06	4.176572e-09	1.440992e+01	2.696586e+02
1.670000e-06	2.048842e-06	4.283483e-09	1.465788e+01	2.766666e+02
1.680000e-06	2.083150e-06	4.387428e-09	1.490333e+01	2.835287e+02
1.690000e-06	2.117100e-06	4.488539e-09	1.514622e+01	2.902517e+02
1.700000e-06	2.150754e-06	4.586704e-09	1.538699e+01	2.968384e+02
1.710000e-06	2.184140e-06	4.682156e-09	1.562584e+01	3.032854e+02
1.720000e-06	2.217090e-06	4.773862e-09	1.586157e+01	3.095837e+02
1.730000e-06	2.249563e-06	4.864390e-09	1.609389e+01	3.157211e+02
1.740000e-06	2.281666e-06	4.954923e-09	1.632357e+01	3.216867e+02
1.750000e-06	2.313372e-06	5.043200e-09	1.655040e+01	3.274756e+02
1.760000e-06	2.344647e-06	5.128414e-09	1.677414e+01	3.330912e+02
1.770000e-06	2.375528e-06	5.211670e-09	1.699507e+01	3.385458e+02
1.780000e-06	2.406033e-06	5.294045e-09	1.721331e+01	3.438573e+02
1.790000e-06	2.436089e-06	5.373140e-09	1.742834e+01	3.490439e+02
1.800000e-06	2.465585e-06	5.449666e-09	1.763936e+01	3.541194e+02
1.810000e-06	2.494553e-06	5.525280e-09	1.784661e+01	3.590889e+02
1.820000e-06	2.523101e-06	5.597452e-09	1.805084e+01	3.639485e+02
1.830000e-06	2.551232e-06	5.668337e-09	1.825210e+01	3.686874e+02
1.840000e-06	2.578919e-06	5.738419e-09	1.845018e+01	3.732928e+02
1.850000e-06	2.606208e-06	5.805121e-09	1.864541e+01	3.777541e+02
1.860000e-06	2.633075e-06	5.867929e-09	1.883762e+01	3.820672e+02
1.870000e-06	2.659381e-06	5.929013e-09	1.902582e+01	3.862349e+02
1.880000e-06	2.685151e-06	5.988603e-09	1.921018e+01	3.902653e+02
1.890000e-06	2.710489e-06	6.046294e-09	1.939146e+01	3.941680e+02
1.900000e-06	2.735381e-06	6.103830e-09	1.956954e+01	3.979507e+02
1.910000e-06	2.759805e-06	6.159389e-09	1.974428e+01	4.016169e+02
1.920000e-06	2.783846e-06	6.212165e-09	1.991628e+01	4.051660e+02
1.930000e-06	2.807419e-06	6.260914e-09	2.008492e+01	4.085952e+02
1.940000e-06	2.830331e-06	6.305810e-09	2.024884e+01	4.119025e+02
1.950000e-06	2.852694e-06	6.349096e-09	2.040883e+01	4.150898e+02
1.960000e-06	2.874620e-06	6.393045e-09	2.056569e+01	4.181629e+02
1.970000e-06	2.896035e-06	6.434938e-09	2.071890e+01	4.211310e+02
1.980000e-06	2.916877e-06	6.475304e-09	2.086801e+01	4.240031e+02
1.990000e-06	2.937068e-06	6.517762e-09	2.101246e+01	4.267857e+02
2.000000e-06	2.956595e-06	6.557750e-09	2.115216e+01	4.294801e+02
2.010000e-06	2.975567e-06	6.592660e-09	2.128789e+01	4.320832e+02
2.020000e-06	2.994043e-06	6.623575e-09	2.142007e+01	4.345891e+02
2.030000e-06	3.012066e-06	6.655892e-09	2.154901e+01	4.369931e+02
2.040000e-06	3.029653e-06	6.688282e-09	2.167483e+01	4.392943e+02
2.050000e-06	3.046681e-06	6.718926e-09	2.179666e+01	4.414968e+02
2.060000e-06	3.063061e-06	6.750694e-09	2.191384e+01	4.436090e+02
2.070000e-06	3.078914e-06	6.780780e-09	2.202726e+01	4.456406e+02
2.080000e-06	3.094285e-06	6.807952e-09	2.213723e+01	4.475985e+02
2.090000e-06	3.109154e-06	6.833051e-09	2.224360e+01	4.494840e+02
2.100000e-06	3.123553e-06	6.857318e-09	2.234662e+01	4.512930e+02
2.110000e-06	3.137373e-06	6.881660e-09	2.244549e+01	4.530171e+02
2.120000e-06	3.150550e-06	6.906424e-09	2.253975e+01	4.546482e+02
2.130000e-06	3.163194e-06	6.930809e-09	2.263021e+01	4.561824e+02
2.140000e-06	3.175333e-06	6.953045e-09	2.271706e+01	4.576227e+02
2.150000e-06	3.186960e-06	6.973309e-09	2.280025e+01	4.589784e+02
2.160000e-06	3.198113e-06	6.990142e-09	2.288004e+01	4.602630e+02
2.170000e-06	3.208648e-06	7.005478e-09	2.295540e+01	4.614887e+02
2.180000e-06	3.218498e-06	7.020847e-09	2.302587e+01	4.626624e+02
2.190000e-06	3.227784e-06	7.036312e-09	2.309231e+01	4.637833e+02
2.200000e-06	3.236528e-06	7.053552e-09	2.315486e+01	4.648437e+02
2.210000e-06	3.244766e-06	7.070826e-09	2.321380e+01	4.658326e+02
2.220000e-06	3.252535e-06	7.086337e-09	2.326938e+01	4.667414e+02
2.230000e-06	3.259741e-06	7.098602e-09	2.332093e+01	4.675678e+02
2.240000e-06	3.266301e-06	7.108910e-09	2.336787e+01	4.683182e+02
2.250000e-06	3.272227e-06	7.118863e-09	2.341027e+01	4.690062e+02
2.260000e-06	3.277549e-06	7.127162e-09	2.344833e+01	4.696478e+02
2.270000e-06	3.282265e-06	7.133308e-09	2.348207e+01	4.702557e+02
2.280000e-06	3.286304e-06	7.141857e-09	2.351097e+01	4.708344e+02
2.290000e-06	3.289680e-06	7.154359e-09	2.353512e+01	4.713787e+02
2.300000e-06	3.292460e-06	7.166380e-09	2.355501e+01	4.718757e+02
2.310000e-06	3.294678e-06	7.173668e-09	2.357088e+01	4.723104e+02
2.320000e-06	3.296413e-06	7.176350e-09	2.358329e+01	4.726714e+02
2.330000e-06	3.297570e-06	7.178191e-09	2.359157e+01	4.729563e+02
2.340000e-06	3.298021e-06	7.180005e-09	2.359480e+01	4.731726e+02
2.350000e-06	3.297909e-06	7.180835e-09	2.359400e+01	4.733351e+02
2.360000e-06	3.297296e-06	7.181858e-09	2.358961e+01	4.734599e+02
2.370000e-06	3.296130e-06	7.183964e-09	2.358127e+01	4.735582e+02
2.380000e-06	3.294470e-06	7.186952e-09	2.356939e+01	4.736307e+02
2.390000e-06	3.292235e-06	7.190073e-09	2.355340e+01	4.736679e+02
2.400000e-06	3.289361e-06	7.191053e-09	2.353284e+01	4.736528e+02
2.410000e-06	3.285956e-06	7.196021e-09	2.350848e+01	4.735680e+02
2.420000e-06	3.282069e-06	7.189322e-09	2.348067e+01	4.734037e+02
2.430000e-06	3.277513e-06	7.150976e-09	2.344808e+01	4.731623e+02
2.440000e-06	3.271884e-06	7.164371e-09	2.340781e+01	4.728600e+02
2.450000e-06	3.265411e-06	7.184285e-09	2.336150e+01	4.725230e+02
2.460000e-06	3.258826e-06	7.168544e-09	2.331439e+01	4.721804e+02
2.470000e-06	3.252073e-06	7.120854e-09	2.326608e+01	4.718554e+02
2.480000e-06	3.244500e-06	7.133425e-09	2.321190e+01	4.715585e+02
2.490000e-06	3.236052e-06	7.150817e-09	2.315146e+01	4.712845e+02
2.500000e-06	3.227437e-06	7.120157e-09	2.308983e+01	4.710136e+02
2.510000e-06	3.218483e-06	7.095318e-09	2.302576e+01	4.707170e+02
2.520000e-06	3.208486e-06	7.124318e-09	2.295424e+01	4.703638e+02
2.530000e-06	3.197799e-06	7.131294e-09	2.287778e+01	4.699270e+02
2.540000e-06	3.186948e-06	7.097132e-09	2.280015e+01	4.693882e+02
2.550000e-06	3.175528e-06	7.135694e-09	2.271846e+01	4.687387e+02
2.560000e-06	3.163217e-06	7.123244e-09	2.263038e+01	4.679781e+02
2.570000e-06	3.150442e-06	7.063074e-09	2.253899e+01	4.671123e+02
2.580000e-06	3.137216e-06	7.059759e-09	2.244436e+01	4.661512e+02
2.590000e-06	3.123319e-06	7.099367e-09	2.234494e+01	4.651070e+02
2.600000e-06	3.109002e-06	7.027855e-09	2.224252e+01	4.639939e+02
2.610000e-06	3.094251e-06	6.988812e-09	2.213698e+01	4.628273e+02
2.620000e-06	3.078741e-06	7.031124e-09	2.202602e+01	4.616231e+02
2.630000e-06	3.062688e-06	7.003283e-09	2.191117e+01	4.603947e+02
2.640000e-06	3.046185e-06	6.954932e-09	2.179311e+01	4.591503e+02
2.650000e-06	3.029012e-06	6.944599e-09	2.167025e+01	4.578897e+02
2.660000e-06	3.011353e-06	6.934003e-09	2.154391e+01	4.566035e+02
2.670000e-06	2.993275e-06	6.901791e-09	2.141458e+01	4.552746e+02
2.680000e-06	2.974551e-06	6.893575e-09	2.128062e+01	4.538833e+02
2.690000e-06	2.955175e-06	6.868715e-09	2.114200e+01	4.524132e+02
2.700000e-06	2.935311e-06	6.821415e-09	2.099989e+01	4.508569e+02
2.710000e-06	2.914934e-06	6.816367e-09	2.085411e+01	4.492198e+02
2.720000e-06	2.893972e-06	6.789936e-09	2.070414e+01	4.475187e+02
2.730000e-06	2.872370e-06	6.754429e-09	2.054959e+01	4.457770e+02
2.740000e-06	2.850143e-06	6.729384e-09	2.039058e+01	4.440167e+02
2.750000e-06	2.827452e-06	6.694890e-09	2.022824e+01	4.422517e+02
2.760000e-06	2.804308e-06	6.695132e-09	2.006266e+01	4.404823e+02
2.770000e-06	2.780658e-06	6.663743e-09	1.989347e+01	4.386956e+02
2.780000e-06	2.756640e-06	6.608306e-09	1.972164e+01	4.368703e+02
2.790000e-06	2.732129e-06	6.596399e-09	1.954628e+01	4.349842e+02
2.800000e-06	2.706959e-06	6.583453e-09	1.936621e+01	4.330222e+02
2.810000e-06	2.681356e-06	6.537810e-09	1.918304e+01	4.309812e+02
2.820000e-06	2.655323e-06	6.496732e-09	1.899679e+01	4.288707e+02
2.830000e-06	2.628772e-06	6.478270e-09	1.880684e+01	4.267080e+02
2.840000e-06	2.601820e-06	6.445124e-09	1.861402e+01	4.245112e+02
2.850000e-06	2.574457e-06	6.413742e-09	1.841825e+01	4.222917e+02
2.860000e-06	2.546532e-06	6.375652e-09	1.821847e+01	4.200501e+02
2.870000e-06	2.518064e-06	6.329537e-09	1.801481e+01	4.177766e+02
2.880000e-06	2.489183e-06	6.312124e-09	1.780818e+01	4.154557e+02
2.890000e-06	2.459911e-06	6.273102e-09	1.759876e+01	4.130730e+02
2.900000e-06	2.430235e-06	6.226420e-09	1.738646e+01	4.106222e+02
2.910000e-06	2.400097e-06	6.190608e-09	1.717084e+01	4.081075e+02
2.920000e-06	2.369432e-06	6.147025e-09	1.695146e+01	4.055420e+02
2.930000e-06	2.338231e-06	6.117280e-09	1.672824e+01	4.029411e+02
2.940000e-06	2.306551e-06	6.077689e-09	1.650159e+01	4.003155e+02
