# Temperatura_=_20.0
# Concentracion g/m^3_=_10000.0
# C_Vs_to_Am_M_A/Vsm_=_65563218390.804596
# pendiente_HvsI_1/m_=_3716.3
# ordenada_HvsI_A/m_=_1297.0
# frecuencia_Hz_=_212936.65873982213

Tiempo_(s)	Campo_(V.s)	Magnetizacion_(V.s)	Campo_(kA/m)	Magnetizacion_(A/m)
0.000000e+00	-3.282698e-06	-7.233116e-09	-2.355665e+01	-4.700449e+02
1.000000e-08	-3.282478e-06	-7.235669e-09	-2.355507e+01	-4.702358e+02
2.000000e-08	-3.281664e-06	-7.235219e-09	-2.354923e+01	-4.703964e+02
3.000000e-08	-3.280247e-06	-7.233544e-09	-2.353906e+01	-4.705200e+02
4.000000e-08	-3.278310e-06	-7.233819e-09	-2.352516e+01	-4.705931e+02
5.000000e-08	-3.275849e-06	-7.234044e-09	-2.350750e+01	-4.706002e+02
6.000000e-08	-3.272844e-06	-7.235117e-09	-2.348594e+01	-4.705298e+02
7.000000e-08	-3.269257e-06	-7.238210e-09	-2.346019e+01	-4.703800e+02
8.000000e-08	-3.264943e-06	-7.243347e-09	-2.342924e+01	-4.701623e+02
9.000000e-08	-3.259799e-06	-7.217516e-09	-2.339232e+01	-4.699008e+02
1.000000e-07	-3.253866e-06	-7.194068e-09	-2.334975e+01	-4.696280e+02
1.100000e-07	-3.247373e-06	-7.267425e-09	-2.330316e+01	-4.693765e+02
1.200000e-07	-3.240457e-06	-7.235308e-09	-2.325353e+01	-4.691701e+02
1.300000e-07	-3.233001e-06	-7.176485e-09	-2.320002e+01	-4.690152e+02
1.400000e-07	-3.225026e-06	-7.195178e-09	-2.314280e+01	-4.688961e+02
1.500000e-07	-3.216728e-06	-7.233365e-09	-2.308325e+01	-4.687764e+02
1.600000e-07	-3.207950e-06	-7.202621e-09	-2.302026e+01	-4.686047e+02
1.700000e-07	-3.198438e-06	-7.096645e-09	-2.295200e+01	-4.683252e+02
1.800000e-07	-3.188353e-06	-7.180177e-09	-2.287963e+01	-4.678899e+02
1.900000e-07	-3.177873e-06	-7.181236e-09	-2.280443e+01	-4.672692e+02
2.000000e-07	-3.166760e-06	-7.137953e-09	-2.272467e+01	-4.664584e+02
2.100000e-07	-3.154929e-06	-7.122660e-09	-2.263978e+01	-4.654777e+02
2.200000e-07	-3.142652e-06	-7.129028e-09	-2.255168e+01	-4.643672e+02
2.300000e-07	-3.129901e-06	-7.102173e-09	-2.246018e+01	-4.631767e+02
2.400000e-07	-3.116474e-06	-7.020261e-09	-2.236383e+01	-4.619543e+02
2.500000e-07	-3.102424e-06	-7.082959e-09	-2.226300e+01	-4.607366e+02
2.600000e-07	-3.087857e-06	-7.018764e-09	-2.215847e+01	-4.595422e+02
2.700000e-07	-3.072723e-06	-6.990591e-09	-2.204987e+01	-4.583712e+02
2.800000e-07	-3.057082e-06	-7.015777e-09	-2.193763e+01	-4.572085e+02
2.900000e-07	-3.040892e-06	-6.963459e-09	-2.182145e+01	-4.560312e+02
3.000000e-07	-3.024016e-06	-6.951507e-09	-2.170034e+01	-4.548158e+02
3.100000e-07	-3.006600e-06	-6.938075e-09	-2.157537e+01	-4.535451e+02
3.200000e-07	-2.988737e-06	-6.925543e-09	-2.144718e+01	-4.522112e+02
3.300000e-07	-2.970288e-06	-6.881917e-09	-2.131479e+01	-4.508152e+02
3.400000e-07	-2.951288e-06	-6.886834e-09	-2.117845e+01	-4.493648e+02
3.500000e-07	-2.931760e-06	-6.861438e-09	-2.103832e+01	-4.478697e+02
3.600000e-07	-2.911517e-06	-6.790033e-09	-2.089306e+01	-4.463378e+02
3.700000e-07	-2.890536e-06	-6.823647e-09	-2.074250e+01	-4.447729e+02
3.800000e-07	-2.868993e-06	-6.782298e-09	-2.058790e+01	-4.431743e+02
3.900000e-07	-2.847016e-06	-6.731255e-09	-2.043020e+01	-4.415380e+02
4.000000e-07	-2.824616e-06	-6.743192e-09	-2.026945e+01	-4.398587e+02
4.100000e-07	-2.801705e-06	-6.698175e-09	-2.010504e+01	-4.381320e+02
4.200000e-07	-2.778193e-06	-6.670247e-09	-1.993632e+01	-4.363554e+02
4.300000e-07	-2.754177e-06	-6.642456e-09	-1.976398e+01	-4.345288e+02
4.400000e-07	-2.729709e-06	-6.628140e-09	-1.958840e+01	-4.326529e+02
4.500000e-07	-2.704769e-06	-6.581828e-09	-1.940943e+01	-4.307288e+02
4.600000e-07	-2.679415e-06	-6.556137e-09	-1.922749e+01	-4.287570e+02
4.700000e-07	-2.653640e-06	-6.539322e-09	-1.904253e+01	-4.267367e+02
4.800000e-07	-2.627335e-06	-6.471538e-09	-1.885376e+01	-4.246664e+02
4.900000e-07	-2.600482e-06	-6.465301e-09	-1.866106e+01	-4.225447e+02
5.000000e-07	-2.573223e-06	-6.424659e-09	-1.846545e+01	-4.203708e+02
5.100000e-07	-2.545568e-06	-6.379089e-09	-1.826700e+01	-4.181449e+02
5.200000e-07	-2.517460e-06	-6.361531e-09	-1.806530e+01	-4.158680e+02
5.300000e-07	-2.488940e-06	-6.319536e-09	-1.786064e+01	-4.135417e+02
5.400000e-07	-2.460016e-06	-6.288859e-09	-1.765309e+01	-4.111676e+02
5.500000e-07	-2.430608e-06	-6.236840e-09	-1.744205e+01	-4.087470e+02
5.600000e-07	-2.400650e-06	-6.204792e-09	-1.722707e+01	-4.062808e+02
5.700000e-07	-2.370192e-06	-6.168304e-09	-1.700851e+01	-4.037698e+02
5.800000e-07	-2.339292e-06	-6.118024e-09	-1.678676e+01	-4.012146e+02
5.900000e-07	-2.307928e-06	-6.089367e-09	-1.656170e+01	-3.986154e+02
6.000000e-07	-2.276043e-06	-6.042388e-09	-1.633289e+01	-3.959719e+02
6.100000e-07	-2.243696e-06	-6.015561e-09	-1.610077e+01	-3.932828e+02
6.200000e-07	-2.210979e-06	-5.968162e-09	-1.586599e+01	-3.905454e+02
6.300000e-07	-2.177865e-06	-5.916272e-09	-1.562837e+01	-3.877559e+02
6.400000e-07	-2.144389e-06	-5.882160e-09	-1.538814e+01	-3.849106e+02
6.500000e-07	-2.110638e-06	-5.823681e-09	-1.514594e+01	-3.820064e+02
6.600000e-07	-2.076556e-06	-5.786251e-09	-1.490137e+01	-3.790425e+02
6.700000e-07	-2.042091e-06	-5.735130e-09	-1.465405e+01	-3.760207e+02
6.800000e-07	-2.007289e-06	-5.686393e-09	-1.440431e+01	-3.729444e+02
6.900000e-07	-1.972208e-06	-5.643672e-09	-1.415257e+01	-3.698177e+02
7.000000e-07	-1.936809e-06	-5.592249e-09	-1.389855e+01	-3.666431e+02
7.100000e-07	-1.900976e-06	-5.555269e-09	-1.364141e+01	-3.634195e+02
7.200000e-07	-1.864675e-06	-5.495841e-09	-1.338091e+01	-3.601417e+02
7.300000e-07	-1.828013e-06	-5.446298e-09	-1.311783e+01	-3.568012e+02
7.400000e-07	-1.791058e-06	-5.396732e-09	-1.285264e+01	-3.533883e+02
7.500000e-07	-1.753819e-06	-5.336347e-09	-1.258541e+01	-3.498953e+02
7.600000e-07	-1.716345e-06	-5.285012e-09	-1.231650e+01	-3.463189e+02
7.700000e-07	-1.678598e-06	-5.220996e-09	-1.204562e+01	-3.426617e+02
7.800000e-07	-1.640530e-06	-5.173430e-09	-1.177245e+01	-3.389310e+02
7.900000e-07	-1.602223e-06	-5.117529e-09	-1.149756e+01	-3.351367e+02
8.000000e-07	-1.563708e-06	-5.055719e-09	-1.122118e+01	-3.312875e+02
8.100000e-07	-1.524853e-06	-5.000643e-09	-1.094235e+01	-3.273877e+02
8.200000e-07	-1.485598e-06	-4.934290e-09	-1.066066e+01	-3.234357e+02
8.300000e-07	-1.446009e-06	-4.876272e-09	-1.037657e+01	-3.194247e+02
8.400000e-07	-1.406183e-06	-4.805795e-09	-1.009078e+01	-3.153459e+02
8.500000e-07	-1.366198e-06	-4.741799e-09	-9.803841e+00	-3.111922e+02
8.600000e-07	-1.326015e-06	-4.682656e-09	-9.515487e+00	-3.069616e+02
8.700000e-07	-1.285606e-06	-4.617844e-09	-9.225512e+00	-3.026584e+02
8.800000e-07	-1.244963e-06	-4.561154e-09	-8.933856e+00	-2.982922e+02
8.900000e-07	-1.204134e-06	-4.489582e-09	-8.640867e+00	-2.938737e+02
9.000000e-07	-1.163136e-06	-4.420179e-09	-8.346669e+00	-2.894099e+02
9.100000e-07	-1.121905e-06	-4.348366e-09	-8.050790e+00	-2.849003e+02
9.200000e-07	-1.080492e-06	-4.274214e-09	-7.753610e+00	-2.803357e+02
9.300000e-07	-1.038965e-06	-4.205666e-09	-7.455612e+00	-2.756995e+02
9.400000e-07	-9.973021e-07	-4.126879e-09	-7.156642e+00	-2.709730e+02
9.500000e-07	-9.554245e-07	-4.057878e-09	-6.856129e+00	-2.661415e+02
9.600000e-07	-9.133110e-07	-3.984526e-09	-6.553922e+00	-2.611989e+02
9.700000e-07	-8.709275e-07	-3.907084e-09	-6.249778e+00	-2.561501e+02
9.800000e-07	-8.283073e-07	-3.829112e-09	-5.943935e+00	-2.510090e+02
9.900000e-07	-7.855098e-07	-3.743248e-09	-5.636820e+00	-2.457938e+02
1.000000e-06	-7.425511e-07	-3.666428e-09	-5.328549e+00	-2.405198e+02
1.010000e-06	-6.994951e-07	-3.581869e-09	-5.019579e+00	-2.351944e+02
1.020000e-06	-6.563629e-07	-3.497286e-09	-4.710062e+00	-2.298134e+02
1.030000e-06	-6.131444e-07	-3.413332e-09	-4.399926e+00	-2.243633e+02
1.040000e-06	-5.698347e-07	-3.326748e-09	-4.089136e+00	-2.188254e+02
1.050000e-06	-5.264062e-07	-3.245919e-09	-3.777492e+00	-2.131828e+02
1.060000e-06	-4.828569e-07	-3.156210e-09	-3.464982e+00	-2.074264e+02
1.070000e-06	-4.392398e-07	-3.067417e-09	-3.151986e+00	-2.015569e+02
1.080000e-06	-3.955395e-07	-2.973076e-09	-2.838393e+00	-1.955845e+02
1.090000e-06	-3.517478e-07	-2.876966e-09	-2.524143e+00	-1.895233e+02
1.100000e-06	-3.079139e-07	-2.786242e-09	-2.209591e+00	-1.833856e+02
1.110000e-06	-2.640475e-07	-2.687287e-09	-1.894805e+00	-1.771761e+02
1.120000e-06	-2.201451e-07	-2.591439e-09	-1.579762e+00	-1.708903e+02
1.130000e-06	-1.762146e-07	-2.493115e-09	-1.264516e+00	-1.645164e+02
1.140000e-06	-1.322698e-07	-2.395680e-09	-9.491683e-01	-1.580404e+02
1.150000e-06	-8.829496e-08	-2.298498e-09	-6.336049e-01	-1.514524e+02
1.160000e-06	-4.430921e-08	-2.192990e-09	-3.179630e-01	-1.447516e+02
1.170000e-06	-3.408754e-10	-2.089745e-09	-2.446123e-03	-1.379474e+02
1.180000e-06	4.362945e-08	-1.982219e-09	3.130850e-01	-1.310559e+02
1.190000e-06	8.759508e-08	-1.875479e-09	6.285825e-01	-1.240932e+02
1.200000e-06	1.315434e-07	-1.766064e-09	9.439557e-01	-1.170687e+02
1.210000e-06	1.754459e-07	-1.653079e-09	1.259000e+00	-1.099796e+02
1.220000e-06	2.192990e-07	-1.543272e-09	1.573690e+00	-1.028105e+02
1.230000e-06	2.631078e-07	-1.427486e-09	1.888062e+00	-9.553783e+01
1.240000e-06	3.068562e-07	-1.312478e-09	2.202001e+00	-8.813788e+01
1.250000e-06	3.505380e-07	-1.194168e-09	2.515461e+00	-8.059563e+01
1.260000e-06	3.941647e-07	-1.075415e-09	2.828527e+00	-7.291086e+01
1.270000e-06	4.377281e-07	-9.571961e-10	3.141138e+00	-6.509919e+01
1.280000e-06	4.812045e-07	-8.340114e-10	3.453125e+00	-5.718739e+01
1.290000e-06	5.245835e-07	-7.108363e-10	3.764413e+00	-4.920447e+01
1.300000e-06	5.678890e-07	-5.827839e-10	4.075173e+00	-4.117173e+01
1.310000e-06	6.111239e-07	-4.577495e-10	4.385427e+00	-3.309539e+01
1.320000e-06	6.542814e-07	-3.353125e-10	4.695125e+00	-2.496464e+01
1.330000e-06	6.973766e-07	-2.081804e-10	5.004376e+00	-1.675587e+01
1.340000e-06	7.403745e-07	-8.116333e-11	5.312930e+00	-8.441618e+00
1.350000e-06	7.832932e-07	4.981294e-11	5.620914e+00	-1.099354e-03
1.360000e-06	8.261191e-07	1.810087e-10	5.928233e+00	8.571554e+00
1.370000e-06	8.687427e-07	3.137378e-10	6.234100e+00	1.726431e+01
1.380000e-06	9.111071e-07	4.504678e-10	6.538107e+00	2.605049e+01
1.390000e-06	9.531761e-07	5.872430e-10	6.839995e+00	3.489700e+01
1.400000e-06	9.949790e-07	7.248755e-10	7.139972e+00	4.377434e+01
1.410000e-06	1.036612e-06	8.588572e-10	7.438732e+00	5.266480e+01
1.420000e-06	1.078126e-06	9.961809e-10	7.736635e+00	6.156563e+01
1.430000e-06	1.119499e-06	1.134261e-09	8.033531e+00	7.048632e+01
1.440000e-06	1.160713e-06	1.269763e-09	8.329280e+00	7.944111e+01
1.450000e-06	1.201748e-06	1.406487e-09	8.623748e+00	8.843964e+01
1.460000e-06	1.242564e-06	1.544483e-09	8.916643e+00	9.747957e+01
1.470000e-06	1.283150e-06	1.688123e-09	9.207890e+00	1.065439e+02
1.480000e-06	1.323481e-06	1.829461e-09	9.497303e+00	1.156039e+02
1.490000e-06	1.363583e-06	1.966851e-09	9.785078e+00	1.246270e+02
1.500000e-06	1.403517e-06	2.104094e-09	1.007164e+01	1.335857e+02
1.510000e-06	1.443264e-06	2.237981e-09	1.035686e+01	1.424649e+02
1.520000e-06	1.482750e-06	2.372422e-09	1.064022e+01	1.512644e+02
1.530000e-06	1.521852e-06	2.504430e-09	1.092082e+01	1.599961e+02
1.540000e-06	1.560536e-06	2.636061e-09	1.119841e+01	1.686755e+02
1.550000e-06	1.598900e-06	2.770075e-09	1.147371e+01	1.773132e+02
1.560000e-06	1.637019e-06	2.900658e-09	1.174725e+01	1.859070e+02
1.570000e-06	1.674888e-06	3.030679e-09	1.201900e+01	1.944397e+02
1.580000e-06	1.712480e-06	3.158657e-09	1.228876e+01	2.028812e+02
1.590000e-06	1.749770e-06	3.285494e-09	1.255636e+01	2.111968e+02
1.600000e-06	1.786756e-06	3.409537e-09	1.282177e+01	2.193559e+02
1.610000e-06	1.823504e-06	3.528609e-09	1.308547e+01	2.273395e+02
1.620000e-06	1.860002e-06	3.646398e-09	1.334738e+01	2.351442e+02
1.630000e-06	1.896100e-06	3.762010e-09	1.360642e+01	2.427794e+02
1.640000e-06	1.931706e-06	3.875474e-09	1.386192e+01	2.502619e+02
1.650000e-06	1.966921e-06	3.984853e-09	1.411463e+01	2.576075e+02
1.660000e-06	2.001852e-06	4.092969e-09	1.436530e+01	2.648242e+02
1.670000e-06	2.036463e-06	4.199907e-09	1.461366e+01	2.719090e+02
1.680000e-06	2.070721e-06	4.304557e-09	1.485950e+01	2.788498e+02
1.690000e-06	2.104640e-06	4.406734e-09	1.510290e+01	2.856302e+02
1.700000e-06	2.138250e-06	4.503421e-09	1.534409e+01	2.922365e+02
1.710000e-06	2.171543e-06	4.599137e-09	1.558300e+01	2.986629e+02
1.720000e-06	2.204436e-06	4.695307e-09	1.581904e+01	3.049141e+02
1.730000e-06	2.236930e-06	4.789071e-09	1.605222e+01	3.110034e+02
1.740000e-06	2.269056e-06	4.880375e-09	1.628275e+01	3.169475e+02
1.750000e-06	2.300765e-06	4.968424e-09	1.651030e+01	3.227607e+02
1.760000e-06	2.332052e-06	5.053289e-09	1.673481e+01	3.284500e+02
1.770000e-06	2.362930e-06	5.134662e-09	1.695639e+01	3.340135e+02
1.780000e-06	2.393433e-06	5.213354e-09	1.717528e+01	3.394425e+02
1.790000e-06	2.423492e-06	5.291820e-09	1.739099e+01	3.447258e+02
1.800000e-06	2.452984e-06	5.370508e-09	1.760262e+01	3.498555e+02
1.810000e-06	2.481941e-06	5.449591e-09	1.781042e+01	3.548302e+02
1.820000e-06	2.510468e-06	5.524167e-09	1.801513e+01	3.596568e+02
1.830000e-06	2.538607e-06	5.594000e-09	1.821705e+01	3.643474e+02
1.840000e-06	2.566309e-06	5.662304e-09	1.841584e+01	3.689153e+02
1.850000e-06	2.593592e-06	5.728120e-09	1.861162e+01	3.733702e+02
1.860000e-06	2.620468e-06	5.791191e-09	1.880448e+01	3.777149e+02
1.870000e-06	2.646806e-06	5.851462e-09	1.899349e+01	3.819449e+02
1.880000e-06	2.672584e-06	5.910299e-09	1.917847e+01	3.860510e+02
1.890000e-06	2.697905e-06	5.970224e-09	1.936018e+01	3.900239e+02
1.900000e-06	2.722797e-06	6.029784e-09	1.953880e+01	3.938587e+02
1.910000e-06	2.747232e-06	6.084670e-09	1.971415e+01	3.975573e+02
1.920000e-06	2.771246e-06	6.134804e-09	1.988647e+01	4.011284e+02
1.930000e-06	2.794817e-06	6.183900e-09	2.005561e+01	4.045846e+02
1.940000e-06	2.817802e-06	6.232786e-09	2.022056e+01	4.079379e+02
1.950000e-06	2.840208e-06	6.277853e-09	2.038134e+01	4.111956e+02
1.960000e-06	2.862143e-06	6.321063e-09	2.053874e+01	4.143579e+02
1.970000e-06	2.883615e-06	6.363908e-09	2.069283e+01	4.174184e+02
1.980000e-06	2.904535e-06	6.407434e-09	2.084295e+01	4.203674e+02
1.990000e-06	2.924805e-06	6.450350e-09	2.098841e+01	4.231969e+02
2.000000e-06	2.944405e-06	6.486515e-09	2.112906e+01	4.259039e+02
2.010000e-06	2.963436e-06	6.518140e-09	2.126562e+01	4.284936e+02
2.020000e-06	2.981962e-06	6.550120e-09	2.139857e+01	4.309779e+02
2.030000e-06	2.999993e-06	6.586288e-09	2.152796e+01	4.333725e+02
2.040000e-06	3.017588e-06	6.621814e-09	2.165422e+01	4.356919e+02
2.050000e-06	3.034673e-06	6.653432e-09	2.177682e+01	4.379450e+02
2.060000e-06	3.051115e-06	6.685678e-09	2.189481e+01	4.401324e+02
2.070000e-06	3.066993e-06	6.716660e-09	2.200875e+01	4.422472e+02
2.080000e-06	3.082392e-06	6.743340e-09	2.211926e+01	4.442778e+02
2.090000e-06	3.097297e-06	6.765158e-09	2.222621e+01	4.462128e+02
2.100000e-06	3.111717e-06	6.786877e-09	2.232969e+01	4.480453e+02
2.110000e-06	3.125584e-06	6.811657e-09	2.242920e+01	4.497756e+02
2.120000e-06	3.138835e-06	6.838155e-09	2.252429e+01	4.514118e+02
2.130000e-06	3.151546e-06	6.863154e-09	2.261550e+01	4.529666e+02
2.140000e-06	3.163745e-06	6.885029e-09	2.270304e+01	4.544531e+02
2.150000e-06	3.175408e-06	6.905574e-09	2.278674e+01	4.558808e+02
2.160000e-06	3.186582e-06	6.924267e-09	2.286692e+01	4.572523e+02
2.170000e-06	3.197176e-06	6.941814e-09	2.294294e+01	4.585630e+02
2.180000e-06	3.207097e-06	6.957336e-09	2.301414e+01	4.598033e+02
2.190000e-06	3.216439e-06	6.972671e-09	2.308117e+01	4.609623e+02
2.200000e-06	3.225245e-06	6.990877e-09	2.314437e+01	4.620326e+02
2.210000e-06	3.233539e-06	7.008665e-09	2.320389e+01	4.630131e+02
2.220000e-06	3.241344e-06	7.022282e-09	2.325989e+01	4.639104e+02
2.230000e-06	3.248601e-06	7.031545e-09	2.331197e+01	4.647370e+02
2.240000e-06	3.255221e-06	7.041352e-09	2.335948e+01	4.655080e+02
2.250000e-06	3.261218e-06	7.053185e-09	2.340251e+01	4.662364e+02
2.260000e-06	3.266655e-06	7.063316e-09	2.344152e+01	4.669299e+02
2.270000e-06	3.271496e-06	7.071491e-09	2.347626e+01	4.675884e+02
2.280000e-06	3.275656e-06	7.080158e-09	2.350611e+01	4.682053e+02
2.290000e-06	3.279147e-06	7.090146e-09	2.353117e+01	4.687699e+02
2.300000e-06	3.282034e-06	7.100156e-09	2.355189e+01	4.692718e+02
2.310000e-06	3.284352e-06	7.106166e-09	2.356852e+01	4.697050e+02
2.320000e-06	3.286149e-06	7.108662e-09	2.358141e+01	4.700697e+02
2.330000e-06	3.287409e-06	7.112776e-09	2.359046e+01	4.703734e+02
2.340000e-06	3.288014e-06	7.117296e-09	2.359480e+01	4.706274e+02
2.350000e-06	3.287997e-06	7.119836e-09	2.359468e+01	4.708434e+02
2.360000e-06	3.287433e-06	7.121079e-09	2.359063e+01	4.710287e+02
2.370000e-06	3.286364e-06	7.123310e-09	2.358296e+01	4.711831e+02
2.380000e-06	3.284839e-06	7.126329e-09	2.357201e+01	4.712982e+02
2.390000e-06	3.282733e-06	7.127691e-09	2.355690e+01	4.713597e+02
2.400000e-06	3.279954e-06	7.126639e-09	2.353696e+01	4.713523e+02
2.410000e-06	3.276629e-06	7.120953e-09	2.351310e+01	4.712661e+02
2.420000e-06	3.272852e-06	7.104305e-09	2.348599e+01	4.711017e+02
2.430000e-06	3.268412e-06	7.126683e-09	2.345413e+01	4.708733e+02
2.440000e-06	3.262966e-06	7.158536e-09	2.341505e+01	4.706072e+02
2.450000e-06	3.256636e-06	7.063323e-09	2.336963e+01	4.703366e+02
2.460000e-06	3.250049e-06	7.080771e-09	2.332236e+01	4.700931e+02
2.470000e-06	3.243330e-06	7.127253e-09	2.327415e+01	4.698975e+02
2.480000e-06	3.235939e-06	7.114185e-09	2.322111e+01	4.697520e+02
2.490000e-06	3.227704e-06	7.042045e-09	2.316201e+01	4.696367e+02
2.500000e-06	3.219179e-06	7.103631e-09	2.310084e+01	4.695114e+02
2.510000e-06	3.210387e-06	7.206207e-09	2.303774e+01	4.693229e+02
2.520000e-06	3.200673e-06	7.105882e-09	2.296804e+01	4.690159e+02
2.530000e-06	3.190157e-06	7.063039e-09	2.289257e+01	4.685456e+02
2.540000e-06	3.179385e-06	7.123578e-09	2.281527e+01	4.678868e+02
2.550000e-06	3.168122e-06	7.163148e-09	2.273446e+01	4.670400e+02
2.560000e-06	3.155983e-06	7.033733e-09	2.264734e+01	4.660301e+02
2.570000e-06	3.143273e-06	7.053718e-09	2.255614e+01	4.648998e+02
2.580000e-06	3.130160e-06	7.114786e-09	2.246204e+01	4.636997e+02
2.590000e-06	3.116418e-06	7.028266e-09	2.236342e+01	4.624762e+02
2.600000e-06	3.102152e-06	7.006579e-09	2.226105e+01	4.612626e+02
2.610000e-06	3.087479e-06	7.024793e-09	2.215576e+01	4.600738e+02
2.620000e-06	3.072138e-06	6.992818e-09	2.204567e+01	4.589064e+02
2.630000e-06	3.056171e-06	6.949517e-09	2.193109e+01	4.577432e+02
2.640000e-06	3.039736e-06	6.971619e-09	2.181316e+01	4.565603e+02
2.650000e-06	3.022706e-06	6.937314e-09	2.169095e+01	4.553353e+02
2.660000e-06	3.005171e-06	6.898322e-09	2.156511e+01	4.540527e+02
2.670000e-06	2.987261e-06	6.929419e-09	2.143659e+01	4.527064e+02
2.680000e-06	2.968736e-06	6.841800e-09	2.130366e+01	4.512991e+02
2.690000e-06	2.949534e-06	6.842340e-09	2.116587e+01	4.498394e+02
2.700000e-06	2.929837e-06	6.864073e-09	2.102451e+01	4.483367e+02
2.710000e-06	2.909621e-06	6.776658e-09	2.087944e+01	4.467984e+02
2.720000e-06	2.888854e-06	6.765141e-09	2.073043e+01	4.452274e+02
2.730000e-06	2.867478e-06	6.768059e-09	2.057703e+01	4.436220e+02
2.740000e-06	2.845469e-06	6.722274e-09	2.041910e+01	4.419779e+02
2.750000e-06	2.822978e-06	6.671865e-09	2.025770e+01	4.402898e+02
2.760000e-06	2.799981e-06	6.691791e-09	2.009267e+01	4.385536e+02
2.770000e-06	2.776436e-06	6.650506e-09	1.992372e+01	4.367673e+02
2.780000e-06	2.752497e-06	6.595459e-09	1.975193e+01	4.349311e+02
2.790000e-06	2.728128e-06	6.614496e-09	1.957706e+01	4.330458e+02
2.800000e-06	2.703119e-06	6.548589e-09	1.939759e+01	4.311126e+02
2.810000e-06	2.677580e-06	6.527542e-09	1.921432e+01	4.291316e+02
2.820000e-06	2.651676e-06	6.516608e-09	1.902843e+01	4.271017e+02
2.830000e-06	2.625326e-06	6.445814e-09	1.883935e+01	4.250217e+02
2.840000e-06	2.598537e-06	6.442186e-09	1.864711e+01	4.228899e+02
2.850000e-06	2.571347e-06	6.412069e-09	1.845200e+01	4.207059e+02
2.860000e-06	2.543650e-06	6.373064e-09	1.825324e+01	4.184700e+02
2.870000e-06	2.515385e-06	6.330781e-09	1.805041e+01	4.161835e+02
2.880000e-06	2.486658e-06	6.297207e-09	1.784426e+01	4.138479e+02
2.890000e-06	2.457543e-06	6.275154e-09	1.763533e+01	4.114648e+02
2.900000e-06	2.428028e-06	6.219619e-09	1.742353e+01	4.090354e+02
2.910000e-06	2.398060e-06	6.186343e-09	1.720849e+01	4.065605e+02
2.920000e-06	2.367618e-06	6.142304e-09	1.699003e+01	4.040410e+02
2.930000e-06	2.336655e-06	6.112936e-09	1.676784e+01	4.014773e+02
2.940000e-06	2.305149e-06	6.077834e-09	1.654175e+01	3.988697e+02
