# Temperatura_=_20.0
# Concentracion g/m^3_=_10000.0
# C_Vs_to_Am_M_A/Vsm_=_65563218390.804596
# pendiente_HvsI_1/m_=_3716.3
# ordenada_HvsI_A/m_=_1297.0
# frecuencia_Hz_=_212933.426919542

Tiempo_(s)	Campo_(V.s)	Magnetizacion_(V.s)	Campo_(kA/m)	Magnetizacion_(A/m)
0.000000e+00	-3.280221e-06	-7.221595e-09	-2.356012e+01	-4.708308e+02
1.000000e-08	-3.279961e-06	-7.220497e-09	-2.355826e+01	-4.709306e+02
2.000000e-08	-3.279063e-06	-7.220081e-09	-2.355181e+01	-4.710512e+02
3.000000e-08	-3.277530e-06	-7.218118e-09	-2.354080e+01	-4.711879e+02
4.000000e-08	-3.275502e-06	-7.217898e-09	-2.352623e+01	-4.713101e+02
5.000000e-08	-3.272960e-06	-7.217791e-09	-2.350797e+01	-4.713731e+02
6.000000e-08	-3.269905e-06	-7.215499e-09	-2.348603e+01	-4.713348e+02
7.000000e-08	-3.266286e-06	-7.206988e-09	-2.346004e+01	-4.711728e+02
8.000000e-08	-3.261922e-06	-7.232740e-09	-2.342869e+01	-4.708930e+02
9.000000e-08	-3.256682e-06	-7.249251e-09	-2.339105e+01	-4.705292e+02
1.000000e-07	-3.250662e-06	-7.174797e-09	-2.334782e+01	-4.701308e+02
1.100000e-07	-3.244130e-06	-7.180696e-09	-2.330090e+01	-4.697451e+02
1.200000e-07	-3.237165e-06	-7.187503e-09	-2.325088e+01	-4.694009e+02
1.300000e-07	-3.229603e-06	-7.249647e-09	-2.319656e+01	-4.690980e+02
1.400000e-07	-3.221550e-06	-7.140703e-09	-2.313872e+01	-4.688080e+02
1.500000e-07	-3.213238e-06	-7.170548e-09	-2.307902e+01	-4.684849e+02
1.600000e-07	-3.204345e-06	-7.209011e-09	-2.301515e+01	-4.680821e+02
1.700000e-07	-3.194673e-06	-7.151587e-09	-2.294568e+01	-4.675684e+02
1.800000e-07	-3.184555e-06	-7.146384e-09	-2.287300e+01	-4.669377e+02
1.900000e-07	-3.174096e-06	-7.147910e-09	-2.279788e+01	-4.662084e+02
2.000000e-07	-3.162921e-06	-7.217367e-09	-2.271762e+01	-4.654138e+02
2.100000e-07	-3.151011e-06	-7.028963e-09	-2.263208e+01	-4.645871e+02
2.200000e-07	-3.138696e-06	-7.126118e-09	-2.254362e+01	-4.637477e+02
2.300000e-07	-3.125901e-06	-7.148806e-09	-2.245172e+01	-4.628938e+02
2.400000e-07	-3.112412e-06	-7.043501e-09	-2.235484e+01	-4.620042e+02
2.500000e-07	-3.098288e-06	-7.044924e-09	-2.225339e+01	-4.610489e+02
2.600000e-07	-3.083658e-06	-7.070571e-09	-2.214831e+01	-4.600025e+02
2.700000e-07	-3.068469e-06	-7.068761e-09	-2.203922e+01	-4.588561e+02
2.800000e-07	-3.052785e-06	-6.954273e-09	-2.192657e+01	-4.576223e+02
2.900000e-07	-3.036580e-06	-7.000724e-09	-2.181018e+01	-4.563306e+02
3.000000e-07	-3.019677e-06	-6.994535e-09	-2.168877e+01	-4.550158e+02
3.100000e-07	-3.002191e-06	-6.930235e-09	-2.156318e+01	-4.537037e+02
3.200000e-07	-2.984254e-06	-6.946530e-09	-2.143435e+01	-4.524002e+02
3.300000e-07	-2.965706e-06	-6.892292e-09	-2.130112e+01	-4.510885e+02
3.400000e-07	-2.946630e-06	-6.881415e-09	-2.116411e+01	-4.497351e+02
3.500000e-07	-2.927084e-06	-6.867202e-09	-2.102373e+01	-4.483028e+02
3.600000e-07	-2.906819e-06	-6.841554e-09	-2.087817e+01	-4.467658e+02
3.700000e-07	-2.885779e-06	-6.828765e-09	-2.072705e+01	-4.451198e+02
3.800000e-07	-2.864180e-06	-6.775340e-09	-2.057192e+01	-4.433846e+02
3.900000e-07	-2.842135e-06	-6.780988e-09	-2.041358e+01	-4.415960e+02
4.000000e-07	-2.819682e-06	-6.734740e-09	-2.025231e+01	-4.397929e+02
4.100000e-07	-2.796753e-06	-6.713459e-09	-2.008762e+01	-4.380017e+02
4.200000e-07	-2.773173e-06	-6.670528e-09	-1.991826e+01	-4.362262e+02
4.300000e-07	-2.749072e-06	-6.629793e-09	-1.974515e+01	-4.344465e+02
4.400000e-07	-2.724569e-06	-6.658081e-09	-1.956917e+01	-4.326267e+02
4.500000e-07	-2.699615e-06	-6.588512e-09	-1.938993e+01	-4.307292e+02
4.600000e-07	-2.674222e-06	-6.565334e-09	-1.920755e+01	-4.287289e+02
4.700000e-07	-2.648409e-06	-6.536333e-09	-1.902215e+01	-4.266232e+02
4.800000e-07	-2.622046e-06	-6.494030e-09	-1.883280e+01	-4.244323e+02
4.900000e-07	-2.595112e-06	-6.475131e-09	-1.863935e+01	-4.221909e+02
5.000000e-07	-2.567777e-06	-6.417239e-09	-1.844301e+01	-4.199348e+02
5.100000e-07	-2.540082e-06	-6.396085e-09	-1.824409e+01	-4.176863e+02
5.200000e-07	-2.511950e-06	-6.353130e-09	-1.804203e+01	-4.154467e+02
5.300000e-07	-2.483394e-06	-6.329129e-09	-1.783693e+01	-4.131958e+02
5.400000e-07	-2.454475e-06	-6.292742e-09	-1.762922e+01	-4.109010e+02
5.500000e-07	-2.425063e-06	-6.230580e-09	-1.741797e+01	-4.085307e+02
5.600000e-07	-2.395055e-06	-6.218979e-09	-1.720244e+01	-4.060664e+02
5.700000e-07	-2.364541e-06	-6.171954e-09	-1.698327e+01	-4.035103e+02
5.800000e-07	-2.333620e-06	-6.135813e-09	-1.676118e+01	-4.008832e+02
5.900000e-07	-2.302246e-06	-6.090685e-09	-1.653584e+01	-3.982155e+02
6.000000e-07	-2.270341e-06	-6.040382e-09	-1.630668e+01	-3.955340e+02
6.100000e-07	-2.237975e-06	-6.019350e-09	-1.607421e+01	-3.928504e+02
6.200000e-07	-2.205228e-06	-5.958553e-09	-1.583901e+01	-3.901558e+02
6.300000e-07	-2.172079e-06	-5.921119e-09	-1.560092e+01	-3.874240e+02
6.400000e-07	-2.138580e-06	-5.873256e-09	-1.536031e+01	-3.846215e+02
6.500000e-07	-2.104814e-06	-5.830974e-09	-1.511779e+01	-3.817210e+02
6.600000e-07	-2.070720e-06	-5.799226e-09	-1.487291e+01	-3.787118e+02
6.700000e-07	-2.036233e-06	-5.734139e-09	-1.462521e+01	-3.756042e+02
6.800000e-07	-2.001369e-06	-5.691855e-09	-1.437480e+01	-3.724255e+02
6.900000e-07	-1.966240e-06	-5.632830e-09	-1.412248e+01	-3.692090e+02
7.000000e-07	-1.930861e-06	-5.590296e-09	-1.386837e+01	-3.659809e+02
7.100000e-07	-1.895033e-06	-5.544701e-09	-1.361104e+01	-3.627501e+02
7.200000e-07	-1.858682e-06	-5.476651e-09	-1.334994e+01	-3.595039e+02
7.300000e-07	-1.821986e-06	-5.435274e-09	-1.308638e+01	-3.562134e+02
7.400000e-07	-1.785067e-06	-5.380414e-09	-1.282121e+01	-3.528435e+02
7.500000e-07	-1.747871e-06	-5.335091e-09	-1.255405e+01	-3.493662e+02
7.600000e-07	-1.710351e-06	-5.276683e-09	-1.228456e+01	-3.457699e+02
7.700000e-07	-1.672541e-06	-5.212082e-09	-1.201299e+01	-3.420627e+02
7.800000e-07	-1.634436e-06	-5.165813e-09	-1.173931e+01	-3.382677e+02
7.900000e-07	-1.596079e-06	-5.099260e-09	-1.146381e+01	-3.344137e+02
8.000000e-07	-1.557547e-06	-5.043680e-09	-1.118705e+01	-3.305232e+02
8.100000e-07	-1.518709e-06	-4.976044e-09	-1.090810e+01	-3.266045e+02
8.200000e-07	-1.479488e-06	-4.913562e-09	-1.062639e+01	-3.226499e+02
8.300000e-07	-1.439909e-06	-4.861280e-09	-1.034212e+01	-3.186401e+02
8.400000e-07	-1.400051e-06	-4.790826e-09	-1.005584e+01	-3.145532e+02
8.500000e-07	-1.360028e-06	-4.733493e-09	-9.768372e+00	-3.103747e+02
8.600000e-07	-1.319845e-06	-4.664917e-09	-9.479761e+00	-3.061030e+02
8.700000e-07	-1.279473e-06	-4.603957e-09	-9.189790e+00	-3.017500e+02
8.800000e-07	-1.238866e-06	-4.540995e-09	-8.898132e+00	-2.973354e+02
8.900000e-07	-1.198016e-06	-4.463813e-09	-8.604729e+00	-2.928775e+02
9.000000e-07	-1.156950e-06	-4.395637e-09	-8.309768e+00	-2.883856e+02
9.100000e-07	-1.115684e-06	-4.317095e-09	-8.013380e+00	-2.838548e+02
9.200000e-07	-1.074261e-06	-4.252972e-09	-7.715859e+00	-2.792680e+02
9.300000e-07	-1.032718e-06	-4.184396e-09	-7.417474e+00	-2.746024e+02
9.400000e-07	-9.910670e-07	-4.109316e-09	-7.118319e+00	-2.698379e+02
9.500000e-07	-9.492883e-07	-4.041163e-09	-6.818245e+00	-2.649649e+02
9.600000e-07	-9.072695e-07	-3.958539e-09	-6.516446e+00	-2.599867e+02
9.700000e-07	-8.649764e-07	-3.883800e-09	-6.212676e+00	-2.549173e+02
9.800000e-07	-8.224816e-07	-3.799224e-09	-5.907458e+00	-2.497740e+02
9.900000e-07	-7.797581e-07	-3.717749e-09	-5.600597e+00	-2.445691e+02
1.000000e-06	-7.368109e-07	-3.642726e-09	-5.292130e+00	-2.393037e+02
1.010000e-06	-6.937203e-07	-3.557418e-09	-4.982633e+00	-2.339665e+02
1.020000e-06	-6.505457e-07	-3.480270e-09	-4.672532e+00	-2.285380e+02
1.030000e-06	-6.073096e-07	-3.392186e-09	-4.361989e+00	-2.229983e+02
1.040000e-06	-5.640047e-07	-3.306916e-09	-4.050953e+00	-2.173355e+02
1.050000e-06	-5.206073e-07	-3.220014e-09	-3.739252e+00	-2.115511e+02
1.060000e-06	-4.771290e-07	-3.127523e-09	-3.426970e+00	-2.056601e+02
1.070000e-06	-4.335819e-07	-3.041518e-09	-3.114194e+00	-1.996849e+02
1.080000e-06	-3.899413e-07	-2.944052e-09	-2.800746e+00	-1.936473e+02
1.090000e-06	-3.462365e-07	-2.851716e-09	-2.486837e+00	-1.875593e+02
1.100000e-06	-3.024574e-07	-2.755867e-09	-2.172395e+00	-1.814184e+02
1.110000e-06	-2.586081e-07	-2.656814e-09	-1.857448e+00	-1.752080e+02
1.120000e-06	-2.147250e-07	-2.562522e-09	-1.542258e+00	-1.689039e+02
1.130000e-06	-1.708075e-07	-2.462427e-09	-1.226822e+00	-1.624833e+02
1.140000e-06	-1.268651e-07	-2.368947e-09	-9.112062e-01	-1.559333e+02
1.150000e-06	-8.290236e-08	-2.266662e-09	-5.954446e-01	-1.492563e+02
1.160000e-06	-3.893303e-08	-2.160711e-09	-2.796358e-01	-1.424684e+02
1.170000e-06	5.043867e-09	-2.053676e-09	3.622748e-02	-1.355936e+02
1.180000e-06	4.901041e-08	-1.942337e-09	3.520163e-01	-1.286546e+02
1.190000e-06	9.295419e-08	-1.837323e-09	6.676416e-01	-1.216643e+02
1.200000e-06	1.368792e-07	-1.724806e-09	9.831321e-01	-1.146207e+02
1.210000e-06	1.807714e-07	-1.615629e-09	1.298387e+00	-1.075085e+02
1.220000e-06	2.245983e-07	-1.506433e-09	1.613173e+00	-1.003044e+02
1.230000e-06	2.683784e-07	-1.393077e-09	1.927623e+00	-9.298550e+01
1.240000e-06	3.121315e-07	-1.279829e-09	2.241879e+00	-8.553759e+01
1.250000e-06	3.557939e-07	-1.156132e-09	2.555483e+00	-7.795927e+01
1.260000e-06	3.993618e-07	-1.033184e-09	2.868408e+00	-7.026143e+01
1.270000e-06	4.428481e-07	-9.095045e-10	3.180748e+00	-6.246230e+01
1.280000e-06	4.862530e-07	-7.884005e-10	3.492503e+00	-5.458022e+01
1.290000e-06	5.295982e-07	-6.682674e-10	3.803829e+00	-4.662701e+01
1.300000e-06	5.728776e-07	-5.421532e-10	4.114683e+00	-3.860442e+01
1.310000e-06	6.160967e-07	-4.197003e-10	4.425103e+00	-3.050475e+01
1.320000e-06	6.592730e-07	-2.932163e-10	4.735216e+00	-2.231506e+01
1.330000e-06	7.023946e-07	-1.646521e-10	5.044936e+00	-1.402304e+01
1.340000e-06	7.454239e-07	-3.357410e-11	5.353992e+00	-5.622217e+00
1.350000e-06	7.882993e-07	1.011934e-10	5.661945e+00	2.885543e+00
1.360000e-06	8.309813e-07	2.325121e-10	5.968507e+00	1.149076e+01
1.370000e-06	8.734407e-07	3.678379e-10	6.273471e+00	2.017970e+01
1.380000e-06	9.156341e-07	5.011052e-10	6.576524e+00	2.893871e+01
1.390000e-06	9.575992e-07	6.352349e-10	6.877938e+00	3.775747e+01
1.400000e-06	9.993628e-07	7.704278e-10	7.177904e+00	4.663004e+01
1.410000e-06	1.040972e-06	9.043650e-10	7.476758e+00	5.555337e+01
1.420000e-06	1.082490e-06	1.045487e-09	7.774967e+00	6.452425e+01
1.430000e-06	1.123879e-06	1.184931e-09	8.072239e+00	7.353618e+01
1.440000e-06	1.165082e-06	1.325749e-09	8.368177e+00	8.257774e+01
1.450000e-06	1.206069e-06	1.465815e-09	8.662570e+00	9.163321e+01
1.460000e-06	1.246819e-06	1.604287e-09	8.955253e+00	1.006852e+02
1.470000e-06	1.287332e-06	1.743977e-09	9.246234e+00	1.097180e+02
1.480000e-06	1.327609e-06	1.878268e-09	9.535523e+00	1.187209e+02
1.490000e-06	1.367702e-06	2.014121e-09	9.823495e+00	1.276886e+02
1.500000e-06	1.407639e-06	2.150915e-09	1.011034e+01	1.366205e+02
1.510000e-06	1.447328e-06	2.289976e-09	1.039541e+01	1.455174e+02
1.520000e-06	1.486639e-06	2.429431e-09	1.067775e+01	1.543779e+02
1.530000e-06	1.525547e-06	2.563578e-09	1.095722e+01	1.631954e+02
1.540000e-06	1.564145e-06	2.698219e-09	1.123444e+01	1.719573e+02
1.550000e-06	1.602492e-06	2.830087e-09	1.150987e+01	1.806463e+02
1.560000e-06	1.640567e-06	2.959325e-09	1.178334e+01	1.892429e+02
1.570000e-06	1.678354e-06	3.086038e-09	1.205474e+01	1.977282e+02
1.580000e-06	1.715879e-06	3.210289e-09	1.232426e+01	2.060873e+02
1.590000e-06	1.753102e-06	3.336740e-09	1.259162e+01	2.143095e+02
1.600000e-06	1.790053e-06	3.462534e-09	1.285702e+01	2.223883e+02
1.610000e-06	1.826792e-06	3.586676e-09	1.312090e+01	2.303198e+02
1.620000e-06	1.863212e-06	3.706044e-09	1.338249e+01	2.381015e+02
1.630000e-06	1.899160e-06	3.821173e-09	1.364068e+01	2.457309e+02
1.640000e-06	1.934653e-06	3.933808e-09	1.389561e+01	2.532055e+02
1.650000e-06	1.969819e-06	4.041222e-09	1.414818e+01	2.605238e+02
1.660000e-06	2.004685e-06	4.147228e-09	1.439861e+01	2.676852e+02
1.670000e-06	2.039200e-06	4.250774e-09	1.464651e+01	2.746909e+02
1.680000e-06	2.073373e-06	4.354014e-09	1.489196e+01	2.815433e+02
1.690000e-06	2.107249e-06	4.456416e-09	1.513528e+01	2.882448e+02
1.700000e-06	2.140847e-06	4.553516e-09	1.537660e+01	2.947963e+02
1.710000e-06	2.174105e-06	4.649113e-09	1.561546e+01	3.011973e+02
1.720000e-06	2.206905e-06	4.743166e-09	1.585105e+01	3.074453e+02
1.730000e-06	2.239275e-06	4.836226e-09	1.608355e+01	3.135376e+02
1.740000e-06	2.271283e-06	4.924939e-09	1.631345e+01	3.194724e+02
1.750000e-06	2.302900e-06	5.008384e-09	1.654054e+01	3.252502e+02
1.760000e-06	2.334120e-06	5.091811e-09	1.676477e+01	3.308746e+02
1.770000e-06	2.364929e-06	5.174045e-09	1.698605e+01	3.363518e+02
1.780000e-06	2.395343e-06	5.254799e-09	1.720451e+01	3.416891e+02
1.790000e-06	2.425303e-06	5.333197e-09	1.741969e+01	3.468936e+02
1.800000e-06	2.454673e-06	5.410439e-09	1.763065e+01	3.519709e+02
1.810000e-06	2.483557e-06	5.487609e-09	1.783810e+01	3.569252e+02
1.820000e-06	2.512032e-06	5.560466e-09	1.804262e+01	3.617590e+02
1.830000e-06	2.540063e-06	5.629416e-09	1.824395e+01	3.664740e+02
1.840000e-06	2.567645e-06	5.696067e-09	1.844206e+01	3.710714e+02
1.850000e-06	2.594841e-06	5.762797e-09	1.863739e+01	3.755508e+02
1.860000e-06	2.621608e-06	5.829448e-09	1.882965e+01	3.799101e+02
1.870000e-06	2.647784e-06	5.893657e-09	1.901766e+01	3.841437e+02
1.880000e-06	2.673450e-06	5.954452e-09	1.920200e+01	3.882433e+02
1.890000e-06	2.698713e-06	6.012283e-09	1.938345e+01	3.921993e+02
1.900000e-06	2.723538e-06	6.070261e-09	1.956176e+01	3.960041e+02
1.910000e-06	2.747917e-06	6.125162e-09	1.973686e+01	3.996556e+02
1.920000e-06	2.771914e-06	6.175904e-09	1.990922e+01	4.031607e+02
1.930000e-06	2.795390e-06	6.224749e-09	2.007784e+01	4.065352e+02
1.940000e-06	2.818215e-06	6.271783e-09	2.024177e+01	4.098014e+02
1.950000e-06	2.840511e-06	6.318201e-09	2.040192e+01	4.129826e+02
1.960000e-06	2.862350e-06	6.363080e-09	2.055877e+01	4.160956e+02
1.970000e-06	2.883701e-06	6.405581e-09	2.071213e+01	4.191454e+02
1.980000e-06	2.904518e-06	6.448472e-09	2.086164e+01	4.221226e+02
1.990000e-06	2.924645e-06	6.492311e-09	2.100621e+01	4.250064e+02
2.000000e-06	2.944107e-06	6.532242e-09	2.114600e+01	4.277712e+02
2.010000e-06	2.963065e-06	6.565720e-09	2.128216e+01	4.303963e+02
2.020000e-06	2.981511e-06	6.596848e-09	2.141465e+01	4.328742e+02
2.030000e-06	2.999465e-06	6.630470e-09	2.154360e+01	4.352148e+02
2.040000e-06	3.016986e-06	6.662866e-09	2.166944e+01	4.374431e+02
2.050000e-06	3.033955e-06	6.693521e-09	2.179132e+01	4.395916e+02
2.060000e-06	3.050301e-06	6.724348e-09	2.190873e+01	4.416891e+02
2.070000e-06	3.066121e-06	6.755788e-09	2.202235e+01	4.437507e+02
2.080000e-06	3.081446e-06	6.784547e-09	2.213243e+01	4.457718e+02
2.090000e-06	3.096275e-06	6.808438e-09	2.223894e+01	4.477303e+02
2.100000e-06	3.110623e-06	6.832226e-09	2.234199e+01	4.495943e+02
2.110000e-06	3.124396e-06	6.856388e-09	2.244091e+01	4.513349e+02
2.120000e-06	3.137535e-06	6.880848e-09	2.253528e+01	4.529376e+02
2.130000e-06	3.150177e-06	6.904061e-09	2.262609e+01	4.544093e+02
2.140000e-06	3.162316e-06	6.924602e-09	2.271327e+01	4.557763e+02
2.150000e-06	3.173936e-06	6.944029e-09	2.279674e+01	4.570763e+02
2.160000e-06	3.185086e-06	6.962665e-09	2.287682e+01	4.583446e+02
2.170000e-06	3.195587e-06	6.979701e-09	2.295224e+01	4.596018e+02
2.180000e-06	3.205410e-06	6.994866e-09	2.302280e+01	4.608461e+02
2.190000e-06	3.214696e-06	7.010339e-09	2.308950e+01	4.620549e+02
2.200000e-06	3.223438e-06	7.028625e-09	2.315228e+01	4.631935e+02
2.210000e-06	3.231678e-06	7.045732e-09	2.321146e+01	4.642297e+02
2.220000e-06	3.239401e-06	7.059771e-09	2.326694e+01	4.651461e+02
2.230000e-06	3.246542e-06	7.071592e-09	2.331823e+01	4.659484e+02
2.240000e-06	3.253098e-06	7.082753e-09	2.336531e+01	4.666631e+02
2.250000e-06	3.259032e-06	7.093992e-09	2.340794e+01	4.673281e+02
2.260000e-06	3.264353e-06	7.102295e-09	2.344615e+01	4.679778e+02
2.270000e-06	3.269082e-06	7.109334e-09	2.348012e+01	4.686299e+02
2.280000e-06	3.273115e-06	7.119328e-09	2.350909e+01	4.692779e+02
2.290000e-06	3.276481e-06	7.131348e-09	2.353326e+01	4.698937e+02
2.300000e-06	3.279320e-06	7.140591e-09	2.355365e+01	4.704382e+02
2.310000e-06	3.281594e-06	7.145957e-09	2.356999e+01	4.708774e+02
2.320000e-06	3.283334e-06	7.148823e-09	2.358248e+01	4.711959e+02
2.330000e-06	3.284523e-06	7.152590e-09	2.359103e+01	4.714042e+02
2.340000e-06	3.285049e-06	7.155726e-09	2.359480e+01	4.715355e+02
2.350000e-06	3.284976e-06	7.155319e-09	2.359428e+01	4.716337e+02
2.360000e-06	3.284360e-06	7.156654e-09	2.358985e+01	4.717367e+02
2.370000e-06	3.283220e-06	7.161020e-09	2.358167e+01	4.718620e+02
2.380000e-06	3.281629e-06	7.165492e-09	2.357023e+01	4.719991e+02
2.390000e-06	3.279449e-06	7.166870e-09	2.355458e+01	4.721134e+02
2.400000e-06	3.276604e-06	7.165429e-09	2.353415e+01	4.721592e+02
2.410000e-06	3.273256e-06	7.173032e-09	2.351010e+01	4.720973e+02
2.420000e-06	3.269429e-06	7.155186e-09	2.348261e+01	4.719104e+02
2.430000e-06	3.264917e-06	7.112931e-09	2.345020e+01	4.716106e+02
2.440000e-06	3.259356e-06	7.176559e-09	2.341026e+01	4.712359e+02
2.450000e-06	3.252922e-06	7.155033e-09	2.336405e+01	4.708367e+02
2.460000e-06	3.246357e-06	7.141039e-09	2.331690e+01	4.704580e+02
2.470000e-06	3.239664e-06	7.081880e-09	2.326883e+01	4.701233e+02
2.480000e-06	3.232180e-06	7.151659e-09	2.321507e+01	4.698261e+02
2.490000e-06	3.223834e-06	7.146963e-09	2.315513e+01	4.695336e+02
2.500000e-06	3.215327e-06	7.081844e-09	2.309402e+01	4.691981e+02
2.510000e-06	3.206490e-06	7.077442e-09	2.303055e+01	4.687751e+02
2.520000e-06	3.196622e-06	7.118894e-09	2.295967e+01	4.682378e+02
2.530000e-06	3.186044e-06	7.086340e-09	2.288370e+01	4.675854e+02
2.540000e-06	3.175290e-06	7.022863e-09	2.280646e+01	4.668403e+02
2.550000e-06	3.163960e-06	7.146287e-09	2.272508e+01	4.660370e+02
2.560000e-06	3.151707e-06	7.052417e-09	2.263708e+01	4.652070e+02
2.570000e-06	3.138989e-06	6.984912e-09	2.254573e+01	4.643657e+02
2.580000e-06	3.125845e-06	7.026542e-09	2.245132e+01	4.635070e+02
2.590000e-06	3.112028e-06	7.080707e-09	2.235208e+01	4.626069e+02
2.600000e-06	3.097754e-06	6.947650e-09	2.224956e+01	4.616352e+02
2.610000e-06	3.083081e-06	6.936053e-09	2.214417e+01	4.605690e+02
2.620000e-06	3.067686e-06	7.021907e-09	2.203360e+01	4.594036e+02
2.630000e-06	3.051702e-06	6.940268e-09	2.191879e+01	4.581557e+02
2.640000e-06	3.035282e-06	6.915092e-09	2.180085e+01	4.568568e+02
2.650000e-06	3.018228e-06	6.909260e-09	2.167836e+01	4.555411e+02
2.660000e-06	3.000707e-06	6.888915e-09	2.155252e+01	4.542312e+02
2.670000e-06	2.982772e-06	6.865415e-09	2.142371e+01	4.529282e+02
2.680000e-06	2.964158e-06	6.845513e-09	2.129001e+01	4.516114e+02
2.690000e-06	2.944900e-06	6.832329e-09	2.115168e+01	4.502451e+02
2.700000e-06	2.925134e-06	6.774960e-09	2.100972e+01	4.487936e+02
2.710000e-06	2.904836e-06	6.795506e-09	2.086393e+01	4.472344e+02
2.720000e-06	2.883990e-06	6.748931e-09	2.071421e+01	4.455685e+02
2.730000e-06	2.862539e-06	6.715558e-09	2.056013e+01	4.438195e+02
2.740000e-06	2.840435e-06	6.715387e-09	2.040137e+01	4.420253e+02
2.750000e-06	2.817880e-06	6.643666e-09	2.023937e+01	4.402233e+02
2.760000e-06	2.794885e-06	6.675979e-09	2.007421e+01	4.384359e+02
2.770000e-06	2.771348e-06	6.635718e-09	1.990515e+01	4.366620e+02
2.780000e-06	2.747431e-06	6.569096e-09	1.973337e+01	4.348775e+02
2.790000e-06	2.723032e-06	6.572095e-09	1.955813e+01	4.330452e+02
2.800000e-06	2.697965e-06	6.542350e-09	1.937808e+01	4.311286e+02
2.810000e-06	2.672445e-06	6.514124e-09	1.919478e+01	4.291068e+02
2.820000e-06	2.646520e-06	6.465555e-09	1.900858e+01	4.269820e+02
2.830000e-06	2.620098e-06	6.446299e-09	1.881880e+01	4.247781e+02
2.840000e-06	2.593251e-06	6.415270e-09	1.862598e+01	4.225313e+02
2.850000e-06	2.566021e-06	6.383652e-09	1.843040e+01	4.202757e+02
2.860000e-06	2.538285e-06	6.358959e-09	1.823119e+01	4.180298e+02
2.870000e-06	2.509969e-06	6.290803e-09	1.802781e+01	4.157902e+02
2.880000e-06	2.481211e-06	6.286578e-09	1.782125e+01	4.135335e+02
2.890000e-06	2.452064e-06	6.246568e-09	1.761190e+01	4.112261e+02
2.900000e-06	2.422513e-06	6.196864e-09	1.739965e+01	4.088379e+02
2.910000e-06	2.392508e-06	6.167367e-09	1.718414e+01	4.063546e+02
2.920000e-06	2.362010e-06	6.112659e-09	1.696509e+01	4.037823e+02
2.930000e-06	2.330989e-06	6.098860e-09	1.674228e+01	4.011447e+02
2.940000e-06	2.299432e-06	6.044226e-09	1.651562e+01	3.984727e+02
