# Temperatura_=_20.0
# Concentracion g/m^3_=_10000.0
# C_Vs_to_Am_M_A/Vsm_=_65563218390.804596
# pendiente_HvsI_1/m_=_3716.3
# ordenada_HvsI_A/m_=_1297.0
# frecuencia_Hz_=_212930.449520526

Tiempo_(s)	Campo_(V.s)	Magnetizacion_(V.s)	Campo_(kA/m)	Magnetizacion_(A/m)
0.000000e+00	-3.290153e-06	-7.229984e-09	-2.355918e+01	-4.710768e+02
1.000000e-08	-3.289854e-06	-7.233650e-09	-2.355704e+01	-4.712386e+02
2.000000e-08	-3.288951e-06	-7.237107e-09	-2.355058e+01	-4.713746e+02
3.000000e-08	-3.287441e-06	-7.238386e-09	-2.353976e+01	-4.714693e+02
4.000000e-08	-3.285433e-06	-7.237607e-09	-2.352538e+01	-4.715027e+02
5.000000e-08	-3.282873e-06	-7.234468e-09	-2.350705e+01	-4.714577e+02
6.000000e-08	-3.279784e-06	-7.229116e-09	-2.348493e+01	-4.713275e+02
7.000000e-08	-3.276133e-06	-7.222165e-09	-2.345879e+01	-4.711192e+02
8.000000e-08	-3.271718e-06	-7.238613e-09	-2.342718e+01	-4.708522e+02
9.000000e-08	-3.266432e-06	-7.237850e-09	-2.338933e+01	-4.705523e+02
1.000000e-07	-3.260341e-06	-7.193213e-09	-2.334571e+01	-4.702438e+02
1.100000e-07	-3.253726e-06	-7.235512e-09	-2.329834e+01	-4.699418e+02
1.200000e-07	-3.246709e-06	-7.211699e-09	-2.324810e+01	-4.696482e+02
1.300000e-07	-3.239139e-06	-7.219774e-09	-2.319389e+01	-4.693524e+02
1.400000e-07	-3.231100e-06	-7.181569e-09	-2.313633e+01	-4.690356e+02
1.500000e-07	-3.222734e-06	-7.212357e-09	-2.307643e+01	-4.686777e+02
1.600000e-07	-3.213810e-06	-7.210247e-09	-2.301253e+01	-4.682626e+02
1.700000e-07	-3.204191e-06	-7.109014e-09	-2.294365e+01	-4.677812e+02
1.800000e-07	-3.194090e-06	-7.163509e-09	-2.287132e+01	-4.672307e+02
1.900000e-07	-3.183550e-06	-7.155618e-09	-2.279585e+01	-4.666107e+02
2.000000e-07	-3.172267e-06	-7.181244e-09	-2.271505e+01	-4.659199e+02
2.100000e-07	-3.160295e-06	-7.088039e-09	-2.262933e+01	-4.651528e+02
2.200000e-07	-3.147936e-06	-7.118516e-09	-2.254084e+01	-4.643016e+02
2.300000e-07	-3.135072e-06	-7.121841e-09	-2.244872e+01	-4.633591e+02
2.400000e-07	-3.121497e-06	-7.028861e-09	-2.235152e+01	-4.623247e+02
2.500000e-07	-3.107331e-06	-7.069238e-09	-2.225008e+01	-4.612079e+02
2.600000e-07	-3.092691e-06	-7.031575e-09	-2.214526e+01	-4.600291e+02
2.700000e-07	-3.077484e-06	-7.026990e-09	-2.203636e+01	-4.588151e+02
2.800000e-07	-3.061751e-06	-6.994273e-09	-2.192370e+01	-4.575920e+02
2.900000e-07	-3.045454e-06	-6.979129e-09	-2.180701e+01	-4.563762e+02
3.000000e-07	-3.028453e-06	-6.972131e-09	-2.168527e+01	-4.551686e+02
3.100000e-07	-3.010929e-06	-6.932857e-09	-2.155979e+01	-4.539531e+02
3.200000e-07	-2.992980e-06	-6.937190e-09	-2.143127e+01	-4.527015e+02
3.300000e-07	-2.974423e-06	-6.881387e-09	-2.129839e+01	-4.513822e+02
3.400000e-07	-2.955318e-06	-6.881790e-09	-2.116159e+01	-4.499717e+02
3.500000e-07	-2.935659e-06	-6.863329e-09	-2.102082e+01	-4.484621e+02
3.600000e-07	-2.915242e-06	-6.803317e-09	-2.087463e+01	-4.468640e+02
3.700000e-07	-2.894106e-06	-6.821032e-09	-2.072328e+01	-4.452027e+02
3.800000e-07	-2.872439e-06	-6.775240e-09	-2.056814e+01	-4.435088e+02
3.900000e-07	-2.850328e-06	-6.750490e-09	-2.040981e+01	-4.418074e+02
4.000000e-07	-2.827789e-06	-6.732678e-09	-2.024841e+01	-4.401088e+02
4.100000e-07	-2.804728e-06	-6.702845e-09	-2.008329e+01	-4.384054e+02
4.200000e-07	-2.781068e-06	-6.678654e-09	-1.991387e+01	-4.366748e+02
4.300000e-07	-2.756933e-06	-6.634837e-09	-1.974105e+01	-4.348889e+02
4.400000e-07	-2.732369e-06	-6.637129e-09	-1.956516e+01	-4.330238e+02
4.500000e-07	-2.707327e-06	-6.580521e-09	-1.938585e+01	-4.310694e+02
4.600000e-07	-2.681861e-06	-6.557192e-09	-1.920350e+01	-4.290321e+02
4.700000e-07	-2.655979e-06	-6.534499e-09	-1.901817e+01	-4.269323e+02
4.800000e-07	-2.629508e-06	-6.476650e-09	-1.882863e+01	-4.247961e+02
4.900000e-07	-2.602506e-06	-6.474729e-09	-1.863528e+01	-4.226452e+02
5.000000e-07	-2.575126e-06	-6.426693e-09	-1.843922e+01	-4.204887e+02
5.100000e-07	-2.547328e-06	-6.393944e-09	-1.824017e+01	-4.183205e+02
5.200000e-07	-2.519093e-06	-6.366531e-09	-1.803800e+01	-4.161217e+02
5.300000e-07	-2.490479e-06	-6.327576e-09	-1.783311e+01	-4.138687e+02
5.400000e-07	-2.461468e-06	-6.295532e-09	-1.762537e+01	-4.115422e+02
5.500000e-07	-2.431902e-06	-6.238196e-09	-1.741366e+01	-4.091346e+02
5.600000e-07	-2.401751e-06	-6.217556e-09	-1.719777e+01	-4.066518e+02
5.700000e-07	-2.371130e-06	-6.175343e-09	-1.697851e+01	-4.041103e+02
5.800000e-07	-2.340093e-06	-6.133404e-09	-1.675626e+01	-4.015297e+02
5.900000e-07	-2.308619e-06	-6.102934e-09	-1.653089e+01	-3.989241e+02
6.000000e-07	-2.276625e-06	-6.053249e-09	-1.630180e+01	-3.962955e+02
6.100000e-07	-2.244159e-06	-6.029459e-09	-1.606933e+01	-3.936333e+02
6.200000e-07	-2.211306e-06	-5.972446e-09	-1.583408e+01	-3.909176e+02
6.300000e-07	-2.178051e-06	-5.930028e-09	-1.559596e+01	-3.881269e+02
6.400000e-07	-2.144488e-06	-5.892365e-09	-1.535563e+01	-3.852467e+02
6.500000e-07	-2.110643e-06	-5.836053e-09	-1.511328e+01	-3.822749e+02
6.600000e-07	-2.076449e-06	-5.800434e-09	-1.486844e+01	-3.792231e+02
6.700000e-07	-2.041895e-06	-5.743912e-09	-1.462102e+01	-3.761122e+02
6.800000e-07	-2.006978e-06	-5.703551e-09	-1.437099e+01	-3.729650e+02
6.900000e-07	-1.971776e-06	-5.654903e-09	-1.411893e+01	-3.697979e+02
7.000000e-07	-1.936290e-06	-5.604164e-09	-1.386483e+01	-3.666152e+02
7.100000e-07	-1.900317e-06	-5.563227e-09	-1.360724e+01	-3.634082e+02
7.200000e-07	-1.863861e-06	-5.498666e-09	-1.334620e+01	-3.601581e+02
7.300000e-07	-1.827098e-06	-5.453474e-09	-1.308296e+01	-3.568429e+02
7.400000e-07	-1.790039e-06	-5.398295e-09	-1.281760e+01	-3.534445e+02
7.500000e-07	-1.752693e-06	-5.342824e-09	-1.255018e+01	-3.499539e+02
7.600000e-07	-1.715066e-06	-5.291730e-09	-1.228075e+01	-3.463725e+02
7.700000e-07	-1.677137e-06	-5.229062e-09	-1.200916e+01	-3.427096e+02
7.800000e-07	-1.638966e-06	-5.184734e-09	-1.173584e+01	-3.389776e+02
7.900000e-07	-1.600581e-06	-5.123082e-09	-1.146098e+01	-3.351868e+02
8.000000e-07	-1.561906e-06	-5.064333e-09	-1.118405e+01	-3.313416e+02
8.100000e-07	-1.522858e-06	-5.005676e-09	-1.090445e+01	-3.274406e+02
8.200000e-07	-1.483435e-06	-4.939088e-09	-1.062215e+01	-3.234780e+02
8.300000e-07	-1.443698e-06	-4.881934e-09	-1.033762e+01	-3.194478e+02
8.400000e-07	-1.403773e-06	-4.809130e-09	-1.005173e+01	-3.153468e+02
8.500000e-07	-1.363685e-06	-4.750843e-09	-9.764681e+00	-3.111760e+02
8.600000e-07	-1.323393e-06	-4.691154e-09	-9.476170e+00	-3.069401e+02
8.700000e-07	-1.282892e-06	-4.626919e-09	-9.186164e+00	-3.026445e+02
8.800000e-07	-1.242186e-06	-4.565806e-09	-8.894691e+00	-2.982921e+02
8.900000e-07	-1.201236e-06	-4.488804e-09	-8.601468e+00	-2.938811e+02
9.000000e-07	-1.160031e-06	-4.420741e-09	-8.306417e+00	-2.894047e+02
9.100000e-07	-1.118651e-06	-4.346087e-09	-8.010113e+00	-2.848537e+02
9.200000e-07	-1.077154e-06	-4.274241e-09	-7.712974e+00	-2.802188e+02
9.300000e-07	-1.035559e-06	-4.205647e-09	-7.415133e+00	-2.754945e+02
9.400000e-07	-9.938350e-07	-4.128235e-09	-7.116368e+00	-2.706801e+02
9.500000e-07	-9.518770e-07	-4.058505e-09	-6.815927e+00	-2.657797e+02
9.600000e-07	-9.096115e-07	-3.977813e-09	-6.513285e+00	-2.607993e+02
9.700000e-07	-8.670888e-07	-3.899995e-09	-6.208800e+00	-2.557438e+02
9.800000e-07	-8.243368e-07	-3.819600e-09	-5.902674e+00	-2.506146e+02
9.900000e-07	-7.813897e-07	-3.735601e-09	-5.595151e+00	-2.454086e+02
1.000000e-06	-7.383219e-07	-3.659862e-09	-5.286763e+00	-2.401193e+02
1.010000e-06	-6.951703e-07	-3.574567e-09	-4.977776e+00	-2.347398e+02
1.020000e-06	-6.519378e-07	-3.494546e-09	-4.668209e+00	-2.292657e+02
1.030000e-06	-6.085945e-07	-3.408752e-09	-4.357848e+00	-2.236964e+02
1.040000e-06	-5.651410e-07	-3.318260e-09	-4.046699e+00	-2.180360e+02
1.050000e-06	-5.215909e-07	-3.230455e-09	-3.734858e+00	-2.122902e+02
1.060000e-06	-4.779555e-07	-3.135863e-09	-3.422406e+00	-2.064644e+02
1.070000e-06	-4.342481e-07	-3.047471e-09	-3.109439e+00	-2.005599e+02
1.080000e-06	-3.904619e-07	-2.952277e-09	-2.795908e+00	-1.945735e+02
1.090000e-06	-3.466052e-07	-2.858769e-09	-2.481871e+00	-1.884981e+02
1.100000e-06	-3.026843e-07	-2.767415e-09	-2.167375e+00	-1.823253e+02
1.110000e-06	-2.587257e-07	-2.670283e-09	-1.852609e+00	-1.760488e+02
1.120000e-06	-2.147514e-07	-2.576315e-09	-1.537730e+00	-1.696668e+02
1.130000e-06	-1.707186e-07	-2.473357e-09	-1.222433e+00	-1.631829e+02
1.140000e-06	-1.266465e-07	-2.373720e-09	-9.068537e-01	-1.566050e+02
1.150000e-06	-8.258191e-08	-2.272588e-09	-5.913288e-01	-1.499416e+02
1.160000e-06	-3.853952e-08	-2.166914e-09	-2.759627e-01	-1.431990e+02
1.170000e-06	5.496268e-09	-2.063662e-09	3.935609e-02	-1.363791e+02
1.180000e-06	4.953745e-08	-1.955755e-09	3.547135e-01	-1.294782e+02
1.190000e-06	9.356596e-08	-1.852361e-09	6.699802e-01	-1.224895e+02
1.200000e-06	1.375668e-07	-1.743747e-09	9.850486e-01	-1.154053e+02
1.210000e-06	1.815326e-07	-1.630240e-09	1.299866e+00	-1.082201e+02
1.220000e-06	2.254664e-07	-1.516042e-09	1.614455e+00	-1.009321e+02
1.230000e-06	2.693771e-07	-1.397887e-09	1.928878e+00	-9.354317e+01
1.240000e-06	3.132216e-07	-1.282875e-09	2.242827e+00	-8.605681e+01
1.250000e-06	3.569781e-07	-1.162240e-09	2.556146e+00	-7.847589e+01
1.260000e-06	4.006747e-07	-1.042882e-09	2.869036e+00	-7.080060e+01
1.270000e-06	4.443026e-07	-9.264052e-10	3.181434e+00	-6.302805e+01
1.280000e-06	4.878680e-07	-8.070363e-10	3.493385e+00	-5.515347e+01
1.290000e-06	5.313453e-07	-6.859143e-10	3.804705e+00	-4.717261e+01
1.300000e-06	5.747281e-07	-5.557856e-10	4.115348e+00	-3.908415e+01
1.310000e-06	6.180363e-07	-4.266715e-10	4.425456e+00	-3.089083e+01
1.320000e-06	6.612746e-07	-2.966652e-10	4.735065e+00	-2.259894e+01
1.330000e-06	7.044527e-07	-1.633352e-10	5.044242e+00	-1.421602e+01
1.340000e-06	7.475507e-07	-3.224744e-11	5.352846e+00	-5.748114e+00
1.350000e-06	7.905508e-07	1.003070e-10	5.660749e+00	2.802263e+00
1.360000e-06	8.334105e-07	2.290473e-10	5.967646e+00	1.143625e+01
1.370000e-06	8.760501e-07	3.615119e-10	6.272968e+00	2.015654e+01
1.380000e-06	9.184336e-07	4.968723e-10	6.576455e+00	2.896380e+01
1.390000e-06	9.605828e-07	6.341594e-10	6.878265e+00	3.785304e+01
1.400000e-06	1.002516e-06	7.760713e-10	7.178527e+00	4.681169e+01
1.410000e-06	1.044266e-06	9.148720e-10	7.477478e+00	5.582038e+01
1.420000e-06	1.085855e-06	1.056514e-09	7.775277e+00	6.485657e+01
1.430000e-06	1.127292e-06	1.197248e-09	8.071991e+00	7.389978e+01
1.440000e-06	1.168561e-06	1.336178e-09	8.367497e+00	8.293648e+01
1.450000e-06	1.209638e-06	1.474382e-09	8.661631e+00	9.196255e+01
1.460000e-06	1.250509e-06	1.610456e-09	8.954283e+00	1.009823e+02
1.470000e-06	1.291149e-06	1.751076e-09	9.245286e+00	1.100040e+02
1.480000e-06	1.331562e-06	1.890878e-09	9.534667e+00	1.190336e+02
1.490000e-06	1.371767e-06	2.031330e-09	9.822555e+00	1.280694e+02
1.500000e-06	1.411796e-06	2.172123e-09	1.010918e+01	1.370984e+02
1.510000e-06	1.451587e-06	2.310896e-09	1.039411e+01	1.460982e+02
1.520000e-06	1.491059e-06	2.450344e-09	1.067674e+01	1.550416e+02
1.530000e-06	1.530176e-06	2.585230e-09	1.095684e+01	1.639034e+02
1.540000e-06	1.568927e-06	2.718696e-09	1.123432e+01	1.726662e+02
1.550000e-06	1.607385e-06	2.848701e-09	1.150970e+01	1.813237e+02
1.560000e-06	1.645596e-06	2.976024e-09	1.178331e+01	1.898788e+02
1.570000e-06	1.683532e-06	3.105129e-09	1.205495e+01	1.983386e+02
1.580000e-06	1.721173e-06	3.230743e-09	1.232448e+01	2.067069e+02
1.590000e-06	1.758505e-06	3.355207e-09	1.259180e+01	2.149785e+02
1.600000e-06	1.795556e-06	3.478940e-09	1.285710e+01	2.231368e+02
1.610000e-06	1.832378e-06	3.603120e-09	1.312077e+01	2.311564e+02
1.620000e-06	1.868904e-06	3.726396e-09	1.338231e+01	2.390094e+02
1.630000e-06	1.904977e-06	3.843253e-09	1.364061e+01	2.466741e+02
1.640000e-06	1.940580e-06	3.954567e-09	1.389555e+01	2.541415e+02
1.650000e-06	1.975847e-06	4.061396e-09	1.414808e+01	2.614179e+02
1.660000e-06	2.010804e-06	4.168680e-09	1.439839e+01	2.685226e+02
1.670000e-06	2.045433e-06	4.273455e-09	1.464635e+01	2.754803e+02
1.680000e-06	2.079723e-06	4.374882e-09	1.489189e+01	2.823127e+02
1.690000e-06	2.113684e-06	4.476019e-09	1.513506e+01	2.890302e+02
1.700000e-06	2.147342e-06	4.574450e-09	1.537607e+01	2.956287e+02
1.710000e-06	2.180651e-06	4.673332e-09	1.561458e+01	3.020918e+02
1.720000e-06	2.213542e-06	4.769782e-09	1.585009e+01	3.083965e+02
1.730000e-06	2.246043e-06	4.861497e-09	1.608282e+01	3.145226e+02
1.740000e-06	2.278182e-06	4.951706e-09	1.631295e+01	3.204598e+02
1.750000e-06	2.309882e-06	5.038743e-09	1.653994e+01	3.262112e+02
1.760000e-06	2.341148e-06	5.120905e-09	1.676382e+01	3.317924e+02
1.770000e-06	2.372025e-06	5.198694e-09	1.698492e+01	3.372256e+02
1.780000e-06	2.402522e-06	5.277107e-09	1.720329e+01	3.425320e+02
1.790000e-06	2.432569e-06	5.357479e-09	1.741844e+01	3.477258e+02
1.800000e-06	2.462077e-06	5.435816e-09	1.762973e+01	3.528103e+02
1.810000e-06	2.491073e-06	5.512140e-09	1.783736e+01	3.577793e+02
1.820000e-06	2.519617e-06	5.584284e-09	1.804175e+01	3.626214e+02
1.830000e-06	2.547714e-06	5.655010e-09	1.824294e+01	3.673262e+02
1.840000e-06	2.575387e-06	5.724118e-09	1.844109e+01	3.718888e+02
1.850000e-06	2.602709e-06	5.787693e-09	1.863673e+01	3.763118e+02
1.860000e-06	2.629604e-06	5.850498e-09	1.882932e+01	3.806038e+02
1.870000e-06	2.655912e-06	5.911459e-09	1.901769e+01	3.847751e+02
1.880000e-06	2.681681e-06	5.970011e-09	1.920221e+01	3.888332e+02
1.890000e-06	2.707007e-06	6.026135e-09	1.938356e+01	3.927798e+02
1.900000e-06	2.731896e-06	6.081447e-09	1.956178e+01	3.966108e+02
1.910000e-06	2.756336e-06	6.137510e-09	1.973678e+01	4.003188e+02
1.920000e-06	2.780372e-06	6.191423e-09	1.990889e+01	4.038977e+02
1.930000e-06	2.803934e-06	6.242958e-09	2.007760e+01	4.073465e+02
1.940000e-06	2.826889e-06	6.290821e-09	2.024197e+01	4.106707e+02
1.950000e-06	2.849288e-06	6.335149e-09	2.040237e+01	4.138809e+02
1.960000e-06	2.871192e-06	6.378895e-09	2.055921e+01	4.169890e+02
1.970000e-06	2.892603e-06	6.420898e-09	2.071252e+01	4.200032e+02
1.980000e-06	2.913468e-06	6.460514e-09	2.086193e+01	4.229254e+02
1.990000e-06	2.933656e-06	6.499402e-09	2.100648e+01	4.257498e+02
2.000000e-06	2.953173e-06	6.539071e-09	2.114623e+01	4.284664e+02
2.010000e-06	2.972163e-06	6.577909e-09	2.128221e+01	4.310658e+02
2.020000e-06	2.990656e-06	6.613010e-09	2.141463e+01	4.335439e+02
2.030000e-06	3.008657e-06	6.648832e-09	2.154353e+01	4.359048e+02
2.040000e-06	3.026203e-06	6.682579e-09	2.166916e+01	4.381606e+02
2.050000e-06	3.043213e-06	6.712490e-09	2.179097e+01	4.403277e+02
2.060000e-06	3.059608e-06	6.739784e-09	2.190836e+01	4.424205e+02
2.070000e-06	3.075451e-06	6.764477e-09	2.202181e+01	4.444470e+02
2.080000e-06	3.090805e-06	6.789772e-09	2.213175e+01	4.464057e+02
2.090000e-06	3.105689e-06	6.815641e-09	2.223832e+01	4.482872e+02
2.100000e-06	3.120117e-06	6.842723e-09	2.234163e+01	4.500784e+02
2.110000e-06	3.133960e-06	6.869801e-09	2.244076e+01	4.517692e+02
2.120000e-06	3.147165e-06	6.896742e-09	2.253532e+01	4.533571e+02
2.130000e-06	3.159831e-06	6.921277e-09	2.262601e+01	4.548497e+02
2.140000e-06	3.171974e-06	6.940982e-09	2.271296e+01	4.562623e+02
2.150000e-06	3.183603e-06	6.958458e-09	2.279623e+01	4.576129e+02
2.160000e-06	3.194751e-06	6.973894e-09	2.287605e+01	4.589155e+02
2.170000e-06	3.205316e-06	6.989926e-09	2.295171e+01	4.601754e+02
2.180000e-06	3.215234e-06	7.006148e-09	2.302272e+01	4.613871e+02
2.190000e-06	3.224555e-06	7.022726e-09	2.308947e+01	4.625375e+02
2.200000e-06	3.233308e-06	7.041400e-09	2.315214e+01	4.636112e+02
2.210000e-06	3.241562e-06	7.058253e-09	2.321124e+01	4.645973e+02
2.220000e-06	3.249332e-06	7.072398e-09	2.326688e+01	4.654942e+02
2.230000e-06	3.256538e-06	7.083782e-09	2.331848e+01	4.663099e+02
2.240000e-06	3.263100e-06	7.094161e-09	2.336547e+01	4.670597e+02
2.250000e-06	3.269024e-06	7.103909e-09	2.340789e+01	4.677595e+02
2.260000e-06	3.274381e-06	7.111697e-09	2.344624e+01	4.684198e+02
2.270000e-06	3.279159e-06	7.119832e-09	2.348046e+01	4.690421e+02
2.280000e-06	3.283229e-06	7.129642e-09	2.350960e+01	4.696184e+02
2.290000e-06	3.286620e-06	7.140701e-09	2.353388e+01	4.701358e+02
2.300000e-06	3.289445e-06	7.148411e-09	2.355411e+01	4.705821e+02
2.310000e-06	3.291711e-06	7.152314e-09	2.357034e+01	4.709526e+02
2.320000e-06	3.293474e-06	7.155344e-09	2.358296e+01	4.712524e+02
2.330000e-06	3.294643e-06	7.159885e-09	2.359133e+01	4.714955e+02
2.340000e-06	3.295127e-06	7.162903e-09	2.359480e+01	4.716993e+02
2.350000e-06	3.295042e-06	7.162130e-09	2.359419e+01	4.718778e+02
2.360000e-06	3.294431e-06	7.163394e-09	2.358981e+01	4.720355e+02
2.370000e-06	3.293299e-06	7.167202e-09	2.358171e+01	4.721651e+02
2.380000e-06	3.291701e-06	7.169976e-09	2.357026e+01	4.722495e+02
2.390000e-06	3.289526e-06	7.169147e-09	2.355469e+01	4.722686e+02
2.400000e-06	3.286700e-06	7.168231e-09	2.353446e+01	4.722070e+02
2.410000e-06	3.283340e-06	7.173440e-09	2.351039e+01	4.720605e+02
2.420000e-06	3.279491e-06	7.157572e-09	2.348284e+01	4.718389e+02
2.430000e-06	3.274947e-06	7.143774e-09	2.345030e+01	4.715634e+02
2.440000e-06	3.269359e-06	7.184162e-09	2.341029e+01	4.712604e+02
2.450000e-06	3.262920e-06	7.117259e-09	2.336418e+01	4.709527e+02
2.460000e-06	3.256313e-06	7.130219e-09	2.331687e+01	4.706530e+02
2.470000e-06	3.249564e-06	7.120109e-09	2.326855e+01	4.703604e+02
2.480000e-06	3.242056e-06	7.140669e-09	2.321478e+01	4.700623e+02
2.490000e-06	3.233692e-06	7.095091e-09	2.315489e+01	4.697392e+02
2.500000e-06	3.225088e-06	7.081258e-09	2.309328e+01	4.693712e+02
2.510000e-06	3.216166e-06	7.119973e-09	2.302940e+01	4.689437e+02
2.520000e-06	3.206287e-06	7.093250e-09	2.295865e+01	4.684488e+02
2.530000e-06	3.195718e-06	7.071226e-09	2.288298e+01	4.678847e+02
2.540000e-06	3.184892e-06	7.050731e-09	2.280546e+01	4.672511e+02
2.550000e-06	3.173444e-06	7.133327e-09	2.272348e+01	4.665459e+02
2.560000e-06	3.161178e-06	7.040309e-09	2.263565e+01	4.657630e+02
2.570000e-06	3.148453e-06	7.023137e-09	2.254454e+01	4.648942e+02
2.580000e-06	3.135243e-06	7.053300e-09	2.244994e+01	4.639334e+02
2.590000e-06	3.121376e-06	7.034483e-09	2.235065e+01	4.628817e+02
2.600000e-06	3.107096e-06	6.978736e-09	2.224840e+01	4.617509e+02
2.610000e-06	3.092382e-06	6.966561e-09	2.214304e+01	4.605631e+02
2.620000e-06	3.076935e-06	6.986454e-09	2.203243e+01	4.593457e+02
2.630000e-06	3.060915e-06	6.935704e-09	2.191772e+01	4.581235e+02
2.640000e-06	3.044431e-06	6.940225e-09	2.179968e+01	4.569101e+02
2.650000e-06	3.027324e-06	6.907645e-09	2.167719e+01	4.557030e+02
2.660000e-06	3.009726e-06	6.878644e-09	2.155118e+01	4.544831e+02
2.670000e-06	2.991690e-06	6.896792e-09	2.142204e+01	4.532207e+02
2.680000e-06	2.973009e-06	6.829168e-09	2.128827e+01	4.518849e+02
2.690000e-06	2.953695e-06	6.822172e-09	2.114997e+01	4.504549e+02
2.700000e-06	2.933862e-06	6.811766e-09	2.100795e+01	4.489265e+02
2.710000e-06	2.913495e-06	6.776687e-09	2.086212e+01	4.473137e+02
2.720000e-06	2.892558e-06	6.746707e-09	2.071219e+01	4.456438e+02
2.730000e-06	2.870971e-06	6.728321e-09	2.055762e+01	4.439471e+02
2.740000e-06	2.848781e-06	6.715768e-09	2.039873e+01	4.422463e+02
2.750000e-06	2.826152e-06	6.648383e-09	2.023670e+01	4.405482e+02
2.760000e-06	2.803059e-06	6.669193e-09	2.007134e+01	4.388417e+02
2.770000e-06	2.779448e-06	6.636326e-09	1.990227e+01	4.371027e+02
2.780000e-06	2.755456e-06	6.579942e-09	1.973048e+01	4.353028e+02
2.790000e-06	2.730997e-06	6.591017e-09	1.955534e+01	4.334205e+02
2.800000e-06	2.705902e-06	6.529623e-09	1.937564e+01	4.314487e+02
2.810000e-06	2.680326e-06	6.511710e-09	1.919251e+01	4.293973e+02
2.820000e-06	2.654311e-06	6.486087e-09	1.900623e+01	4.272884e+02
2.830000e-06	2.627805e-06	6.434883e-09	1.881643e+01	4.251482e+02
2.840000e-06	2.600890e-06	6.422457e-09	1.862370e+01	4.229962e+02
2.850000e-06	2.573562e-06	6.388866e-09	1.842802e+01	4.208386e+02
2.860000e-06	2.545654e-06	6.359177e-09	1.822819e+01	4.186664e+02
2.870000e-06	2.517202e-06	6.306436e-09	1.802446e+01	4.164589e+02
2.880000e-06	2.488361e-06	6.288380e-09	1.781794e+01	4.141928e+02
2.890000e-06	2.459130e-06	6.256575e-09	1.760863e+01	4.118506e+02
2.900000e-06	2.429513e-06	6.200665e-09	1.739656e+01	4.094273e+02
2.910000e-06	2.399446e-06	6.177867e-09	1.718126e+01	4.069315e+02
2.920000e-06	2.368870e-06	6.128364e-09	1.696233e+01	4.043810e+02
2.930000e-06	2.337731e-06	6.103249e-09	1.673935e+01	4.017949e+02
2.940000e-06	2.306071e-06	6.055469e-09	1.651265e+01	3.991852e+02
