# Temperatura_=_20.0
# Concentracion g/m^3_=_10000.0
# C_Vs_to_Am_M_A/Vsm_=_65563218390.804596
# pendiente_HvsI_1/m_=_3716.3
# ordenada_HvsI_A/m_=_1297.0
# frecuencia_Hz_=_212937.0474142155

Tiempo_(s)	Campo_(V.s)	Magnetizacion_(V.s)	Campo_(kA/m)	Magnetizacion_(A/m)
0.000000e+00	-3.290442e-06	-7.206756e-09	-2.355758e+01	-4.690265e+02
1.000000e-08	-3.290292e-06	-7.207666e-09	-2.355650e+01	-4.691601e+02
2.000000e-08	-3.289522e-06	-7.208619e-09	-2.355099e+01	-4.692719e+02
3.000000e-08	-3.288137e-06	-7.211684e-09	-2.354108e+01	-4.693662e+02
4.000000e-08	-3.286254e-06	-7.214897e-09	-2.352759e+01	-4.694337e+02
5.000000e-08	-3.283883e-06	-7.214202e-09	-2.351062e+01	-4.694546e+02
6.000000e-08	-3.280992e-06	-7.211471e-09	-2.348992e+01	-4.694068e+02
7.000000e-08	-3.277538e-06	-7.212989e-09	-2.346519e+01	-4.692764e+02
8.000000e-08	-3.273358e-06	-7.203865e-09	-2.343526e+01	-4.690663e+02
9.000000e-08	-3.268317e-06	-7.176580e-09	-2.339917e+01	-4.687993e+02
1.000000e-07	-3.262464e-06	-7.191602e-09	-2.335727e+01	-4.685138e+02
1.100000e-07	-3.255980e-06	-7.233912e-09	-2.331085e+01	-4.682521e+02
1.200000e-07	-3.249114e-06	-7.195940e-09	-2.326169e+01	-4.680471e+02
1.300000e-07	-3.241754e-06	-7.140528e-09	-2.320900e+01	-4.679087e+02
1.400000e-07	-3.233821e-06	-7.193111e-09	-2.315221e+01	-4.678178e+02
1.500000e-07	-3.225551e-06	-7.219365e-09	-2.309299e+01	-4.677283e+02
1.600000e-07	-3.216815e-06	-7.179451e-09	-2.303045e+01	-4.675781e+02
1.700000e-07	-3.207363e-06	-7.135036e-09	-2.296278e+01	-4.673047e+02
1.800000e-07	-3.197309e-06	-7.201370e-09	-2.289080e+01	-4.668612e+02
1.900000e-07	-3.186856e-06	-7.180889e-09	-2.281596e+01	-4.662274e+02
2.000000e-07	-3.175816e-06	-7.108943e-09	-2.273692e+01	-4.654129e+02
2.100000e-07	-3.164042e-06	-7.138075e-09	-2.265263e+01	-4.644514e+02
2.200000e-07	-3.151810e-06	-7.109310e-09	-2.256505e+01	-4.633887e+02
2.300000e-07	-3.139137e-06	-7.080333e-09	-2.247432e+01	-4.622691e+02
2.400000e-07	-3.125766e-06	-7.062231e-09	-2.237859e+01	-4.611248e+02
2.500000e-07	-3.111735e-06	-7.076257e-09	-2.227814e+01	-4.599708e+02
2.600000e-07	-3.097248e-06	-6.999281e-09	-2.217442e+01	-4.588063e+02
2.700000e-07	-3.082205e-06	-6.993661e-09	-2.206672e+01	-4.576218e+02
2.800000e-07	-3.066584e-06	-7.026159e-09	-2.195489e+01	-4.564068e+02
2.900000e-07	-3.050437e-06	-6.946989e-09	-2.183929e+01	-4.551557e+02
3.000000e-07	-3.033633e-06	-6.935115e-09	-2.171898e+01	-4.538699e+02
3.100000e-07	-3.016251e-06	-6.945406e-09	-2.159453e+01	-4.525549e+02
3.200000e-07	-2.998401e-06	-6.909098e-09	-2.146674e+01	-4.512156e+02
3.300000e-07	-2.979966e-06	-6.879696e-09	-2.133476e+01	-4.498508e+02
3.400000e-07	-2.960955e-06	-6.879523e-09	-2.119865e+01	-4.484518e+02
3.500000e-07	-2.941435e-06	-6.842253e-09	-2.105890e+01	-4.470040e+02
3.600000e-07	-2.921230e-06	-6.796701e-09	-2.091424e+01	-4.454928e+02
3.700000e-07	-2.900266e-06	-6.813775e-09	-2.076415e+01	-4.439091e+02
3.800000e-07	-2.878759e-06	-6.772030e-09	-2.061017e+01	-4.422545e+02
3.900000e-07	-2.856811e-06	-6.720476e-09	-2.045304e+01	-4.405408e+02
4.000000e-07	-2.834424e-06	-6.734244e-09	-2.029276e+01	-4.387861e+02
4.100000e-07	-2.811530e-06	-6.693862e-09	-2.012886e+01	-4.370075e+02
4.200000e-07	-2.788020e-06	-6.662375e-09	-1.996054e+01	-4.352142e+02
4.300000e-07	-2.764010e-06	-6.638027e-09	-1.978864e+01	-4.334026e+02
4.400000e-07	-2.739563e-06	-6.601034e-09	-1.961362e+01	-4.315576e+02
4.500000e-07	-2.714655e-06	-6.572156e-09	-1.943529e+01	-4.296578e+02
4.600000e-07	-2.689323e-06	-6.547524e-09	-1.925393e+01	-4.276836e+02
4.700000e-07	-2.663549e-06	-6.517736e-09	-1.906940e+01	-4.256253e+02
4.800000e-07	-2.637223e-06	-6.467308e-09	-1.888092e+01	-4.234870e+02
4.900000e-07	-2.610344e-06	-6.453504e-09	-1.868849e+01	-4.212852e+02
5.000000e-07	-2.583074e-06	-6.418067e-09	-1.849325e+01	-4.190424e+02
5.100000e-07	-2.555439e-06	-6.368075e-09	-1.829540e+01	-4.167788e+02
5.200000e-07	-2.527349e-06	-6.345299e-09	-1.809429e+01	-4.145045e+02
5.300000e-07	-2.498839e-06	-6.306912e-09	-1.789018e+01	-4.122157e+02
5.400000e-07	-2.469935e-06	-6.272718e-09	-1.768324e+01	-4.098973e+02
5.500000e-07	-2.440512e-06	-6.229121e-09	-1.747259e+01	-4.075289e+02
5.600000e-07	-2.410496e-06	-6.189736e-09	-1.725769e+01	-4.050943e+02
5.700000e-07	-2.379984e-06	-6.160936e-09	-1.703925e+01	-4.025877e+02
5.800000e-07	-2.349074e-06	-6.119318e-09	-1.681795e+01	-4.000162e+02
5.900000e-07	-2.317717e-06	-6.084085e-09	-1.659345e+01	-3.973968e+02
6.000000e-07	-2.285832e-06	-6.037934e-09	-1.636518e+01	-3.947482e+02
6.100000e-07	-2.253450e-06	-5.997473e-09	-1.613334e+01	-3.920819e+02
6.200000e-07	-2.220688e-06	-5.956689e-09	-1.589878e+01	-3.893963e+02
6.300000e-07	-2.187550e-06	-5.911418e-09	-1.566153e+01	-3.866752e+02
6.400000e-07	-2.154068e-06	-5.873815e-09	-1.542182e+01	-3.838933e+02
6.500000e-07	-2.120288e-06	-5.822193e-09	-1.517998e+01	-3.810252e+02
6.600000e-07	-2.086184e-06	-5.786185e-09	-1.493581e+01	-3.780558e+02
6.700000e-07	-2.051731e-06	-5.745439e-09	-1.468916e+01	-3.749866e+02
6.800000e-07	-2.016915e-06	-5.688765e-09	-1.443989e+01	-3.718361e+02
6.900000e-07	-1.981792e-06	-5.635202e-09	-1.418843e+01	-3.686342e+02
7.000000e-07	-1.946326e-06	-5.580754e-09	-1.393452e+01	-3.654112e+02
7.100000e-07	-1.910388e-06	-5.536835e-09	-1.367722e+01	-3.621866e+02
7.200000e-07	-1.874010e-06	-5.482814e-09	-1.341678e+01	-3.589624e+02
7.300000e-07	-1.837323e-06	-5.431103e-09	-1.315412e+01	-3.557213e+02
7.400000e-07	-1.800377e-06	-5.387403e-09	-1.288961e+01	-3.524328e+02
7.500000e-07	-1.763142e-06	-5.335805e-09	-1.262303e+01	-3.490639e+02
7.600000e-07	-1.725594e-06	-5.284470e-09	-1.235421e+01	-3.455895e+02
7.700000e-07	-1.687761e-06	-5.221736e-09	-1.208335e+01	-3.420009e+02
7.800000e-07	-1.649655e-06	-5.164053e-09	-1.181053e+01	-3.383065e+02
7.900000e-07	-1.611315e-06	-5.107347e-09	-1.153604e+01	-3.345275e+02
8.000000e-07	-1.572712e-06	-5.046005e-09	-1.125966e+01	-3.306884e+02
8.100000e-07	-1.533764e-06	-4.989416e-09	-1.098083e+01	-3.268075e+02
8.200000e-07	-1.494457e-06	-4.925305e-09	-1.069941e+01	-3.228906e+02
8.300000e-07	-1.454836e-06	-4.868632e-09	-1.041574e+01	-3.189298e+02
8.400000e-07	-1.414996e-06	-4.809342e-09	-1.013051e+01	-3.149090e+02
8.500000e-07	-1.374969e-06	-4.745540e-09	-9.843944e+00	-3.108109e+02
8.600000e-07	-1.334711e-06	-4.682423e-09	-9.555727e+00	-3.066256e+02
8.700000e-07	-1.294228e-06	-4.613529e-09	-9.265888e+00	-3.023548e+02
8.800000e-07	-1.253548e-06	-4.551692e-09	-8.974648e+00	-2.980104e+02
8.900000e-07	-1.212653e-06	-4.483439e-09	-8.681865e+00	-2.936093e+02
9.000000e-07	-1.171545e-06	-4.408967e-09	-8.387555e+00	-2.891652e+02
9.100000e-07	-1.130264e-06	-4.337427e-09	-8.092005e+00	-2.846818e+02
9.200000e-07	-1.088835e-06	-4.268091e-09	-7.795397e+00	-2.801505e+02
9.300000e-07	-1.047254e-06	-4.203553e-09	-7.497708e+00	-2.755523e+02
9.400000e-07	-1.005500e-06	-4.131112e-09	-7.198771e+00	-2.708650e+02
9.500000e-07	-9.635313e-07	-4.057688e-09	-6.898302e+00	-2.660716e+02
9.600000e-07	-9.213217e-07	-3.983891e-09	-6.596106e+00	-2.611662e+02
9.700000e-07	-8.788319e-07	-3.905059e-09	-6.291905e+00	-2.561562e+02
9.800000e-07	-8.361043e-07	-3.824041e-09	-5.986002e+00	-2.510583e+02
9.900000e-07	-7.932125e-07	-3.738563e-09	-5.678922e+00	-2.458913e+02
1.000000e-06	-7.501813e-07	-3.660437e-09	-5.370844e+00	-2.406682e+02
1.010000e-06	-7.070497e-07	-3.582334e-09	-5.062049e+00	-2.353901e+02
1.020000e-06	-6.638510e-07	-3.502504e-09	-4.752772e+00	-2.300459e+02
1.030000e-06	-6.205823e-07	-3.421710e-09	-4.442994e+00	-2.246167e+02
1.040000e-06	-5.771891e-07	-3.334917e-09	-4.132325e+00	-2.190834e+02
1.050000e-06	-5.336584e-07	-3.250273e-09	-3.820671e+00	-2.134347e+02
1.060000e-06	-4.900144e-07	-3.160285e-09	-3.508207e+00	-2.076716e+02
1.070000e-06	-4.462929e-07	-3.067380e-09	-3.195187e+00	-2.018068e+02
1.080000e-06	-4.025171e-07	-2.974210e-09	-2.881779e+00	-1.958592e+02
1.090000e-06	-3.586677e-07	-2.880953e-09	-2.567844e+00	-1.898450e+02
1.100000e-06	-3.147535e-07	-2.792386e-09	-2.253445e+00	-1.837709e+02
1.110000e-06	-2.708101e-07	-2.698132e-09	-1.938836e+00	-1.776297e+02
1.120000e-06	-2.268487e-07	-2.601300e-09	-1.624099e+00	-1.714026e+02
1.130000e-06	-1.828484e-07	-2.503611e-09	-1.309084e+00	-1.650664e+02
1.140000e-06	-1.388073e-07	-2.405454e-09	-9.937766e-01	-1.586025e+02
1.150000e-06	-9.476781e-08	-2.307573e-09	-6.784802e-01	-1.520055e+02
1.160000e-06	-5.070937e-08	-2.201433e-09	-3.630485e-01	-1.452860e+02
1.170000e-06	-6.641734e-09	-2.095003e-09	-4.755080e-02	-1.384677e+02
1.180000e-06	3.739857e-08	-1.991473e-09	2.677512e-01	-1.315796e+02
1.190000e-06	8.142519e-08	-1.887727e-09	5.829551e-01	-1.246447e+02
1.200000e-06	1.254458e-07	-1.780336e-09	8.981160e-01	-1.176715e+02
1.210000e-06	1.694388e-07	-1.668076e-09	1.213080e+00	-1.106501e+02
1.220000e-06	2.133863e-07	-1.558980e-09	1.527717e+00	-1.035549e+02
1.230000e-06	2.572937e-07	-1.448732e-09	1.842067e+00	-9.635337e+01
1.240000e-06	3.011478e-07	-1.334131e-09	2.156036e+00	-8.901680e+01
1.250000e-06	3.449361e-07	-1.214440e-09	2.469534e+00	-8.153046e+01
1.260000e-06	3.886867e-07	-1.093894e-09	2.782761e+00	-7.389823e+01
1.270000e-06	4.323883e-07	-9.779237e-10	3.095639e+00	-6.614076e+01
1.280000e-06	4.759958e-07	-8.600732e-10	3.407842e+00	-5.828798e+01
1.290000e-06	5.194820e-07	-7.372669e-10	3.719177e+00	-5.036851e+01
1.300000e-06	5.628562e-07	-6.104950e-10	4.029710e+00	-4.240023e+01
1.310000e-06	6.061421e-07	-4.867677e-10	4.339611e+00	-3.438503e+01
1.320000e-06	6.493443e-07	-3.661890e-10	4.648913e+00	-2.630964e+01
1.330000e-06	6.924962e-07	-2.403284e-10	4.957854e+00	-1.815185e+01
1.340000e-06	7.355971e-07	-1.126151e-10	5.266430e+00	-9.889620e+00
1.350000e-06	7.786148e-07	1.666824e-11	5.574411e+00	-1.509660e+00
1.360000e-06	8.215441e-07	1.470034e-10	5.881759e+00	6.987555e+00
1.370000e-06	8.643351e-07	2.789852e-10	6.188117e+00	1.558786e+01
1.380000e-06	9.069211e-07	4.155360e-10	6.493007e+00	2.426812e+01
1.390000e-06	9.492333e-07	5.508396e-10	6.795936e+00	3.300355e+01
1.400000e-06	9.912465e-07	6.857460e-10	7.096726e+00	4.177469e+01
1.410000e-06	1.033013e-06	8.193945e-10	7.395751e+00	5.057162e+01
1.420000e-06	1.074598e-06	9.549077e-10	7.693469e+00	5.939416e+01
1.430000e-06	1.116057e-06	1.093300e-09	7.990292e+00	6.824831e+01
1.440000e-06	1.157376e-06	1.229707e-09	8.286116e+00	7.714083e+01
1.450000e-06	1.198520e-06	1.366144e-09	8.580681e+00	8.607397e+01
1.460000e-06	1.239460e-06	1.504683e-09	8.873785e+00	9.504243e+01
1.470000e-06	1.280179e-06	1.644980e-09	9.165307e+00	1.040332e+02
1.480000e-06	1.320686e-06	1.783413e-09	9.455316e+00	1.130282e+02
1.490000e-06	1.360962e-06	1.918803e-09	9.743665e+00	1.220081e+02
1.500000e-06	1.401004e-06	2.056307e-09	1.003034e+01	1.309554e+02
1.510000e-06	1.440840e-06	2.195288e-09	1.031554e+01	1.398571e+02
1.520000e-06	1.480438e-06	2.332484e-09	1.059904e+01	1.487036e+02
1.530000e-06	1.519698e-06	2.465560e-09	1.088012e+01	1.574880e+02
1.540000e-06	1.558545e-06	2.597883e-09	1.115824e+01	1.662033e+02
1.550000e-06	1.597040e-06	2.731905e-09	1.143384e+01	1.748416e+02
1.560000e-06	1.635298e-06	2.860854e-09	1.170775e+01	1.833931e+02
1.570000e-06	1.673309e-06	2.986654e-09	1.197988e+01	1.918478e+02
1.580000e-06	1.711018e-06	3.111847e-09	1.224985e+01	2.001963e+02
1.590000e-06	1.748433e-06	3.238206e-09	1.251773e+01	2.084305e+02
1.600000e-06	1.785582e-06	3.365301e-09	1.278369e+01	2.165446e+02
1.610000e-06	1.822471e-06	3.488257e-09	1.304779e+01	2.245331e+02
1.620000e-06	1.859102e-06	3.609683e-09	1.331005e+01	2.323901e+02
1.630000e-06	1.895396e-06	3.729390e-09	1.356989e+01	2.401080e+02
1.640000e-06	1.931179e-06	3.843881e-09	1.382607e+01	2.476782e+02
1.650000e-06	1.966489e-06	3.953384e-09	1.407887e+01	2.550918e+02
1.660000e-06	2.001500e-06	4.060145e-09	1.432953e+01	2.623423e+02
1.670000e-06	2.036238e-06	4.166302e-09	1.457823e+01	2.694274e+02
1.680000e-06	2.070638e-06	4.270898e-09	1.482452e+01	2.763497e+02
1.690000e-06	2.104661e-06	4.372855e-09	1.506810e+01	2.831162e+02
1.700000e-06	2.138361e-06	4.473318e-09	1.530937e+01	2.897351e+02
1.710000e-06	2.171788e-06	4.572590e-09	1.554869e+01	2.962132e+02
1.720000e-06	2.204868e-06	4.669716e-09	1.578552e+01	3.025524e+02
1.730000e-06	2.237488e-06	4.762349e-09	1.601906e+01	3.087495e+02
1.740000e-06	2.269701e-06	4.852837e-09	1.624969e+01	3.147965e+02
1.750000e-06	2.301551e-06	4.941706e-09	1.647771e+01	3.206846e+02
1.760000e-06	2.332973e-06	5.026649e-09	1.670267e+01	3.264073e+02
1.770000e-06	2.363968e-06	5.108383e-09	1.692458e+01	3.319637e+02
1.780000e-06	2.394572e-06	5.187811e-09	1.714369e+01	3.373602e+02
1.790000e-06	2.424782e-06	5.267175e-09	1.735997e+01	3.426084e+02
1.800000e-06	2.454496e-06	5.346722e-09	1.757271e+01	3.477226e+02
1.810000e-06	2.483631e-06	5.424732e-09	1.778130e+01	3.527154e+02
1.820000e-06	2.512277e-06	5.497696e-09	1.798638e+01	3.575945e+02
1.830000e-06	2.540509e-06	5.567568e-09	1.818851e+01	3.623608e+02
1.840000e-06	2.568312e-06	5.637318e-09	1.838756e+01	3.670101e+02
1.850000e-06	2.595694e-06	5.704538e-09	1.858360e+01	3.715351e+02
1.860000e-06	2.622689e-06	5.767743e-09	1.877687e+01	3.759293e+02
1.870000e-06	2.649186e-06	5.828308e-09	1.896657e+01	3.801895e+02
1.880000e-06	2.675095e-06	5.889832e-09	1.915206e+01	3.843170e+02
1.890000e-06	2.700533e-06	5.952415e-09	1.933418e+01	3.883166e+02
1.900000e-06	2.725550e-06	6.012157e-09	1.951329e+01	3.921950e+02
1.910000e-06	2.750123e-06	6.067725e-09	1.968922e+01	3.959574e+02
1.920000e-06	2.774270e-06	6.120729e-09	1.986209e+01	3.996069e+02
1.930000e-06	2.797999e-06	6.171018e-09	2.003198e+01	4.031433e+02
1.940000e-06	2.821160e-06	6.217907e-09	2.019780e+01	4.065648e+02
1.950000e-06	2.843699e-06	6.262075e-09	2.035916e+01	4.098696e+02
1.960000e-06	2.865749e-06	6.306586e-09	2.051703e+01	4.130575e+02
1.970000e-06	2.887318e-06	6.351984e-09	2.067145e+01	4.161309e+02
1.980000e-06	2.908354e-06	6.396802e-09	2.082206e+01	4.190937e+02
1.990000e-06	2.928787e-06	6.439694e-09	2.096834e+01	4.219502e+02
2.000000e-06	2.948528e-06	6.478565e-09	2.110968e+01	4.247037e+02
2.010000e-06	2.967665e-06	6.514332e-09	2.124669e+01	4.273555e+02
2.020000e-06	2.986291e-06	6.546686e-09	2.138004e+01	4.299057e+02
2.030000e-06	3.004426e-06	6.577457e-09	2.150988e+01	4.323545e+02
2.040000e-06	3.022129e-06	6.609317e-09	2.163662e+01	4.347041e+02
2.050000e-06	3.039333e-06	6.641380e-09	2.175979e+01	4.369591e+02
2.060000e-06	3.055927e-06	6.673693e-09	2.187859e+01	4.391267e+02
2.070000e-06	3.071947e-06	6.705076e-09	2.199329e+01	4.412142e+02
2.080000e-06	3.087460e-06	6.733720e-09	2.210434e+01	4.432266e+02
2.090000e-06	3.102465e-06	6.760654e-09	2.221177e+01	4.451643e+02
2.100000e-06	3.116993e-06	6.785769e-09	2.231579e+01	4.470224e+02
2.110000e-06	3.131003e-06	6.808153e-09	2.241609e+01	4.487927e+02
2.120000e-06	3.144384e-06	6.829266e-09	2.251189e+01	4.504664e+02
2.130000e-06	3.157193e-06	6.851048e-09	2.260359e+01	4.520387e+02
2.140000e-06	3.169487e-06	6.873541e-09	2.269161e+01	4.535117e+02
2.150000e-06	3.181247e-06	6.895503e-09	2.277581e+01	4.548944e+02
2.160000e-06	3.192530e-06	6.915101e-09	2.285659e+01	4.562011e+02
2.170000e-06	3.203258e-06	6.933048e-09	2.293339e+01	4.574466e+02
2.180000e-06	3.213300e-06	6.950474e-09	2.300528e+01	4.586414e+02
2.190000e-06	3.222730e-06	6.966393e-09	2.307280e+01	4.597881e+02
2.200000e-06	3.231645e-06	6.981331e-09	2.313662e+01	4.608810e+02
2.210000e-06	3.240038e-06	6.994839e-09	2.319672e+01	4.619090e+02
2.220000e-06	3.247939e-06	7.007384e-09	2.325328e+01	4.628603e+02
2.230000e-06	3.255307e-06	7.019836e-09	2.330603e+01	4.637285e+02
2.240000e-06	3.262061e-06	7.031962e-09	2.335438e+01	4.645153e+02
2.250000e-06	3.268204e-06	7.043075e-09	2.339837e+01	4.652311e+02
2.260000e-06	3.273728e-06	7.052165e-09	2.343791e+01	4.658913e+02
2.270000e-06	3.278636e-06	7.060609e-09	2.347305e+01	4.665101e+02
2.280000e-06	3.282864e-06	7.070342e-09	2.350332e+01	4.670951e+02
2.290000e-06	3.286391e-06	7.080699e-09	2.352857e+01	4.676443e+02
2.300000e-06	3.289339e-06	7.090005e-09	2.354968e+01	4.681467e+02
2.310000e-06	3.291740e-06	7.096819e-09	2.356687e+01	4.685872e+02
2.320000e-06	3.293600e-06	7.101962e-09	2.358018e+01	4.689534e+02
2.330000e-06	3.294923e-06	7.106186e-09	2.358966e+01	4.692416e+02
2.340000e-06	3.295592e-06	7.108064e-09	2.359445e+01	4.694594e+02
2.350000e-06	3.295641e-06	7.109312e-09	2.359480e+01	4.696235e+02
2.360000e-06	3.295178e-06	7.111000e-09	2.359148e+01	4.697533e+02
2.370000e-06	3.294177e-06	7.113924e-09	2.358431e+01	4.698627e+02
2.380000e-06	3.292682e-06	7.116240e-09	2.357361e+01	4.699541e+02
2.390000e-06	3.290646e-06	7.117693e-09	2.355904e+01	4.700163e+02
2.400000e-06	3.287972e-06	7.117832e-09	2.353989e+01	4.700284e+02
2.410000e-06	3.284742e-06	7.111808e-09	2.351676e+01	4.699690e+02
2.420000e-06	3.281026e-06	7.110513e-09	2.349016e+01	4.698261e+02
2.430000e-06	3.276707e-06	7.139125e-09	2.345924e+01	4.696058e+02
2.440000e-06	3.271427e-06	7.119924e-09	2.342144e+01	4.693335e+02
2.450000e-06	3.265146e-06	7.061375e-09	2.337647e+01	4.690491e+02
2.460000e-06	3.258523e-06	7.091282e-09	2.332905e+01	4.687946e+02
2.470000e-06	3.251847e-06	7.136349e-09	2.328126e+01	4.685998e+02
2.480000e-06	3.244587e-06	7.097384e-09	2.322928e+01	4.684706e+02
2.490000e-06	3.236422e-06	7.043181e-09	2.317083e+01	4.683836e+02
2.500000e-06	3.227857e-06	7.098048e-09	2.310951e+01	4.682894e+02
2.510000e-06	3.219114e-06	7.152105e-09	2.304691e+01	4.681247e+02
2.520000e-06	3.209536e-06	7.059592e-09	2.297834e+01	4.678284e+02
2.530000e-06	3.199051e-06	7.030006e-09	2.290327e+01	4.673571e+02
2.540000e-06	3.188272e-06	7.092129e-09	2.282610e+01	4.666951e+02
2.550000e-06	3.177072e-06	7.086798e-09	2.274591e+01	4.658562e+02
2.560000e-06	3.164983e-06	7.024404e-09	2.265937e+01	4.648767e+02
2.570000e-06	3.152291e-06	7.034664e-09	2.256850e+01	4.638030e+02
2.580000e-06	3.139246e-06	7.041265e-09	2.247510e+01	4.626783e+02
2.590000e-06	3.125592e-06	6.988139e-09	2.237735e+01	4.615322e+02
2.600000e-06	3.111402e-06	7.011568e-09	2.227576e+01	4.603772e+02
2.610000e-06	3.096834e-06	6.983890e-09	2.217146e+01	4.592106e+02
2.620000e-06	3.081595e-06	6.926019e-09	2.206236e+01	4.580224e+02
2.630000e-06	3.065706e-06	6.942730e-09	2.194860e+01	4.568023e+02
2.640000e-06	3.049352e-06	6.944765e-09	2.183152e+01	4.555459e+02
2.650000e-06	3.032386e-06	6.889623e-09	2.171005e+01	4.542556e+02
2.660000e-06	3.014875e-06	6.877148e-09	2.158468e+01	4.529370e+02
2.670000e-06	2.996991e-06	6.890071e-09	2.145665e+01	4.515943e+02
2.680000e-06	2.978550e-06	6.814332e-09	2.132462e+01	4.502253e+02
2.690000e-06	2.959398e-06	6.816429e-09	2.118750e+01	4.488202e+02
2.700000e-06	2.939691e-06	6.829185e-09	2.104641e+01	4.473640e+02
2.710000e-06	2.919479e-06	6.745256e-09	2.090170e+01	4.458424e+02
2.720000e-06	2.898738e-06	6.746095e-09	2.075321e+01	4.442479e+02
2.730000e-06	2.877408e-06	6.750856e-09	2.060050e+01	4.425837e+02
2.740000e-06	2.855443e-06	6.693191e-09	2.044325e+01	4.408628e+02
2.750000e-06	2.832968e-06	6.661687e-09	2.028234e+01	4.391037e+02
2.760000e-06	2.810026e-06	6.653624e-09	2.011809e+01	4.373229e+02
2.770000e-06	2.786551e-06	6.619773e-09	1.995002e+01	4.355276e+02
2.780000e-06	2.762649e-06	6.586875e-09	1.977889e+01	4.337124e+02
2.790000e-06	2.738314e-06	6.569892e-09	1.960468e+01	4.318608e+02
2.800000e-06	2.713359e-06	6.521198e-09	1.942601e+01	4.299511e+02
2.810000e-06	2.687877e-06	6.510345e-09	1.924357e+01	4.279648e+02
2.820000e-06	2.661984e-06	6.489912e-09	1.905820e+01	4.258941e+02
2.830000e-06	2.635587e-06	6.422441e-09	1.886921e+01	4.237452e+02
2.840000e-06	2.608740e-06	6.411432e-09	1.867700e+01	4.215359e+02
2.850000e-06	2.581503e-06	6.386493e-09	1.848200e+01	4.192891e+02
2.860000e-06	2.553735e-06	6.344986e-09	1.828320e+01	4.170238e+02
2.870000e-06	2.525426e-06	6.307356e-09	1.808052e+01	4.147481e+02
2.880000e-06	2.496687e-06	6.262785e-09	1.787477e+01	4.124563e+02
2.890000e-06	2.467553e-06	6.241074e-09	1.766619e+01	4.101318e+02
2.900000e-06	2.438031e-06	6.200952e-09	1.745483e+01	4.077546e+02
2.910000e-06	2.408065e-06	6.161936e-09	1.724029e+01	4.053094e+02
2.920000e-06	2.377594e-06	6.126014e-09	1.702214e+01	4.027925e+02
2.930000e-06	2.346582e-06	6.088287e-09	1.680011e+01	4.002128e+02
2.940000e-06	2.315058e-06	6.053800e-09	1.657441e+01	3.975882e+02
