# Temperatura_=_20.0
# Concentracion g/m^3_=_10000.0
# C_Vs_to_Am_M_A/Vsm_=_65563218390.804596
# pendiente_HvsI_1/m_=_3716.3
# ordenada_HvsI_A/m_=_1297.0
# frecuencia_Hz_=_212936.83359745424

Tiempo_(s)	Campo_(V.s)	Magnetizacion_(V.s)	Campo_(kA/m)	Magnetizacion_(A/m)
0.000000e+00	-3.282743e-06	-7.203074e-09	-2.355918e+01	-4.689955e+02
1.000000e-08	-3.282594e-06	-7.206050e-09	-2.355811e+01	-4.691769e+02
2.000000e-08	-3.281836e-06	-7.208401e-09	-2.355267e+01	-4.693725e+02
3.000000e-08	-3.280454e-06	-7.209026e-09	-2.354275e+01	-4.695462e+02
4.000000e-08	-3.278561e-06	-7.209461e-09	-2.352917e+01	-4.696496e+02
5.000000e-08	-3.276162e-06	-7.208731e-09	-2.351195e+01	-4.696410e+02
6.000000e-08	-3.273205e-06	-7.206514e-09	-2.349073e+01	-4.695025e+02
7.000000e-08	-3.269689e-06	-7.205083e-09	-2.346550e+01	-4.692489e+02
8.000000e-08	-3.265460e-06	-7.203922e-09	-2.343515e+01	-4.689233e+02
9.000000e-08	-3.260388e-06	-7.185241e-09	-2.339875e+01	-4.685829e+02
1.000000e-07	-3.254508e-06	-7.172508e-09	-2.335654e+01	-4.682780e+02
1.100000e-07	-3.248031e-06	-7.212961e-09	-2.331006e+01	-4.680350e+02
1.200000e-07	-3.241172e-06	-7.189544e-09	-2.326084e+01	-4.678467e+02
1.300000e-07	-3.233793e-06	-7.153885e-09	-2.320788e+01	-4.676759e+02
1.400000e-07	-3.225862e-06	-7.160640e-09	-2.315096e+01	-4.674688e+02
1.500000e-07	-3.217616e-06	-7.193191e-09	-2.309179e+01	-4.671742e+02
1.600000e-07	-3.208910e-06	-7.173235e-09	-2.302931e+01	-4.667595e+02
1.700000e-07	-3.199449e-06	-7.109881e-09	-2.296141e+01	-4.662190e+02
1.800000e-07	-3.189420e-06	-7.158347e-09	-2.288943e+01	-4.655714e+02
1.900000e-07	-3.179029e-06	-7.147140e-09	-2.281486e+01	-4.648480e+02
2.000000e-07	-3.168005e-06	-7.110960e-09	-2.273575e+01	-4.640771e+02
2.100000e-07	-3.156246e-06	-7.091591e-09	-2.265135e+01	-4.632722e+02
2.200000e-07	-3.144035e-06	-7.101879e-09	-2.256372e+01	-4.624277e+02
2.300000e-07	-3.131366e-06	-7.081898e-09	-2.247280e+01	-4.615240e+02
2.400000e-07	-3.117992e-06	-7.030659e-09	-2.237681e+01	-4.605393e+02
2.500000e-07	-3.103963e-06	-7.059200e-09	-2.227614e+01	-4.594627e+02
2.600000e-07	-3.089475e-06	-7.019061e-09	-2.217216e+01	-4.583025e+02
2.700000e-07	-3.074446e-06	-6.998146e-09	-2.206430e+01	-4.570853e+02
2.800000e-07	-3.058895e-06	-6.993084e-09	-2.195270e+01	-4.558468e+02
2.900000e-07	-3.042830e-06	-6.960558e-09	-2.183740e+01	-4.546175e+02
3.000000e-07	-3.026054e-06	-6.949530e-09	-2.171700e+01	-4.534090e+02
3.100000e-07	-3.008678e-06	-6.927189e-09	-2.159231e+01	-4.522083e+02
3.200000e-07	-2.990870e-06	-6.910634e-09	-2.146450e+01	-4.509809e+02
3.300000e-07	-2.972468e-06	-6.883852e-09	-2.133244e+01	-4.496836e+02
3.400000e-07	-2.953476e-06	-6.876976e-09	-2.119614e+01	-4.482805e+02
3.500000e-07	-2.934019e-06	-6.846549e-09	-2.105650e+01	-4.467576e+02
3.600000e-07	-2.913883e-06	-6.803265e-09	-2.091199e+01	-4.451278e+02
3.700000e-07	-2.892966e-06	-6.808297e-09	-2.076187e+01	-4.434268e+02
3.800000e-07	-2.871488e-06	-6.765317e-09	-2.060774e+01	-4.416982e+02
3.900000e-07	-2.849558e-06	-6.734667e-09	-2.045035e+01	-4.399774e+02
4.000000e-07	-2.827211e-06	-6.726832e-09	-2.028998e+01	-4.382770e+02
4.100000e-07	-2.804359e-06	-6.682573e-09	-2.012598e+01	-4.365830e+02
4.200000e-07	-2.780880e-06	-6.659906e-09	-1.995747e+01	-4.348605e+02
4.300000e-07	-2.756911e-06	-6.635594e-09	-1.978545e+01	-4.330684e+02
4.400000e-07	-2.732523e-06	-6.607083e-09	-1.961043e+01	-4.311766e+02
4.500000e-07	-2.707679e-06	-6.566013e-09	-1.943213e+01	-4.291785e+02
4.600000e-07	-2.682387e-06	-6.544002e-09	-1.925062e+01	-4.270936e+02
4.700000e-07	-2.656684e-06	-6.513392e-09	-1.906616e+01	-4.249599e+02
4.800000e-07	-2.630440e-06	-6.461688e-09	-1.887781e+01	-4.228182e+02
4.900000e-07	-2.603611e-06	-6.446446e-09	-1.868527e+01	-4.206958e+02
5.000000e-07	-2.576369e-06	-6.404639e-09	-1.848976e+01	-4.185945e+02
5.100000e-07	-2.548736e-06	-6.367883e-09	-1.829145e+01	-4.164904e+02
5.200000e-07	-2.520671e-06	-6.347485e-09	-1.809004e+01	-4.143427e+02
5.300000e-07	-2.492165e-06	-6.308997e-09	-1.788546e+01	-4.121101e+02
5.400000e-07	-2.463252e-06	-6.271748e-09	-1.767796e+01	-4.097675e+02
5.500000e-07	-2.433856e-06	-6.224381e-09	-1.746699e+01	-4.073157e+02
5.600000e-07	-2.403876e-06	-6.192765e-09	-1.725183e+01	-4.047809e+02
5.700000e-07	-2.373436e-06	-6.154583e-09	-1.703338e+01	-4.022035e+02
5.800000e-07	-2.342602e-06	-6.107378e-09	-1.681210e+01	-3.996220e+02
5.900000e-07	-2.311301e-06	-6.073028e-09	-1.658746e+01	-3.970564e+02
6.000000e-07	-2.279471e-06	-6.034381e-09	-1.635903e+01	-3.944997e+02
6.100000e-07	-2.247152e-06	-6.002880e-09	-1.612708e+01	-3.919204e+02
6.200000e-07	-2.214442e-06	-5.953469e-09	-1.589233e+01	-3.892744e+02
6.300000e-07	-2.181343e-06	-5.908857e-09	-1.565479e+01	-3.865220e+02
6.400000e-07	-2.147917e-06	-5.872977e-09	-1.541491e+01	-3.836437e+02
6.500000e-07	-2.114243e-06	-5.821654e-09	-1.517323e+01	-3.806475e+02
6.600000e-07	-2.080233e-06	-5.778663e-09	-1.492916e+01	-3.775658e+02
6.700000e-07	-2.045868e-06	-5.725368e-09	-1.468253e+01	-3.744429e+02
6.800000e-07	-2.011151e-06	-5.676061e-09	-1.443338e+01	-3.713175e+02
6.900000e-07	-1.976093e-06	-5.629502e-09	-1.418178e+01	-3.682085e+02
7.000000e-07	-1.940754e-06	-5.579488e-09	-1.392816e+01	-3.651083e+02
7.100000e-07	-1.904979e-06	-5.535627e-09	-1.367142e+01	-3.619867e+02
7.200000e-07	-1.868676e-06	-5.481261e-09	-1.341088e+01	-3.588032e+02
7.300000e-07	-1.832020e-06	-5.434270e-09	-1.314782e+01	-3.555228e+02
7.400000e-07	-1.795132e-06	-5.383386e-09	-1.288308e+01	-3.521290e+02
7.500000e-07	-1.757949e-06	-5.326340e-09	-1.261623e+01	-3.486278e+02
7.600000e-07	-1.720452e-06	-5.271536e-09	-1.234713e+01	-3.450436e+02
7.700000e-07	-1.682663e-06	-5.210958e-09	-1.207593e+01	-3.414069e+02
7.800000e-07	-1.644600e-06	-5.159916e-09	-1.180276e+01	-3.377401e+02
7.900000e-07	-1.606333e-06	-5.102520e-09	-1.152813e+01	-3.340476e+02
8.000000e-07	-1.567869e-06	-5.044169e-09	-1.125208e+01	-3.303140e+02
8.100000e-07	-1.529059e-06	-4.989433e-09	-1.097356e+01	-3.265105e+02
8.200000e-07	-1.489796e-06	-4.927939e-09	-1.069178e+01	-3.226077e+02
8.300000e-07	-1.450182e-06	-4.868736e-09	-1.040748e+01	-3.185886e+02
8.400000e-07	-1.410363e-06	-4.800414e-09	-1.012172e+01	-3.144560e+02
8.500000e-07	-1.370399e-06	-4.735633e-09	-9.834907e+00	-3.102325e+02
8.600000e-07	-1.330257e-06	-4.672463e-09	-9.546821e+00	-3.059513e+02
8.700000e-07	-1.289900e-06	-4.605428e-09	-9.257191e+00	-3.016433e+02
8.800000e-07	-1.249317e-06	-4.542811e-09	-8.965942e+00	-2.973241e+02
8.900000e-07	-1.208516e-06	-4.473925e-09	-8.673129e+00	-2.929882e+02
9.000000e-07	-1.167512e-06	-4.407233e-09	-8.378853e+00	-2.886110e+02
9.100000e-07	-1.126302e-06	-4.337935e-09	-8.083105e+00	-2.841581e+02
9.200000e-07	-1.084905e-06	-4.266656e-09	-7.786008e+00	-2.795995e+02
9.300000e-07	-1.043374e-06	-4.196126e-09	-7.487957e+00	-2.749201e+02
9.400000e-07	-1.001739e-06	-4.120204e-09	-7.189154e+00	-2.701253e+02
9.500000e-07	-9.599194e-07	-4.048282e-09	-6.889030e+00	-2.652371e+02
9.600000e-07	-9.178357e-07	-3.971460e-09	-6.587009e+00	-2.602834e+02
9.700000e-07	-8.755131e-07	-3.892858e-09	-6.283274e+00	-2.552855e+02
9.800000e-07	-8.329561e-07	-3.813504e-09	-5.977855e+00	-2.502484e+02
9.900000e-07	-7.901499e-07	-3.732978e-09	-5.670650e+00	-2.451573e+02
1.000000e-06	-7.471686e-07	-3.658724e-09	-5.362187e+00	-2.399837e+02
1.010000e-06	-7.041027e-07	-3.577568e-09	-5.053116e+00	-2.346962e+02
1.020000e-06	-6.609755e-07	-3.494346e-09	-4.743607e+00	-2.292736e+02
1.030000e-06	-6.177694e-07	-3.408249e-09	-4.433530e+00	-2.237133e+02
1.040000e-06	-5.744693e-07	-3.318933e-09	-4.122780e+00	-2.180324e+02
1.050000e-06	-5.310736e-07	-3.232043e-09	-3.811343e+00	-2.122612e+02
1.060000e-06	-4.875826e-07	-3.140943e-09	-3.499222e+00	-2.064312e+02
1.070000e-06	-4.439861e-07	-3.052188e-09	-3.186344e+00	-2.005625e+02
1.080000e-06	-4.003071e-07	-2.960826e-09	-2.872874e+00	-1.946559e+02
1.090000e-06	-3.565624e-07	-2.869286e-09	-2.558933e+00	-1.886934e+02
1.100000e-06	-3.127540e-07	-2.778826e-09	-2.244534e+00	-1.826448e+02
1.110000e-06	-2.689014e-07	-2.680784e-09	-1.929818e+00	-1.764805e+02
1.120000e-06	-2.250063e-07	-2.582246e-09	-1.614797e+00	-1.701825e+02
1.130000e-06	-1.810860e-07	-2.482691e-09	-1.299596e+00	-1.637514e+02
1.140000e-06	-1.371408e-07	-2.384462e-09	-9.842148e-01	-1.572058e+02
1.150000e-06	-9.316256e-08	-2.284432e-09	-6.685974e-01	-1.505744e+02
1.160000e-06	-4.917922e-08	-2.179047e-09	-3.529433e-01	-1.438847e+02
1.170000e-06	-5.212052e-09	-2.075459e-09	-3.740521e-02	-1.371520e+02
1.180000e-06	3.874377e-08	-1.971277e-09	2.780515e-01	-1.303747e+02
1.190000e-06	8.270529e-08	-1.866791e-09	5.935491e-01	-1.235347e+02
1.200000e-06	1.266406e-07	-1.758188e-09	9.088586e-01	-1.166052e+02
1.210000e-06	1.705414e-07	-1.647349e-09	1.223920e+00	-1.095608e+02
1.220000e-06	2.144256e-07	-1.537796e-09	1.538863e+00	-1.023857e+02
1.230000e-06	2.582703e-07	-1.423061e-09	1.853522e+00	-9.507876e+01
1.240000e-06	3.020428e-07	-1.306621e-09	2.167663e+00	-8.765085e+01
1.250000e-06	3.457624e-07	-1.188927e-09	2.481425e+00	-8.011911e+01
1.260000e-06	3.894261e-07	-1.072793e-09	2.794784e+00	-7.249889e+01
1.270000e-06	4.329780e-07	-9.563622e-10	3.107342e+00	-6.479795e+01
1.280000e-06	4.764215e-07	-8.352798e-10	3.419122e+00	-5.701479e+01
1.290000e-06	5.197907e-07	-7.117260e-10	3.730369e+00	-4.914164e+01
1.300000e-06	5.631003e-07	-5.854835e-10	4.041188e+00	-4.117004e+01
1.310000e-06	6.063520e-07	-4.611925e-10	4.351591e+00	-3.309639e+01
1.320000e-06	6.495369e-07	-3.365006e-10	4.661515e+00	-2.492446e+01
1.330000e-06	6.926622e-07	-2.087467e-10	4.971012e+00	-1.666388e+01
1.340000e-06	7.357106e-07	-8.267186e-11	5.279956e+00	-8.325297e+00
1.350000e-06	7.786590e-07	4.527154e-11	5.588183e+00	8.522547e-02
1.360000e-06	8.214769e-07	1.754386e-10	5.895473e+00	8.569701e+00
1.370000e-06	8.640935e-07	3.090568e-10	6.201319e+00	1.713745e+01
1.380000e-06	9.064690e-07	4.444945e-10	6.505434e+00	2.580003e+01
1.390000e-06	9.485789e-07	5.783289e-10	6.807643e+00	3.456370e+01
1.400000e-06	9.904579e-07	7.150059e-10	7.108195e+00	4.342281e+01
1.410000e-06	1.032164e-06	8.519051e-10	7.407505e+00	5.235720e+01
1.420000e-06	1.073725e-06	9.898851e-10	7.705776e+00	6.133511e+01
1.430000e-06	1.115140e-06	1.127251e-09	8.002996e+00	7.032116e+01
1.440000e-06	1.156367e-06	1.263631e-09	8.298871e+00	7.928630e+01
1.450000e-06	1.197399e-06	1.401659e-09	8.593341e+00	8.821585e+01
1.460000e-06	1.238236e-06	1.539484e-09	8.886419e+00	9.711245e+01
1.470000e-06	1.278836e-06	1.677913e-09	9.177791e+00	1.059923e+02
1.480000e-06	1.319171e-06	1.814805e-09	9.467265e+00	1.148763e+02
1.490000e-06	1.359297e-06	1.951023e-09	9.755236e+00	1.237791e+02
1.500000e-06	1.399276e-06	2.087894e-09	1.004215e+01	1.327007e+02
1.510000e-06	1.439062e-06	2.224341e-09	1.032768e+01	1.416237e+02
1.520000e-06	1.478564e-06	2.359561e-09	1.061118e+01	1.505174e+02
1.530000e-06	1.517665e-06	2.494279e-09	1.089179e+01	1.593465e+02
1.540000e-06	1.556349e-06	2.629970e-09	1.116941e+01	1.680818e+02
1.550000e-06	1.594743e-06	2.762861e-09	1.144495e+01	1.767075e+02
1.560000e-06	1.632910e-06	2.890307e-09	1.171887e+01	1.852228e+02
1.570000e-06	1.670811e-06	3.016112e-09	1.199087e+01	1.936368e+02
1.580000e-06	1.708402e-06	3.142092e-09	1.226065e+01	2.019599e+02
1.590000e-06	1.745712e-06	3.267381e-09	1.252841e+01	2.101946e+02
1.600000e-06	1.782732e-06	3.390606e-09	1.279409e+01	2.183297e+02
1.610000e-06	1.819497e-06	3.513664e-09	1.305794e+01	2.263418e+02
1.620000e-06	1.856028e-06	3.637603e-09	1.332011e+01	2.342016e+02
1.630000e-06	1.892162e-06	3.756786e-09	1.357944e+01	2.418840e+02
1.640000e-06	1.927788e-06	3.869516e-09	1.383511e+01	2.493771e+02
1.650000e-06	1.963016e-06	3.975791e-09	1.408793e+01	2.566855e+02
1.660000e-06	1.997969e-06	4.080299e-09	1.433878e+01	2.638282e+02
1.670000e-06	2.032623e-06	4.183886e-09	1.458747e+01	2.708298e+02
1.680000e-06	2.066933e-06	4.284767e-09	1.483370e+01	2.777094e+02
1.690000e-06	2.100899e-06	4.385549e-09	1.507747e+01	2.844730e+02
1.700000e-06	2.134558e-06	4.487050e-09	1.531903e+01	2.911100e+02
1.710000e-06	2.167919e-06	4.589917e-09	1.555845e+01	2.975981e+02
1.720000e-06	2.200860e-06	4.689207e-09	1.579486e+01	3.039128e+02
1.730000e-06	2.233345e-06	4.781560e-09	1.602799e+01	3.100383e+02
1.740000e-06	2.265455e-06	4.869425e-09	1.625843e+01	3.159747e+02
1.750000e-06	2.297174e-06	4.953109e-09	1.648607e+01	3.217396e+02
1.760000e-06	2.328486e-06	5.033308e-09	1.671079e+01	3.273613e+02
1.770000e-06	2.359403e-06	5.112952e-09	1.693267e+01	3.328682e+02
1.780000e-06	2.389923e-06	5.194520e-09	1.715170e+01	3.382780e+02
1.790000e-06	2.420024e-06	5.277483e-09	1.736773e+01	3.435907e+02
1.800000e-06	2.449601e-06	5.359890e-09	1.757999e+01	3.487894e+02
1.810000e-06	2.478641e-06	5.439486e-09	1.778840e+01	3.538479e+02
1.820000e-06	2.507234e-06	5.513673e-09	1.799360e+01	3.587420e+02
1.830000e-06	2.535404e-06	5.583666e-09	1.819577e+01	3.634607e+02
1.840000e-06	2.563133e-06	5.650305e-09	1.839477e+01	3.680112e+02
1.850000e-06	2.590452e-06	5.713698e-09	1.859083e+01	3.724167e+02
1.860000e-06	2.617372e-06	5.775651e-09	1.878403e+01	3.767074e+02
1.870000e-06	2.643757e-06	5.836624e-09	1.897339e+01	3.809082e+02
1.880000e-06	2.669574e-06	5.897914e-09	1.915867e+01	3.850286e+02
1.890000e-06	2.694925e-06	5.959313e-09	1.934060e+01	3.890592e+02
1.900000e-06	2.719834e-06	6.020412e-09	1.951936e+01	3.929756e+02
1.910000e-06	2.744300e-06	6.078533e-09	1.969495e+01	3.967490e+02
1.920000e-06	2.768391e-06	6.130628e-09	1.986785e+01	4.003591e+02
1.930000e-06	2.792056e-06	6.178198e-09	2.003768e+01	4.038032e+02
1.940000e-06	2.815114e-06	6.223630e-09	2.020316e+01	4.070988e+02
1.950000e-06	2.837569e-06	6.267254e-09	2.036432e+01	4.102770e+02
1.960000e-06	2.859546e-06	6.309638e-09	2.052204e+01	4.133716e+02
1.970000e-06	2.881025e-06	6.351555e-09	2.067618e+01	4.164051e+02
1.980000e-06	2.901948e-06	6.394642e-09	2.082634e+01	4.193813e+02
1.990000e-06	2.922251e-06	6.438308e-09	2.097205e+01	4.222838e+02
2.000000e-06	2.941900e-06	6.479247e-09	2.111306e+01	4.250846e+02
2.010000e-06	2.960983e-06	6.515221e-09	2.125002e+01	4.277560e+02
2.020000e-06	2.979555e-06	6.547522e-09	2.138330e+01	4.302840e+02
2.030000e-06	2.997629e-06	6.581639e-09	2.151301e+01	4.326748e+02
2.040000e-06	3.015271e-06	6.615243e-09	2.163962e+01	4.349538e+02
2.050000e-06	3.032370e-06	6.644401e-09	2.176233e+01	4.371556e+02
2.060000e-06	3.048834e-06	6.672885e-09	2.188049e+01	4.393106e+02
2.070000e-06	3.064765e-06	6.703794e-09	2.199483e+01	4.414319e+02
2.080000e-06	3.080213e-06	6.734792e-09	2.210569e+01	4.435102e+02
2.090000e-06	3.095168e-06	6.763030e-09	2.221302e+01	4.455170e+02
2.100000e-06	3.109659e-06	6.789343e-09	2.231702e+01	4.474163e+02
2.110000e-06	3.123633e-06	6.814016e-09	2.241730e+01	4.491795e+02
2.120000e-06	3.136974e-06	6.837191e-09	2.251304e+01	4.507975e+02
2.130000e-06	3.149724e-06	6.858283e-09	2.260455e+01	4.522857e+02
2.140000e-06	3.161964e-06	6.877798e-09	2.269239e+01	4.536781e+02
2.150000e-06	3.173694e-06	6.899216e-09	2.277657e+01	4.550154e+02
2.160000e-06	3.184937e-06	6.919928e-09	2.285726e+01	4.563283e+02
2.170000e-06	3.195612e-06	6.938278e-09	2.293387e+01	4.576270e+02
2.180000e-06	3.205626e-06	6.954630e-09	2.300574e+01	4.588972e+02
2.190000e-06	3.215039e-06	6.970903e-09	2.307329e+01	4.601075e+02
2.200000e-06	3.223898e-06	6.989296e-09	2.313687e+01	4.612227e+02
2.210000e-06	3.232243e-06	7.004963e-09	2.319676e+01	4.622198e+02
2.220000e-06	3.240121e-06	7.016250e-09	2.325330e+01	4.630980e+02
2.230000e-06	3.247441e-06	7.025527e-09	2.330583e+01	4.638803e+02
2.240000e-06	3.254145e-06	7.036412e-09	2.335394e+01	4.646042e+02
2.250000e-06	3.260260e-06	7.048665e-09	2.339783e+01	4.653067e+02
2.260000e-06	3.265763e-06	7.057917e-09	2.343732e+01	4.660092e+02
2.270000e-06	3.270658e-06	7.066017e-09	2.347245e+01	4.667085e+02
2.280000e-06	3.274916e-06	7.077211e-09	2.350301e+01	4.673775e+02
2.290000e-06	3.278478e-06	7.089624e-09	2.352857e+01	4.679763e+02
2.300000e-06	3.281406e-06	7.098859e-09	2.354959e+01	4.684694e+02
2.310000e-06	3.283792e-06	7.103246e-09	2.356671e+01	4.688403e+02
2.320000e-06	3.285666e-06	7.105008e-09	2.358016e+01	4.690998e+02
2.330000e-06	3.286997e-06	7.108435e-09	2.358971e+01	4.692829e+02
2.340000e-06	3.287666e-06	7.111704e-09	2.359451e+01	4.694356e+02
2.350000e-06	3.287706e-06	7.113196e-09	2.359480e+01	4.695965e+02
2.360000e-06	3.287226e-06	7.116511e-09	2.359135e+01	4.697816e+02
2.370000e-06	3.286231e-06	7.122266e-09	2.358421e+01	4.699768e+02
2.380000e-06	3.284745e-06	7.126149e-09	2.357355e+01	4.701434e+02
2.390000e-06	3.282722e-06	7.126380e-09	2.355903e+01	4.702324e+02
2.400000e-06	3.280034e-06	7.124313e-09	2.353974e+01	4.702049e+02
2.410000e-06	3.276774e-06	7.119547e-09	2.351635e+01	4.700476e+02
2.420000e-06	3.273049e-06	7.110603e-09	2.348961e+01	4.697801e+02
2.430000e-06	3.268712e-06	7.122733e-09	2.345849e+01	4.694488e+02
2.440000e-06	3.263421e-06	7.133507e-09	2.342052e+01	4.691111e+02
2.450000e-06	3.257170e-06	7.078589e-09	2.337565e+01	4.688148e+02
2.460000e-06	3.250602e-06	7.092835e-09	2.332851e+01	4.685815e+02
2.470000e-06	3.243963e-06	7.116506e-09	2.328087e+01	4.683990e+02
2.480000e-06	3.236684e-06	7.111525e-09	2.322863e+01	4.682265e+02
2.490000e-06	3.228491e-06	7.062567e-09	2.316983e+01	4.680095e+02
2.500000e-06	3.219995e-06	7.082734e-09	2.310886e+01	4.676985e+02
2.510000e-06	3.211332e-06	7.127936e-09	2.304669e+01	4.672648e+02
2.520000e-06	3.201773e-06	7.063170e-09	2.297808e+01	4.667068e+02
2.530000e-06	3.191316e-06	7.034733e-09	2.290304e+01	4.660460e+02
2.540000e-06	3.180599e-06	7.068149e-09	2.282613e+01	4.653141e+02
2.550000e-06	3.169421e-06	7.084665e-09	2.274591e+01	4.645379e+02
2.560000e-06	3.157312e-06	7.001773e-09	2.265900e+01	4.637281e+02
2.570000e-06	3.144622e-06	7.012816e-09	2.256794e+01	4.628764e+02
2.580000e-06	3.131574e-06	7.044666e-09	2.247429e+01	4.619620e+02
2.590000e-06	3.117883e-06	6.995033e-09	2.237603e+01	4.609639e+02
2.600000e-06	3.103664e-06	6.968085e-09	2.227399e+01	4.598740e+02
2.610000e-06	3.089084e-06	6.967223e-09	2.216936e+01	4.587034e+02
2.620000e-06	3.073840e-06	6.950502e-09	2.205995e+01	4.574809e+02
2.630000e-06	3.057934e-06	6.920221e-09	2.194580e+01	4.562424e+02
2.640000e-06	3.041559e-06	6.915220e-09	2.182828e+01	4.550161e+02
2.650000e-06	3.024579e-06	6.890746e-09	2.170642e+01	4.538105e+02
2.660000e-06	3.007085e-06	6.872856e-09	2.158087e+01	4.526086e+02
2.670000e-06	2.989230e-06	6.869065e-09	2.145273e+01	4.513737e+02
2.680000e-06	2.970777e-06	6.809889e-09	2.132031e+01	4.500626e+02
2.690000e-06	2.951662e-06	6.812320e-09	2.118312e+01	4.486420e+02
2.700000e-06	2.932034e-06	6.806530e-09	2.104226e+01	4.471017e+02
2.710000e-06	2.911855e-06	6.747507e-09	2.089744e+01	4.454588e+02
2.720000e-06	2.891128e-06	6.740838e-09	2.074869e+01	4.437511e+02
2.730000e-06	2.869808e-06	6.726664e-09	2.059568e+01	4.420221e+02
2.740000e-06	2.847831e-06	6.682304e-09	2.043796e+01	4.403043e+02
2.750000e-06	2.825361e-06	6.648094e-09	2.027670e+01	4.386067e+02
2.760000e-06	2.802460e-06	6.644213e-09	2.011234e+01	4.369112e+02
2.770000e-06	2.779014e-06	6.605158e-09	1.994408e+01	4.351809e+02
2.780000e-06	2.755134e-06	6.574822e-09	1.977270e+01	4.333755e+02
2.790000e-06	2.730835e-06	6.567954e-09	1.959832e+01	4.314678e+02
2.800000e-06	2.705928e-06	6.512565e-09	1.941956e+01	4.294550e+02
2.810000e-06	2.680485e-06	6.496863e-09	1.923697e+01	4.273603e+02
2.820000e-06	2.654638e-06	6.472225e-09	1.905148e+01	4.252231e+02
2.830000e-06	2.628312e-06	6.415772e-09	1.886254e+01	4.230834e+02
2.840000e-06	2.601518e-06	6.402829e-09	1.867025e+01	4.209648e+02
2.850000e-06	2.574353e-06	6.371220e-09	1.847530e+01	4.188655e+02
2.860000e-06	2.546720e-06	6.334300e-09	1.827698e+01	4.167578e+02
2.870000e-06	2.518523e-06	6.298078e-09	1.807462e+01	4.146000e+02
2.880000e-06	2.489850e-06	6.267352e-09	1.786885e+01	4.123521e+02
2.890000e-06	2.460778e-06	6.240380e-09	1.766021e+01	4.099926e+02
2.900000e-06	2.431284e-06	6.195178e-09	1.744854e+01	4.075264e+02
2.910000e-06	2.401363e-06	6.160825e-09	1.723381e+01	4.049826e+02
2.920000e-06	2.370995e-06	6.121546e-09	1.701586e+01	4.024027e+02
2.930000e-06	2.340099e-06	6.086377e-09	1.679413e+01	3.998231e+02
2.940000e-06	2.308630e-06	6.042725e-09	1.656829e+01	3.972601e+02
