# Temperatura_=_20.0
# Concentracion g/m^3_=_10000.0
# C_Vs_to_Am_M_A/Vsm_=_65563218390.804596
# pendiente_HvsI_1/m_=_3716.3
# ordenada_HvsI_A/m_=_1297.0
# frecuencia_Hz_=_301039.4678051899

Tiempo_(s)	Campo_(V.s)	Magnetizacion_(V.s)	Campo_(kA/m)	Magnetizacion_(A/m)
0.000000e+00	-3.510497e-06	-7.557625e-09	-2.347004e+01	-5.211743e+02
1.000000e-08	-3.509662e-06	-7.559583e-09	-2.346446e+01	-5.228269e+02
2.000000e-08	-3.507592e-06	-7.560631e-09	-2.345062e+01	-5.242923e+02
3.000000e-08	-3.504165e-06	-7.560289e-09	-2.342771e+01	-5.255700e+02
4.000000e-08	-3.499635e-06	-7.558736e-09	-2.339742e+01	-5.266595e+02
5.000000e-08	-3.494085e-06	-7.555706e-09	-2.336032e+01	-5.275604e+02
6.000000e-08	-3.487424e-06	-7.550597e-09	-2.331579e+01	-5.282724e+02
7.000000e-08	-3.479699e-06	-7.535842e-09	-2.326414e+01	-5.287953e+02
8.000000e-08	-3.470871e-06	-7.525661e-09	-2.320512e+01	-5.291288e+02
9.000000e-08	-3.460430e-06	-7.549555e-09	-2.313531e+01	-5.292728e+02
1.000000e-07	-3.448044e-06	-7.551926e-09	-2.305250e+01	-5.292273e+02
1.100000e-07	-3.434109e-06	-7.513536e-09	-2.295934e+01	-5.289923e+02
1.200000e-07	-3.419112e-06	-7.410351e-09	-2.285907e+01	-5.285679e+02
1.300000e-07	-3.403051e-06	-7.428097e-09	-2.275169e+01	-5.279542e+02
1.400000e-07	-3.385665e-06	-7.534530e-09	-2.263546e+01	-5.271514e+02
1.500000e-07	-3.367068e-06	-7.415804e-09	-2.251113e+01	-5.261599e+02
1.600000e-07	-3.347586e-06	-7.346248e-09	-2.238087e+01	-5.249799e+02
1.700000e-07	-3.327054e-06	-7.439762e-09	-2.224361e+01	-5.236120e+02
1.800000e-07	-3.305295e-06	-7.394330e-09	-2.209813e+01	-5.220565e+02
1.900000e-07	-3.282693e-06	-7.308476e-09	-2.194702e+01	-5.203141e+02
2.000000e-07	-3.259217e-06	-7.393481e-09	-2.179007e+01	-5.183854e+02
2.100000e-07	-3.234316e-06	-7.331437e-09	-2.162359e+01	-5.162710e+02
2.200000e-07	-3.207914e-06	-7.183741e-09	-2.144707e+01	-5.139717e+02
2.300000e-07	-3.180320e-06	-7.257206e-09	-2.126259e+01	-5.114884e+02
2.400000e-07	-3.151736e-06	-7.272330e-09	-2.107148e+01	-5.088218e+02
2.500000e-07	-3.122076e-06	-7.169010e-09	-2.087319e+01	-5.059731e+02
2.600000e-07	-3.091247e-06	-7.123287e-09	-2.066708e+01	-5.029431e+02
2.700000e-07	-3.059416e-06	-7.081647e-09	-2.045426e+01	-4.997330e+02
2.800000e-07	-3.026833e-06	-7.085433e-09	-2.023643e+01	-4.963439e+02
2.900000e-07	-2.993251e-06	-7.087485e-09	-2.001191e+01	-4.927771e+02
3.000000e-07	-2.958253e-06	-6.962348e-09	-1.977792e+01	-4.890337e+02
3.100000e-07	-2.921990e-06	-6.929518e-09	-1.953548e+01	-4.851152e+02
3.200000e-07	-2.884698e-06	-6.932110e-09	-1.928616e+01	-4.810229e+02
3.300000e-07	-2.846438e-06	-6.849566e-09	-1.903036e+01	-4.767583e+02
3.400000e-07	-2.807244e-06	-6.821017e-09	-1.876832e+01	-4.723230e+02
3.500000e-07	-2.767154e-06	-6.774323e-09	-1.850030e+01	-4.677184e+02
3.600000e-07	-2.726217e-06	-6.670007e-09	-1.822660e+01	-4.629464e+02
3.700000e-07	-2.684196e-06	-6.669049e-09	-1.794566e+01	-4.580084e+02
3.800000e-07	-2.640891e-06	-6.675330e-09	-1.765614e+01	-4.529064e+02
3.900000e-07	-2.596476e-06	-6.554021e-09	-1.735919e+01	-4.476422e+02
4.000000e-07	-2.551148e-06	-6.465461e-09	-1.705615e+01	-4.422176e+02
4.100000e-07	-2.505003e-06	-6.433941e-09	-1.674764e+01	-4.366345e+02
4.200000e-07	-2.458020e-06	-6.393774e-09	-1.643352e+01	-4.308950e+02
4.300000e-07	-2.410133e-06	-6.323918e-09	-1.611337e+01	-4.250012e+02
4.400000e-07	-2.361339e-06	-6.242452e-09	-1.578715e+01	-4.189550e+02
4.500000e-07	-2.311550e-06	-6.170808e-09	-1.545427e+01	-4.127588e+02
4.600000e-07	-2.260693e-06	-6.135848e-09	-1.511426e+01	-4.064146e+02
4.700000e-07	-2.208790e-06	-6.090603e-09	-1.476725e+01	-3.999248e+02
4.800000e-07	-2.155933e-06	-5.988746e-09	-1.441387e+01	-3.932917e+02
4.900000e-07	-2.102248e-06	-5.897170e-09	-1.405495e+01	-3.865177e+02
5.000000e-07	-2.047811e-06	-5.827651e-09	-1.369100e+01	-3.796051e+02
5.100000e-07	-1.992752e-06	-5.777586e-09	-1.332290e+01	-3.725565e+02
5.200000e-07	-1.937054e-06	-5.708116e-09	-1.295051e+01	-3.653744e+02
5.300000e-07	-1.880755e-06	-5.599293e-09	-1.257412e+01	-3.580613e+02
5.400000e-07	-1.823975e-06	-5.498708e-09	-1.219451e+01	-3.506198e+02
5.500000e-07	-1.766402e-06	-5.442372e-09	-1.180959e+01	-3.430527e+02
5.600000e-07	-1.707830e-06	-5.376035e-09	-1.141800e+01	-3.353626e+02
5.700000e-07	-1.648416e-06	-5.268609e-09	-1.102078e+01	-3.275522e+02
5.800000e-07	-1.588373e-06	-5.162609e-09	-1.061935e+01	-3.196244e+02
5.900000e-07	-1.527944e-06	-5.077607e-09	-1.021534e+01	-3.115821e+02
6.000000e-07	-1.467142e-06	-5.006234e-09	-9.808836e+00	-3.034279e+02
6.100000e-07	-1.405857e-06	-4.911675e-09	-9.399107e+00	-2.951650e+02
6.200000e-07	-1.344022e-06	-4.792451e-09	-8.985695e+00	-2.867962e+02
6.300000e-07	-1.281712e-06	-4.672771e-09	-8.569111e+00	-2.783245e+02
6.400000e-07	-1.219029e-06	-4.581773e-09	-8.150031e+00	-2.697530e+02
6.500000e-07	-1.155963e-06	-4.497041e-09	-7.728393e+00	-2.610847e+02
6.600000e-07	-1.092463e-06	-4.382446e-09	-7.303853e+00	-2.523227e+02
6.700000e-07	-1.028506e-06	-4.255051e-09	-6.876258e+00	-2.434702e+02
6.800000e-07	-9.642643e-07	-4.143841e-09	-6.446759e+00	-2.345303e+02
6.900000e-07	-8.998512e-07	-4.050603e-09	-6.016113e+00	-2.255062e+02
7.000000e-07	-8.352612e-07	-3.934277e-09	-5.584285e+00	-2.164012e+02
7.100000e-07	-7.704694e-07	-3.790102e-09	-5.151108e+00	-2.072185e+02
7.200000e-07	-7.053975e-07	-3.649565e-09	-4.716059e+00	-1.979613e+02
7.300000e-07	-6.400349e-07	-3.535353e-09	-4.279066e+00	-1.886331e+02
7.400000e-07	-5.744389e-07	-3.425723e-09	-3.840512e+00	-1.792370e+02
7.500000e-07	-5.084781e-07	-3.292911e-09	-3.399520e+00	-1.697766e+02
7.600000e-07	-4.420430e-07	-3.147555e-09	-2.955356e+00	-1.602551e+02
7.700000e-07	-3.752825e-07	-3.011800e-09	-2.509017e+00	-1.506760e+02
7.800000e-07	-3.083898e-07	-2.887387e-09	-2.061794e+00	-1.410427e+02
7.900000e-07	-2.414079e-07	-2.745713e-09	-1.613975e+00	-1.313586e+02
8.000000e-07	-1.742854e-07	-2.579744e-09	-1.165215e+00	-1.216272e+02
8.100000e-07	-1.070115e-07	-2.411163e-09	-7.154443e-01	-1.118520e+02
8.200000e-07	-3.969132e-08	-2.264200e-09	-2.653633e-01	-1.020365e+02
8.300000e-07	2.766487e-08	-2.125707e-09	1.849584e-01	-9.218419e+01
8.400000e-07	9.501397e-08	-1.967782e-09	6.352326e-01	-8.229858e+01
8.500000e-07	1.622127e-07	-1.792371e-09	1.084502e+00	-7.238321e+01
8.600000e-07	2.293805e-07	-1.623275e-09	1.533564e+00	-6.244164e+01
8.700000e-07	2.964814e-07	-1.466117e-09	1.982179e+00	-5.247741e+01
8.800000e-07	3.633790e-07	-1.296263e-09	2.429434e+00	-4.249408e+01
8.900000e-07	4.300835e-07	-1.104622e-09	2.875399e+00	-3.249523e+01
9.000000e-07	4.964722e-07	-9.079859e-10	3.319252e+00	-2.248444e+01
9.100000e-07	5.624567e-07	-7.278629e-10	3.760403e+00	-1.246527e+01
9.200000e-07	6.280797e-07	-5.539369e-10	4.199137e+00	-2.441320e+00
9.300000e-07	6.934208e-07	-3.632874e-10	4.635986e+00	7.583836e+00
9.400000e-07	7.584431e-07	-1.569066e-10	5.070705e+00	1.760661e+01
9.500000e-07	8.231279e-07	4.533260e-11	5.503166e+00	2.762342e+01
9.600000e-07	8.876081e-07	2.357182e-10	5.934260e+00	3.763068e+01
9.700000e-07	9.519298e-07	4.312304e-10	6.364294e+00	4.762482e+01
9.800000e-07	1.016090e-06	6.435300e-10	6.793245e+00	5.760226e+01
9.900000e-07	1.080023e-06	8.619610e-10	7.220686e+00	6.755943e+01
1.000000e-06	1.143571e-06	1.066064e-09	7.645542e+00	7.749278e+01
1.010000e-06	1.206628e-06	1.261487e-09	8.067123e+00	8.739875e+01
1.020000e-06	1.269251e-06	1.468828e-09	8.485799e+00	9.727380e+01
1.030000e-06	1.331559e-06	1.688187e-09	8.902372e+00	1.071144e+02
1.040000e-06	1.393530e-06	1.902449e-09	9.316689e+00	1.169170e+02
1.050000e-06	1.455003e-06	2.102640e-09	9.727679e+00	1.266782e+02
1.060000e-06	1.515902e-06	2.299954e-09	1.013483e+01	1.363944e+02
1.070000e-06	1.576378e-06	2.507658e-09	1.053915e+01	1.460622e+02
1.080000e-06	1.636534e-06	2.721234e-09	1.094133e+01	1.556780e+02
1.090000e-06	1.696143e-06	2.923184e-09	1.133987e+01	1.652386e+02
1.100000e-06	1.754848e-06	3.111476e-09	1.173234e+01	1.747404e+02
1.110000e-06	1.812487e-06	3.301370e-09	1.211770e+01	1.841800e+02
1.120000e-06	1.869302e-06	3.499864e-09	1.249755e+01	1.935541e+02
1.130000e-06	1.925626e-06	3.692768e-09	1.287411e+01	2.028594e+02
1.140000e-06	1.981493e-06	3.867476e-09	1.324762e+01	2.120924e+02
1.150000e-06	2.036674e-06	4.032263e-09	1.361654e+01	2.212500e+02
1.160000e-06	2.091152e-06	4.201499e-09	1.398077e+01	2.303287e+02
1.170000e-06	2.144975e-06	4.374607e-09	1.434061e+01	2.393255e+02
1.180000e-06	2.197994e-06	4.537168e-09	1.469507e+01	2.482370e+02
1.190000e-06	2.250140e-06	4.686400e-09	1.504371e+01	2.570601e+02
1.200000e-06	2.301244e-06	4.834401e-09	1.538537e+01	2.657916e+02
1.210000e-06	2.351088e-06	4.986270e-09	1.571861e+01	2.744284e+02
1.220000e-06	2.399894e-06	5.132010e-09	1.604491e+01	2.829674e+02
1.230000e-06	2.447932e-06	5.262442e-09	1.636608e+01	2.914056e+02
1.240000e-06	2.495172e-06	5.381440e-09	1.668191e+01	2.997399e+02
1.250000e-06	2.541571e-06	5.503173e-09	1.699212e+01	3.079674e+02
1.260000e-06	2.587084e-06	5.631248e-09	1.729641e+01	3.160851e+02
1.270000e-06	2.631818e-06	5.750668e-09	1.759548e+01	3.240901e+02
1.280000e-06	2.675901e-06	5.854847e-09	1.789021e+01	3.319796e+02
1.290000e-06	2.719009e-06	5.956476e-09	1.817841e+01	3.397507e+02
1.300000e-06	2.760764e-06	6.063471e-09	1.845757e+01	3.474007e+02
1.310000e-06	2.801371e-06	6.165988e-09	1.872906e+01	3.549268e+02
1.320000e-06	2.841143e-06	6.255475e-09	1.899496e+01	3.623263e+02
1.330000e-06	2.880008e-06	6.336199e-09	1.925480e+01	3.695966e+02
1.340000e-06	2.917845e-06	6.417356e-09	1.950776e+01	3.767351e+02
1.350000e-06	2.954736e-06	6.501249e-09	1.975441e+01	3.837393e+02
1.360000e-06	2.990812e-06	6.578850e-09	1.999560e+01	3.906065e+02
1.370000e-06	3.025809e-06	6.644816e-09	2.022957e+01	3.973345e+02
1.380000e-06	3.059426e-06	6.708524e-09	2.045433e+01	4.039207e+02
1.390000e-06	3.091873e-06	6.777581e-09	2.067126e+01	4.103629e+02
1.400000e-06	3.123371e-06	6.845606e-09	2.088185e+01	4.166586e+02
1.410000e-06	3.153870e-06	6.905342e-09	2.108575e+01	4.228058e+02
1.420000e-06	3.183305e-06	6.958038e-09	2.128255e+01	4.288021e+02
1.430000e-06	3.211747e-06	7.010418e-09	2.147270e+01	4.346454e+02
1.440000e-06	3.239034e-06	7.064576e-09	2.165513e+01	4.403336e+02
1.450000e-06	3.264923e-06	7.113637e-09	2.182822e+01	4.458648e+02
1.460000e-06	3.289535e-06	7.153755e-09	2.199276e+01	4.512369e+02
1.470000e-06	3.313010e-06	7.191022e-09	2.214971e+01	4.564480e+02
1.480000e-06	3.335362e-06	7.230613e-09	2.229915e+01	4.614962e+02
1.490000e-06	3.356631e-06	7.269893e-09	2.244135e+01	4.663798e+02
1.500000e-06	3.376955e-06	7.303623e-09	2.257723e+01	4.710970e+02
1.510000e-06	3.396205e-06	7.332566e-09	2.270593e+01	4.756461e+02
1.520000e-06	3.414105e-06	7.362075e-09	2.282560e+01	4.800254e+02
1.530000e-06	3.430718e-06	7.394091e-09	2.293667e+01	4.842335e+02
1.540000e-06	3.446087e-06	7.423381e-09	2.303942e+01	4.882688e+02
1.550000e-06	3.460190e-06	7.446173e-09	2.313371e+01	4.921299e+02
1.560000e-06	3.473018e-06	7.465013e-09	2.321948e+01	4.958153e+02
1.570000e-06	3.484386e-06	7.484046e-09	2.329547e+01	4.993238e+02
1.580000e-06	3.494173e-06	7.503838e-09	2.336091e+01	5.026542e+02
1.590000e-06	3.502666e-06	7.519179e-09	2.341769e+01	5.058052e+02
1.600000e-06	3.510090e-06	7.530046e-09	2.346733e+01	5.087757e+02
1.610000e-06	3.516332e-06	7.541061e-09	2.350906e+01	5.115646e+02
1.620000e-06	3.521405e-06	7.554280e-09	2.354297e+01	5.141710e+02
1.630000e-06	3.525390e-06	7.567520e-09	2.356961e+01	5.165939e+02
1.640000e-06	3.528004e-06	7.577056e-09	2.358709e+01	5.188325e+02
1.650000e-06	3.529152e-06	7.581056e-09	2.359477e+01	5.208859e+02
1.660000e-06	3.529157e-06	7.582754e-09	2.359480e+01	5.227534e+02
1.670000e-06	3.528095e-06	7.583260e-09	2.358770e+01	5.244344e+02
1.680000e-06	3.525875e-06	7.581948e-09	2.357286e+01	5.259283e+02
1.690000e-06	3.522637e-06	7.578053e-09	2.355121e+01	5.272345e+02
1.700000e-06	3.518324e-06	7.574664e-09	2.352238e+01	5.283525e+02
1.710000e-06	3.512555e-06	7.573959e-09	2.348380e+01	5.292820e+02
1.720000e-06	3.505495e-06	7.574424e-09	2.343661e+01	5.300226e+02
1.730000e-06	3.497509e-06	7.582106e-09	2.338321e+01	5.305741e+02
1.740000e-06	3.488548e-06	7.557049e-09	2.332330e+01	5.309362e+02
1.750000e-06	3.478239e-06	7.506325e-09	2.325438e+01	5.311089e+02
1.760000e-06	3.465804e-06	7.484771e-09	2.317124e+01	5.310921e+02
1.770000e-06	3.451212e-06	7.537938e-09	2.307368e+01	5.308857e+02
1.780000e-06	3.435686e-06	7.559732e-09	2.296988e+01	5.304899e+02
1.790000e-06	3.419988e-06	7.450138e-09	2.286493e+01	5.299049e+02
1.800000e-06	3.403410e-06	7.396819e-09	2.275410e+01	5.291307e+02
1.810000e-06	3.385217e-06	7.513860e-09	2.263246e+01	5.281677e+02
1.820000e-06	3.366013e-06	7.458502e-09	2.250407e+01	5.270163e+02
1.830000e-06	3.346100e-06	7.365607e-09	2.237094e+01	5.256768e+02
1.840000e-06	3.324580e-06	7.485534e-09	2.222706e+01	5.241498e+02
1.850000e-06	3.301458e-06	7.397296e-09	2.207248e+01	5.224357e+02
1.860000e-06	3.277462e-06	7.264105e-09	2.191205e+01	5.205353e+02
1.870000e-06	3.252333e-06	7.411413e-09	2.174405e+01	5.184491e+02
1.880000e-06	3.225933e-06	7.386346e-09	2.156754e+01	5.161779e+02
1.890000e-06	3.198525e-06	7.204096e-09	2.138430e+01	5.137226e+02
1.900000e-06	3.169818e-06	7.251661e-09	2.119238e+01	5.110840e+02
1.910000e-06	3.139829e-06	7.252564e-09	2.099188e+01	5.082631e+02
1.920000e-06	3.108744e-06	7.194786e-09	2.078406e+01	5.052608e+02
1.930000e-06	3.076419e-06	7.178042e-09	2.056794e+01	5.020783e+02
1.940000e-06	3.043167e-06	7.058861e-09	2.034563e+01	4.987167e+02
1.950000e-06	3.009105e-06	7.058106e-09	2.011790e+01	4.951772e+02
1.960000e-06	2.974073e-06	7.101626e-09	1.988369e+01	4.914611e+02
1.970000e-06	2.938173e-06	6.949863e-09	1.964367e+01	4.875696e+02
1.980000e-06	2.900983e-06	6.929943e-09	1.939503e+01	4.835042e+02
1.990000e-06	2.862329e-06	6.931885e-09	1.913661e+01	4.792664e+02
2.000000e-06	2.822765e-06	6.813923e-09	1.887209e+01	4.748576e+02
2.010000e-06	2.782365e-06	6.839848e-09	1.860199e+01	4.702795e+02
2.020000e-06	2.740985e-06	6.786619e-09	1.832534e+01	4.655336e+02
2.030000e-06	2.698664e-06	6.651184e-09	1.804239e+01	4.606217e+02
2.040000e-06	2.655528e-06	6.635522e-09	1.775400e+01	4.555456e+02
2.050000e-06	2.611751e-06	6.617227e-09	1.746132e+01	4.503070e+02
2.060000e-06	2.566978e-06	6.566768e-09	1.716198e+01	4.449078e+02
2.070000e-06	2.521066e-06	6.480007e-09	1.685503e+01	4.393500e+02
2.080000e-06	2.474336e-06	6.394483e-09	1.654261e+01	4.336355e+02
2.090000e-06	2.426686e-06	6.369052e-09	1.622404e+01	4.277665e+02
2.100000e-06	2.378007e-06	6.310944e-09	1.589858e+01	4.217449e+02
2.110000e-06	2.328405e-06	6.227416e-09	1.556696e+01	4.155730e+02
2.120000e-06	2.278032e-06	6.149990e-09	1.523018e+01	4.092529e+02
2.130000e-06	2.226901e-06	6.085709e-09	1.488834e+01	4.027870e+02
2.140000e-06	2.174790e-06	6.057216e-09	1.453994e+01	3.961775e+02
2.150000e-06	2.121511e-06	5.984219e-09	1.418374e+01	3.894268e+02
2.160000e-06	2.067118e-06	5.890155e-09	1.382008e+01	3.825373e+02
2.170000e-06	2.011984e-06	5.797614e-09	1.345147e+01	3.755115e+02
2.180000e-06	1.956331e-06	5.722060e-09	1.307940e+01	3.683519e+02
2.190000e-06	1.900041e-06	5.677708e-09	1.270306e+01	3.610610e+02
2.200000e-06	1.843079e-06	5.576788e-09	1.232223e+01	3.536416e+02
2.210000e-06	1.785535e-06	5.474033e-09	1.193751e+01	3.460961e+02
2.220000e-06	1.727339e-06	5.402293e-09	1.154843e+01	3.384274e+02
2.230000e-06	1.668512e-06	5.332883e-09	1.115513e+01	3.306382e+02
2.240000e-06	1.609284e-06	5.255184e-09	1.075915e+01	3.227312e+02
2.250000e-06	1.549689e-06	5.142770e-09	1.036072e+01	3.147093e+02
2.260000e-06	1.489583e-06	5.035457e-09	9.958870e+00	3.065753e+02
2.270000e-06	1.428779e-06	4.947885e-09	9.552351e+00	2.983323e+02
2.280000e-06	1.367144e-06	4.861335e-09	9.140280e+00	2.899830e+02
2.290000e-06	1.304759e-06	4.761130e-09	8.723195e+00	2.815306e+02
2.300000e-06	1.241885e-06	4.636400e-09	8.302842e+00	2.729780e+02
2.310000e-06	1.178714e-06	4.527565e-09	7.880500e+00	2.643282e+02
2.320000e-06	1.115282e-06	4.441427e-09	7.456415e+00	2.555845e+02
2.330000e-06	1.051495e-06	4.340574e-09	7.029958e+00	2.467499e+02
2.340000e-06	9.873368e-07	4.216499e-09	6.601014e+00	2.378276e+02
2.350000e-06	9.228406e-07	4.083434e-09	6.169813e+00	2.288207e+02
2.360000e-06	8.579886e-07	3.972477e-09	5.736233e+00	2.197326e+02
2.370000e-06	7.928173e-07	3.864604e-09	5.300519e+00	2.105663e+02
2.380000e-06	7.273735e-07	3.733923e-09	4.862983e+00	2.013254e+02
2.390000e-06	6.617168e-07	3.595459e-09	4.424024e+00	1.920129e+02
2.400000e-06	5.958752e-07	3.464135e-09	3.983828e+00	1.826323e+02
2.410000e-06	5.297839e-07	3.347725e-09	3.541963e+00	1.731870e+02
2.420000e-06	4.635081e-07	3.222214e-09	3.098865e+00	1.636802e+02
2.430000e-06	3.970974e-07	3.076847e-09	2.654865e+00	1.541155e+02
2.440000e-06	3.304837e-07	2.925617e-09	2.209507e+00	1.444961e+02
2.450000e-06	2.637457e-07	2.782603e-09	1.763318e+00	1.348257e+02
2.460000e-06	1.969149e-07	2.645286e-09	1.316509e+00	1.251076e+02
2.470000e-06	1.300401e-07	2.493066e-09	8.694058e-01	1.153453e+02
2.480000e-06	6.319515e-08	2.325560e-09	4.225023e-01	1.055423e+02
2.490000e-06	-3.709818e-09	2.160352e-09	-2.480264e-02	9.570209e+01
2.500000e-06	-7.063887e-08	2.007871e-09	-4.722686e-01	8.582823e+01
2.510000e-06	-1.375303e-07	1.854657e-09	-9.194831e-01	7.592423e+01
2.520000e-06	-2.043508e-07	1.686087e-09	-1.366223e+00	6.599365e+01
2.530000e-06	-2.710963e-07	1.508385e-09	-1.812462e+00	5.604003e+01
2.540000e-06	-3.377659e-07	1.335747e-09	-2.258194e+00	4.606693e+01
2.550000e-06	-4.042622e-07	1.165053e-09	-2.702766e+00	3.607793e+01
2.560000e-06	-4.705425e-07	9.826321e-10	-3.145895e+00	2.607660e+01
2.570000e-06	-5.365984e-07	7.873955e-10	-3.587523e+00	1.606651e+01
2.580000e-06	-6.024116e-07	5.920397e-10	-4.027529e+00	6.051256e+00
2.590000e-06	-6.680027e-07	4.072423e-10	-4.466049e+00	-3.965588e+00
2.600000e-06	-7.334213e-07	2.212226e-10	-4.903417e+00	-1.398043e+01
2.610000e-06	-7.986861e-07	2.356544e-11	-5.339756e+00	-2.398970e+01
2.620000e-06	-8.637352e-07	-1.826077e-10	-5.774654e+00	-3.398980e+01
2.630000e-06	-9.284026e-07	-3.851914e-10	-6.206999e+00	-4.397716e+01
2.640000e-06	-9.926298e-07	-5.806782e-10	-6.636401e+00	-5.394821e+01
2.650000e-06	-1.056457e-06	-7.824442e-10	-7.063127e+00	-6.389937e+01
2.660000e-06	-1.119982e-06	-9.960176e-10	-7.487835e+00	-7.382709e+01
2.670000e-06	-1.183311e-06	-1.210684e-09	-7.911232e+00	-8.372781e+01
2.680000e-06	-1.246398e-06	-1.415779e-09	-8.333015e+00	-9.359799e+01
2.690000e-06	-1.309083e-06	-1.618156e-09	-8.752107e+00	-1.034341e+02
2.700000e-06	-1.371233e-06	-1.826844e-09	-9.167620e+00	-1.132326e+02
2.710000e-06	-1.432673e-06	-2.040721e-09	-9.578390e+00	-1.229900e+02
2.720000e-06	-1.493294e-06	-2.248610e-09	-9.983679e+00	-1.327029e+02
2.730000e-06	-1.553166e-06	-2.446683e-09	-1.038397e+01	-1.423676e+02
2.740000e-06	-1.612551e-06	-2.646358e-09	-1.078099e+01	-1.519809e+02
2.750000e-06	-1.671571e-06	-2.853010e-09	-1.117558e+01	-1.615391e+02
2.760000e-06	-1.730072e-06	-3.058396e-09	-1.156670e+01	-1.710390e+02
2.770000e-06	-1.787951e-06	-3.251566e-09	-1.195366e+01	-1.804771e+02
2.780000e-06	-1.845219e-06	-3.435457e-09	-1.233653e+01	-1.898501e+02
2.790000e-06	-1.901863e-06	-3.622174e-09	-1.271524e+01	-1.991545e+02
2.800000e-06	-1.957787e-06	-3.809128e-09	-1.308913e+01	-2.083871e+02
2.810000e-06	-2.013143e-06	-3.983817e-09	-1.345922e+01	-2.175445e+02
2.820000e-06	-2.067891e-06	-4.147300e-09	-1.382525e+01	-2.266235e+02
2.830000e-06	-2.121618e-06	-4.307928e-09	-1.418445e+01	-2.356209e+02
2.840000e-06	-2.174214e-06	-4.471202e-09	-1.453609e+01	-2.445333e+02
2.850000e-06	-2.225891e-06	-4.633033e-09	-1.488158e+01	-2.533577e+02
2.860000e-06	-2.276797e-06	-4.785064e-09	-1.522193e+01	-2.620908e+02
2.870000e-06	-2.326900e-06	-4.927267e-09	-1.555690e+01	-2.707295e+02
2.880000e-06	-2.376116e-06	-5.065526e-09	-1.588594e+01	-2.792708e+02
2.890000e-06	-2.424178e-06	-5.202176e-09	-1.620727e+01	-2.877116e+02
2.900000e-06	-2.470985e-06	-5.331103e-09	-1.652021e+01	-2.960488e+02
2.910000e-06	-2.516941e-06	-5.450967e-09	-1.682745e+01	-3.042796e+02
2.920000e-06	-2.562152e-06	-5.567496e-09	-1.712972e+01	-3.124008e+02
2.930000e-06	-2.606463e-06	-5.684961e-09	-1.742596e+01	-3.204097e+02
2.940000e-06	-2.650030e-06	-5.800108e-09	-1.771724e+01	-3.283033e+02
