# Temperatura_=_20.0
# Concentracion g/m^3_=_10000.0
# C_Vs_to_Am_M_A/Vsm_=_65563218390.804596
# pendiente_HvsI_1/m_=_3716.3
# ordenada_HvsI_A/m_=_1297.0
# frecuencia_Hz_=_301061.2483017623

Tiempo_(s)	Campo_(V.s)	Magnetizacion_(V.s)	Campo_(kA/m)	Magnetizacion_(A/m)
0.000000e+00	-3.517462e-06	-1.557356e-10	-2.346757e+01	-1.087796e+01
1.000000e-08	-3.517052e-06	-1.511631e-10	-2.346484e+01	-1.088634e+01
2.000000e-08	-3.515447e-06	-1.490517e-10	-2.345413e+01	-1.089080e+01
3.000000e-08	-3.512363e-06	-1.531828e-10	-2.343355e+01	-1.089137e+01
4.000000e-08	-3.508152e-06	-1.623766e-10	-2.340546e+01	-1.088803e+01
5.000000e-08	-3.503001e-06	-1.685560e-10	-2.337109e+01	-1.088079e+01
6.000000e-08	-3.496708e-06	-1.698566e-10	-2.332911e+01	-1.086965e+01
7.000000e-08	-3.489264e-06	-1.598814e-10	-2.327944e+01	-1.085462e+01
8.000000e-08	-3.480773e-06	-1.456728e-10	-2.322279e+01	-1.083569e+01
9.000000e-08	-3.470842e-06	-2.079886e-10	-2.315653e+01	-1.081288e+01
1.000000e-07	-3.458969e-06	-2.368847e-10	-2.307733e+01	-1.078620e+01
1.100000e-07	-3.445420e-06	-1.958782e-10	-2.298693e+01	-1.075565e+01
1.200000e-07	-3.430688e-06	-2.015194e-11	-2.288864e+01	-1.072124e+01
1.300000e-07	-3.414883e-06	-5.203416e-11	-2.278319e+01	-1.068300e+01
1.400000e-07	-3.397741e-06	-3.344517e-10	-2.266882e+01	-1.064092e+01
1.500000e-07	-3.379379e-06	-2.132428e-10	-2.254632e+01	-1.059503e+01
1.600000e-07	-3.360194e-06	9.966715e-12	-2.241833e+01	-1.054534e+01
1.700000e-07	-3.340030e-06	-2.071098e-10	-2.228379e+01	-1.049187e+01
1.800000e-07	-3.318516e-06	-2.483577e-10	-2.214026e+01	-1.043464e+01
1.900000e-07	-3.296092e-06	1.698938e-11	-2.199065e+01	-1.037367e+01
2.000000e-07	-3.272937e-06	-2.183750e-10	-2.183617e+01	-1.030898e+01
2.100000e-07	-3.248379e-06	-2.552902e-10	-2.167232e+01	-1.024060e+01
2.200000e-07	-3.222287e-06	7.396054e-11	-2.149824e+01	-1.016854e+01
2.300000e-07	-3.194992e-06	-1.247288e-10	-2.131614e+01	-1.009285e+01
2.400000e-07	-3.166670e-06	-2.893010e-10	-2.112718e+01	-1.001353e+01
2.500000e-07	-3.137252e-06	-8.332169e-11	-2.093091e+01	-9.930621e+00
2.600000e-07	-3.106681e-06	-1.067800e-10	-2.072695e+01	-9.844154e+00
2.700000e-07	-3.075053e-06	-1.180639e-10	-2.051594e+01	-9.754157e+00
2.800000e-07	-3.042692e-06	-9.568146e-11	-2.030003e+01	-9.660664e+00
2.900000e-07	-3.009401e-06	-2.144473e-10	-2.007792e+01	-9.563708e+00
3.000000e-07	-2.974593e-06	-1.010412e-10	-1.984570e+01	-9.463322e+00
3.100000e-07	-2.938498e-06	-4.118797e-11	-1.960488e+01	-9.359544e+00
3.200000e-07	-2.901382e-06	-1.569431e-10	-1.935725e+01	-9.252409e+00
3.300000e-07	-2.863322e-06	-1.496774e-10	-1.910333e+01	-9.141958e+00
3.400000e-07	-2.824361e-06	-1.254636e-10	-1.884339e+01	-9.028228e+00
3.500000e-07	-2.784447e-06	-1.379623e-10	-1.857709e+01	-8.911261e+00
3.600000e-07	-2.743762e-06	-5.382436e-11	-1.830565e+01	-8.791098e+00
3.700000e-07	-2.702084e-06	-9.573737e-11	-1.802759e+01	-8.667783e+00
3.800000e-07	-2.659055e-06	-1.900010e-10	-1.774051e+01	-8.541360e+00
3.900000e-07	-2.614884e-06	-1.199047e-10	-1.744581e+01	-8.411873e+00
4.000000e-07	-2.569830e-06	-6.230762e-11	-1.714522e+01	-8.279369e+00
4.100000e-07	-2.523921e-06	-9.287432e-11	-1.683893e+01	-8.143896e+00
4.200000e-07	-2.477173e-06	-1.488625e-10	-1.652704e+01	-8.005502e+00
4.300000e-07	-2.429571e-06	-1.273146e-10	-1.620945e+01	-7.864236e+00
4.400000e-07	-2.381047e-06	-9.091296e-11	-1.588572e+01	-7.720149e+00
4.500000e-07	-2.331429e-06	-5.999549e-11	-1.555468e+01	-7.573293e+00
4.600000e-07	-2.280674e-06	-9.279735e-11	-1.521605e+01	-7.423719e+00
4.700000e-07	-2.228963e-06	-1.468331e-10	-1.487105e+01	-7.271482e+00
4.800000e-07	-2.176310e-06	-1.206753e-10	-1.451976e+01	-7.116636e+00
4.900000e-07	-2.122725e-06	-7.560073e-11	-1.416226e+01	-6.959237e+00
5.000000e-07	-2.068401e-06	-7.033708e-11	-1.379982e+01	-6.799339e+00
5.100000e-07	-2.013424e-06	-1.106019e-10	-1.343303e+01	-6.637002e+00
5.200000e-07	-1.957787e-06	-1.232835e-10	-1.306183e+01	-6.472283e+00
5.300000e-07	-1.901618e-06	-8.798272e-11	-1.268709e+01	-6.305240e+00
5.400000e-07	-1.844921e-06	-4.842294e-11	-1.230882e+01	-6.135934e+00
5.500000e-07	-1.787385e-06	-8.739471e-11	-1.192496e+01	-5.964424e+00
5.600000e-07	-1.728885e-06	-1.269118e-10	-1.153466e+01	-5.790774e+00
5.700000e-07	-1.669556e-06	-1.102005e-10	-1.113884e+01	-5.615043e+00
5.800000e-07	-1.609610e-06	-7.239131e-11	-1.073889e+01	-5.437296e+00
5.900000e-07	-1.549290e-06	-6.168471e-11	-1.033645e+01	-5.257596e+00
6.000000e-07	-1.488605e-06	-9.216812e-11	-9.931577e+00	-5.076007e+00
6.100000e-07	-1.427421e-06	-1.031329e-10	-9.523377e+00	-4.892594e+00
6.200000e-07	-1.365677e-06	-8.332114e-11	-9.111436e+00	-4.707423e+00
6.300000e-07	-1.303458e-06	-4.836712e-11	-8.696326e+00	-4.520560e+00
6.400000e-07	-1.240856e-06	-6.127050e-11	-8.278661e+00	-4.332071e+00
6.500000e-07	-1.177827e-06	-9.636216e-11	-7.858146e+00	-4.142025e+00
6.600000e-07	-1.114366e-06	-9.616670e-11	-7.434756e+00	-3.950489e+00
6.700000e-07	-1.050503e-06	-6.013067e-11	-7.008680e+00	-3.757532e+00
6.800000e-07	-9.863241e-07	-4.164648e-11	-6.580493e+00	-3.563222e+00
6.900000e-07	-9.219362e-07	-6.792893e-11	-6.150914e+00	-3.367629e+00
7.000000e-07	-8.573740e-07	-8.334887e-11	-5.720172e+00	-3.170824e+00
7.100000e-07	-7.925189e-07	-6.203016e-11	-5.287476e+00	-2.972876e+00
7.200000e-07	-7.273404e-07	-3.088552e-11	-4.852622e+00	-2.773856e+00
7.300000e-07	-6.618647e-07	-3.935732e-11	-4.415786e+00	-2.573835e+00
7.400000e-07	-5.961010e-07	-6.417672e-11	-3.977027e+00	-2.372886e+00
7.500000e-07	-5.300251e-07	-6.780424e-11	-3.536187e+00	-2.171080e+00
7.600000e-07	-4.634530e-07	-4.481180e-11	-3.092036e+00	-1.968488e+00
7.700000e-07	-3.964525e-07	-3.066855e-11	-2.645026e+00	-1.765185e+00
7.800000e-07	-3.292509e-07	-4.464932e-11	-2.196675e+00	-1.561241e+00
7.900000e-07	-2.620011e-07	-5.618825e-11	-1.748002e+00	-1.356730e+00
8.000000e-07	-1.945905e-07	-4.347049e-11	-1.298256e+00	-1.151726e+00
8.100000e-07	-1.269474e-07	-1.220797e-11	-8.469592e-01	-9.463017e-01
8.200000e-07	-5.928565e-08	-6.807866e-12	-3.955382e-01	-7.405302e-01
8.300000e-07	8.292062e-09	-2.654589e-11	5.532244e-02	-5.344854e-01
8.400000e-07	7.577983e-08	-3.915095e-11	5.055829e-01	-3.282410e-01
8.500000e-07	1.432544e-07	-2.397623e-11	9.557556e-01	-1.218707e-01
8.600000e-07	2.107555e-07	-7.924069e-12	1.406105e+00	8.455166e-02
8.700000e-07	2.781939e-07	-1.460210e-11	1.856036e+00	2.909522e-01
8.800000e-07	3.454399e-07	-2.255269e-11	2.304683e+00	4.972572e-01
8.900000e-07	4.124460e-07	-1.228747e-11	2.751731e+00	7.033928e-01
9.000000e-07	4.793761e-07	1.348718e-11	3.198270e+00	9.092853e-01
9.100000e-07	5.461826e-07	2.240282e-11	3.643985e+00	1.114861e+00
9.200000e-07	6.125151e-07	9.048354e-12	4.086538e+00	1.320047e+00
9.300000e-07	6.782416e-07	-2.745272e-12	4.525048e+00	1.524768e+00
9.400000e-07	7.435938e-07	8.614656e-12	4.961060e+00	1.728953e+00
9.500000e-07	8.086856e-07	2.496039e-11	5.395336e+00	1.932529e+00
9.600000e-07	8.734158e-07	2.543984e-11	5.827199e+00	2.135421e+00
9.700000e-07	9.378437e-07	2.062164e-11	6.257045e+00	2.337558e+00
9.800000e-07	1.002066e-06	2.837106e-11	6.685517e+00	2.538868e+00
9.900000e-07	1.066102e-06	5.098114e-11	7.112749e+00	2.739278e+00
1.000000e-06	1.129940e-06	6.209257e-11	7.538660e+00	2.938716e+00
1.010000e-06	1.193392e-06	5.315469e-11	7.961998e+00	3.137113e+00
1.020000e-06	1.256298e-06	4.164683e-11	8.381690e+00	3.334395e+00
1.030000e-06	1.318764e-06	4.801338e-11	8.798444e+00	3.530494e+00
1.040000e-06	1.380903e-06	6.311437e-11	9.213019e+00	3.725339e+00
1.050000e-06	1.442637e-06	6.678166e-11	9.624891e+00	3.918859e+00
1.060000e-06	1.503802e-06	6.043886e-11	1.003297e+01	4.110987e+00
1.070000e-06	1.564431e-06	6.171967e-11	1.043747e+01	4.301652e+00
1.080000e-06	1.624723e-06	7.773994e-11	1.083972e+01	4.490788e+00
1.090000e-06	1.684729e-06	9.029572e-11	1.124007e+01	4.678326e+00
1.100000e-06	1.744192e-06	8.723583e-11	1.163678e+01	4.864199e+00
1.110000e-06	1.802576e-06	7.981330e-11	1.202631e+01	5.048341e+00
1.120000e-06	1.859762e-06	8.655573e-11	1.240784e+01	5.230686e+00
1.130000e-06	1.916280e-06	1.017428e-10	1.278491e+01	5.411169e+00
1.140000e-06	1.972440e-06	1.050820e-10	1.315960e+01	5.589725e+00
1.150000e-06	2.027985e-06	9.580522e-11	1.353018e+01	5.766290e+00
1.160000e-06	2.082718e-06	9.203170e-11	1.389534e+01	5.940801e+00
1.170000e-06	2.136805e-06	1.034891e-10	1.425619e+01	6.113196e+00
1.180000e-06	2.190249e-06	1.144211e-10	1.461276e+01	6.283414e+00
1.190000e-06	2.242849e-06	1.111084e-10	1.496370e+01	6.451392e+00
1.200000e-06	2.294459e-06	1.022044e-10	1.530802e+01	6.617072e+00
1.210000e-06	2.344817e-06	1.052249e-10	1.564400e+01	6.780393e+00
1.220000e-06	2.393912e-06	1.177785e-10	1.597154e+01	6.941298e+00
1.230000e-06	2.442156e-06	1.217349e-10	1.629342e+01	7.099729e+00
1.240000e-06	2.489681e-06	1.119880e-10	1.661049e+01	7.255630e+00
1.250000e-06	2.536396e-06	1.037884e-10	1.692216e+01	7.408944e+00
1.260000e-06	2.582200e-06	1.104610e-10	1.722775e+01	7.559616e+00
1.270000e-06	2.627089e-06	1.207665e-10	1.752724e+01	7.707593e+00
1.280000e-06	2.671304e-06	1.224136e-10	1.782223e+01	7.852823e+00
1.290000e-06	2.714767e-06	1.173180e-10	1.811221e+01	7.995252e+00
1.300000e-06	2.756921e-06	1.196652e-10	1.839344e+01	8.134830e+00
1.310000e-06	2.797765e-06	1.304237e-10	1.866595e+01	8.271507e+00
1.320000e-06	2.837706e-06	1.368464e-10	1.893242e+01	8.405235e+00
1.330000e-06	2.876786e-06	1.312146e-10	1.919315e+01	8.535965e+00
1.340000e-06	2.914936e-06	1.241374e-10	1.944768e+01	8.663650e+00
1.350000e-06	2.952127e-06	1.276868e-10	1.969581e+01	8.788246e+00
1.360000e-06	2.988442e-06	1.350239e-10	1.993809e+01	8.909707e+00
1.370000e-06	3.023667e-06	1.366963e-10	2.017311e+01	9.027990e+00
1.380000e-06	3.057515e-06	1.322823e-10	2.039893e+01	9.143052e+00
1.390000e-06	3.090211e-06	1.329447e-10	2.061707e+01	9.254853e+00
1.400000e-06	3.121939e-06	1.403207e-10	2.082875e+01	9.363353e+00
1.410000e-06	3.152658e-06	1.463656e-10	2.103370e+01	9.468513e+00
1.420000e-06	3.182318e-06	1.451019e-10	2.123158e+01	9.570294e+00
1.430000e-06	3.211038e-06	1.410924e-10	2.142320e+01	9.668662e+00
1.440000e-06	3.238860e-06	1.441000e-10	2.160882e+01	9.763580e+00
1.450000e-06	3.265287e-06	1.515780e-10	2.178513e+01	9.855014e+00
1.460000e-06	3.290221e-06	1.542842e-10	2.195148e+01	9.942933e+00
1.470000e-06	3.314022e-06	1.497487e-10	2.211028e+01	1.002730e+01
1.480000e-06	3.336754e-06	1.454685e-10	2.226194e+01	1.010810e+01
1.490000e-06	3.358360e-06	1.462917e-10	2.240609e+01	1.018528e+01
1.500000e-06	3.378980e-06	1.490578e-10	2.254366e+01	1.025884e+01
1.510000e-06	3.398533e-06	1.482994e-10	2.267411e+01	1.032873e+01
1.520000e-06	3.416780e-06	1.463508e-10	2.279585e+01	1.039494e+01
1.530000e-06	3.433753e-06	1.500400e-10	2.290909e+01	1.045743e+01
1.540000e-06	3.449428e-06	1.580630e-10	2.301367e+01	1.051620e+01
1.550000e-06	3.463822e-06	1.626628e-10	2.310970e+01	1.057121e+01
1.560000e-06	3.477030e-06	1.593344e-10	2.319782e+01	1.062245e+01
1.570000e-06	3.488910e-06	1.539058e-10	2.327708e+01	1.066991e+01
1.580000e-06	3.499161e-06	1.536625e-10	2.334547e+01	1.071355e+01
1.590000e-06	3.507967e-06	1.571129e-10	2.340423e+01	1.075337e+01
1.600000e-06	3.515655e-06	1.589635e-10	2.345552e+01	1.078935e+01
1.610000e-06	3.522153e-06	1.582700e-10	2.349887e+01	1.082149e+01
1.620000e-06	3.527499e-06	1.597879e-10	2.353454e+01	1.084976e+01
1.630000e-06	3.531827e-06	1.648096e-10	2.356342e+01	1.087416e+01
1.640000e-06	3.534813e-06	1.707868e-10	2.358334e+01	1.089468e+01
1.650000e-06	3.536261e-06	1.700790e-10	2.359299e+01	1.091131e+01
1.660000e-06	3.536532e-06	1.645911e-10	2.359480e+01	1.092405e+01
1.670000e-06	3.535704e-06	1.585439e-10	2.358928e+01	1.093289e+01
1.680000e-06	3.533689e-06	1.565019e-10	2.357583e+01	1.093782e+01
1.690000e-06	3.530667e-06	1.577149e-10	2.355567e+01	1.093886e+01
1.700000e-06	3.526682e-06	1.590172e-10	2.352909e+01	1.093599e+01
1.710000e-06	3.521363e-06	1.607901e-10	2.349360e+01	1.092922e+01
1.720000e-06	3.514642e-06	1.668173e-10	2.344876e+01	1.091855e+01
1.730000e-06	3.506908e-06	1.939387e-10	2.339716e+01	1.090398e+01
1.740000e-06	3.498247e-06	1.904185e-10	2.333937e+01	1.088552e+01
1.750000e-06	3.488373e-06	8.892617e-11	2.327350e+01	1.086318e+01
1.760000e-06	3.476477e-06	7.104497e-11	2.319413e+01	1.083696e+01
1.770000e-06	3.462227e-06	1.818333e-10	2.309906e+01	1.080688e+01
1.780000e-06	3.446759e-06	3.111908e-10	2.299586e+01	1.077293e+01
1.790000e-06	3.431148e-06	1.509867e-10	2.289171e+01	1.073515e+01
1.800000e-06	3.414931e-06	-5.933551e-11	2.278351e+01	1.069353e+01
1.810000e-06	3.397029e-06	2.876361e-10	2.266407e+01	1.064810e+01
1.820000e-06	3.377909e-06	2.505495e-10	2.253651e+01	1.059887e+01
1.830000e-06	3.358337e-06	-2.719870e-11	2.240593e+01	1.054585e+01
1.840000e-06	3.337252e-06	2.832636e-10	2.226526e+01	1.048908e+01
1.850000e-06	3.314329e-06	2.548616e-10	2.211233e+01	1.042856e+01
1.860000e-06	3.290579e-06	-6.853499e-11	2.195387e+01	1.036432e+01
1.870000e-06	3.265809e-06	2.502860e-10	2.178861e+01	1.029638e+01
1.880000e-06	3.239671e-06	3.777313e-10	2.161422e+01	1.022477e+01
1.890000e-06	3.212530e-06	-1.165334e-11	2.143315e+01	1.014951e+01
1.900000e-06	3.184156e-06	1.074677e-10	2.124385e+01	1.007063e+01
1.910000e-06	3.154382e-06	2.394181e-10	2.104520e+01	9.988155e+00
1.920000e-06	3.123504e-06	1.072483e-10	2.083919e+01	9.902119e+00
1.930000e-06	3.091400e-06	2.221131e-10	2.062500e+01	9.812550e+00
1.940000e-06	3.058297e-06	1.006869e-10	2.040415e+01	9.719481e+00
1.950000e-06	3.024399e-06	2.316078e-11	2.017799e+01	9.622944e+00
1.960000e-06	2.989530e-06	2.873675e-10	1.994535e+01	9.522975e+00
1.970000e-06	2.953864e-06	1.187368e-10	1.970740e+01	9.419609e+00
1.980000e-06	2.917004e-06	4.182255e-11	1.946148e+01	9.312884e+00
1.990000e-06	2.878571e-06	1.770462e-10	1.920507e+01	9.202836e+00
2.000000e-06	2.839131e-06	6.128572e-11	1.894193e+01	9.089507e+00
2.010000e-06	2.798820e-06	1.601903e-10	1.867298e+01	8.972935e+00
2.020000e-06	2.757567e-06	2.098622e-10	1.839776e+01	8.853164e+00
2.030000e-06	2.715431e-06	5.892390e-11	1.811663e+01	8.730235e+00
2.040000e-06	2.672395e-06	9.513485e-11	1.782951e+01	8.604193e+00
2.050000e-06	2.628734e-06	1.383259e-10	1.753822e+01	8.475083e+00
2.060000e-06	2.584159e-06	1.441120e-10	1.724082e+01	8.342952e+00
2.070000e-06	2.538349e-06	1.131557e-10	1.693519e+01	8.207845e+00
2.080000e-06	2.491727e-06	4.068951e-11	1.662414e+01	8.069812e+00
2.090000e-06	2.444218e-06	1.127778e-10	1.630718e+01	7.928903e+00
2.100000e-06	2.395646e-06	1.385410e-10	1.598312e+01	7.785166e+00
2.110000e-06	2.346181e-06	1.292550e-10	1.565310e+01	7.638655e+00
2.120000e-06	2.295845e-06	1.105579e-10	1.531727e+01	7.489421e+00
2.130000e-06	2.244788e-06	5.370284e-11	1.497663e+01	7.337517e+00
2.140000e-06	2.192894e-06	1.306498e-10	1.463041e+01	7.182999e+00
2.150000e-06	2.139822e-06	1.341366e-10	1.427633e+01	7.025921e+00
2.160000e-06	2.085618e-06	9.519782e-11	1.391469e+01	6.866340e+00
2.170000e-06	2.030639e-06	7.942465e-11	1.354788e+01	6.704312e+00
2.180000e-06	1.975084e-06	6.329291e-11	1.317724e+01	6.539895e+00
2.190000e-06	1.918855e-06	1.362721e-10	1.280209e+01	6.373150e+00
2.200000e-06	1.861949e-06	1.221853e-10	1.242243e+01	6.204134e+00
2.210000e-06	1.804497e-06	7.269943e-11	1.203912e+01	6.032908e+00
2.220000e-06	1.746339e-06	7.800352e-11	1.165111e+01	5.859535e+00
2.230000e-06	1.687527e-06	9.018437e-11	1.125873e+01	5.684075e+00
2.240000e-06	1.628334e-06	1.210897e-10	1.086382e+01	5.506592e+00
2.250000e-06	1.568824e-06	9.875416e-11	1.046678e+01	5.327149e+00
2.260000e-06	1.508729e-06	6.387410e-11	1.006584e+01	5.145810e+00
2.270000e-06	1.447841e-06	7.202288e-11	9.659608e+00	4.962640e+00
2.280000e-06	1.386161e-06	8.659153e-11	9.248099e+00	4.777705e+00
2.290000e-06	1.323714e-06	1.068497e-10	8.831468e+00	4.591071e+00
2.300000e-06	1.260772e-06	7.135341e-11	8.411536e+00	4.402804e+00
2.310000e-06	1.197569e-06	4.265054e-11	7.989865e+00	4.212972e+00
2.320000e-06	1.134129e-06	7.222191e-11	7.566611e+00	4.021643e+00
2.330000e-06	1.070317e-06	9.421986e-11	7.140872e+00	3.828886e+00
2.340000e-06	1.006047e-06	9.089583e-11	6.712081e+00	3.634768e+00
2.350000e-06	9.413882e-07	4.986317e-11	6.280692e+00	3.439360e+00
2.360000e-06	8.764633e-07	4.543768e-11	5.847531e+00	3.242732e+00
2.370000e-06	8.112918e-07	7.083934e-11	5.412724e+00	3.044954e+00
2.380000e-06	7.458410e-07	6.894287e-11	4.976053e+00	2.846097e+00
2.390000e-06	6.801941e-07	4.852118e-11	4.538074e+00	2.646231e+00
2.400000e-06	6.143159e-07	2.713554e-11	4.098553e+00	2.445428e+00
2.410000e-06	5.481092e-07	4.211700e-11	3.656839e+00	2.243761e+00
2.420000e-06	4.816617e-07	6.351772e-11	3.213519e+00	2.041301e+00
2.430000e-06	4.150349e-07	6.064180e-11	2.769003e+00	1.838121e+00
2.440000e-06	3.483228e-07	3.631335e-11	2.323917e+00	1.634293e+00
2.450000e-06	2.815782e-07	2.049543e-11	1.878615e+00	1.429891e+00
2.460000e-06	2.147001e-07	3.226679e-11	1.432422e+00	1.224987e+00
2.470000e-06	1.477079e-07	3.970987e-11	9.854680e-01	1.019655e+00
2.480000e-06	8.073001e-08	2.361461e-11	5.386092e-01	8.139675e-01
2.490000e-06	1.376452e-08	6.287531e-13	9.183320e-02	6.079993e-01
2.500000e-06	-5.322092e-08	2.015460e-12	-3.550758e-01	4.018235e-01
2.510000e-06	-1.201659e-07	2.120162e-11	-8.017151e-01	1.955140e-01
2.520000e-06	-1.870815e-07	2.486749e-11	-1.248158e+00	-1.085548e-02
2.530000e-06	-2.539219e-07	5.166786e-12	-1.694100e+00	-2.172111e-01
2.540000e-06	-3.206974e-07	-8.369741e-12	-2.139608e+00	-4.234791e-01
2.550000e-06	-3.873647e-07	-3.932724e-12	-2.584395e+00	-6.295855e-01
2.560000e-06	-4.538543e-07	1.579206e-12	-3.027996e+00	-8.354568e-01
2.570000e-06	-5.201064e-07	-1.141372e-11	-3.470012e+00	-1.041019e+00
2.580000e-06	-5.861421e-07	-3.344985e-11	-3.910585e+00	-1.246199e+00
2.590000e-06	-6.519865e-07	-3.533462e-11	-4.349881e+00	-1.450923e+00
2.600000e-06	-7.175621e-07	-2.265821e-11	-4.787384e+00	-1.655119e+00
2.610000e-06	-7.829134e-07	-2.069377e-11	-5.223390e+00	-1.858712e+00
2.620000e-06	-8.480094e-07	-3.684273e-11	-5.657693e+00	-2.061630e+00
2.630000e-06	-9.128480e-07	-4.910407e-11	-6.090279e+00	-2.263801e+00
2.640000e-06	-9.772980e-07	-4.566352e-11	-6.520273e+00	-2.465152e+00
2.650000e-06	-1.041284e-06	-3.795590e-11	-6.947174e+00	-2.665611e+00
2.660000e-06	-1.104962e-06	-4.534632e-11	-7.372016e+00	-2.865106e+00
2.670000e-06	-1.168383e-06	-6.208530e-11	-7.795142e+00	-3.063567e+00
2.680000e-06	-1.231549e-06	-6.861674e-11	-8.216565e+00	-3.260921e+00
2.690000e-06	-1.294381e-06	-6.332383e-11	-8.635766e+00	-3.457099e+00
2.700000e-06	-1.356729e-06	-6.040850e-11	-9.051734e+00	-3.652031e+00
2.710000e-06	-1.418438e-06	-7.140234e-11	-9.463444e+00	-3.845646e+00
2.720000e-06	-1.479379e-06	-8.159199e-11	-9.870022e+00	-4.037875e+00
2.730000e-06	-1.539539e-06	-7.874497e-11	-1.027140e+01	-4.228650e+00
2.740000e-06	-1.599103e-06	-6.942149e-11	-1.066879e+01	-4.417902e+00
2.750000e-06	-1.658279e-06	-7.357199e-11	-1.106360e+01	-4.605563e+00
2.760000e-06	-1.717037e-06	-8.940969e-11	-1.145562e+01	-4.791567e+00
2.770000e-06	-1.775187e-06	-9.699689e-11	-1.184358e+01	-4.975847e+00
2.780000e-06	-1.832681e-06	-9.304727e-11	-1.222716e+01	-5.158337e+00
2.790000e-06	-1.889559e-06	-9.084998e-11	-1.260664e+01	-5.338972e+00
2.800000e-06	-1.945730e-06	-9.959700e-11	-1.298140e+01	-5.517686e+00
2.810000e-06	-2.001274e-06	-1.076036e-10	-1.335197e+01	-5.694417e+00
2.820000e-06	-2.056351e-06	-1.058557e-10	-1.371943e+01	-5.869101e+00
2.830000e-06	-2.110614e-06	-9.698458e-11	-1.408146e+01	-6.041675e+00
2.840000e-06	-2.163634e-06	-9.577589e-11	-1.443519e+01	-6.212077e+00
2.850000e-06	-2.215542e-06	-1.063945e-10	-1.478151e+01	-6.380248e+00
2.860000e-06	-2.266708e-06	-1.146656e-10	-1.512287e+01	-6.546126e+00
2.870000e-06	-2.317065e-06	-1.121429e-10	-1.545885e+01	-6.709652e+00
2.880000e-06	-2.366543e-06	-1.085213e-10	-1.578895e+01	-6.870768e+00
2.890000e-06	-2.415077e-06	-1.150553e-10	-1.611275e+01	-7.029416e+00
2.900000e-06	-2.462379e-06	-1.236524e-10	-1.642834e+01	-7.185539e+00
2.910000e-06	-2.508619e-06	-1.237873e-10	-1.673684e+01	-7.339082e+00
2.920000e-06	-2.554090e-06	-1.161183e-10	-1.704021e+01	-7.489989e+00
2.930000e-06	-2.598735e-06	-1.132381e-10	-1.733807e+01	-7.638207e+00
2.940000e-06	-2.642566e-06	-1.195519e-10	-1.763050e+01	-7.783683e+00
