# Temperatura_=_20.0
# Concentracion g/m^3_=_10000.0
# C_Vs_to_Am_M_A/Vsm_=_65563218390.804596
# pendiente_HvsI_1/m_=_3716.3
# ordenada_HvsI_A/m_=_1297.0
# frecuencia_Hz_=_81140.74900029699

Tiempo_(s)	Campo_(V.s)	Magnetizacion_(V.s)	Campo_(kA/m)	Magnetizacion_(A/m)
0.000000e+00	-2.074852e-06	-4.484363e-09	-1.577410e+01	-2.914461e+02
1.000000e-08	-2.074876e-06	-4.410781e-09	-1.577429e+01	-2.915742e+02
2.000000e-08	-2.074897e-06	-4.361975e-09	-1.577444e+01	-2.917035e+02
3.000000e-08	-2.074838e-06	-4.394194e-09	-1.577399e+01	-2.918351e+02
4.000000e-08	-2.074686e-06	-4.495453e-09	-1.577284e+01	-2.919697e+02
5.000000e-08	-2.074450e-06	-4.517938e-09	-1.577104e+01	-2.921080e+02
6.000000e-08	-2.074125e-06	-4.497126e-09	-1.576857e+01	-2.922501e+02
7.000000e-08	-2.073760e-06	-4.485633e-09	-1.576580e+01	-2.923960e+02
8.000000e-08	-2.073344e-06	-4.452022e-09	-1.576264e+01	-2.925452e+02
9.000000e-08	-2.072907e-06	-4.411817e-09	-1.575931e+01	-2.926970e+02
1.000000e-07	-2.072456e-06	-4.384272e-09	-1.575589e+01	-2.928500e+02
1.100000e-07	-2.071941e-06	-4.432944e-09	-1.575197e+01	-2.930029e+02
1.200000e-07	-2.071351e-06	-4.491456e-09	-1.574748e+01	-2.931537e+02
1.300000e-07	-2.070690e-06	-4.539212e-09	-1.574246e+01	-2.933003e+02
1.400000e-07	-2.070001e-06	-4.542354e-09	-1.573722e+01	-2.934405e+02
1.500000e-07	-2.069254e-06	-4.483918e-09	-1.573154e+01	-2.935718e+02
1.600000e-07	-2.068431e-06	-4.444718e-09	-1.572528e+01	-2.936918e+02
1.700000e-07	-2.067554e-06	-4.423748e-09	-1.571862e+01	-2.937981e+02
1.800000e-07	-2.066645e-06	-4.454565e-09	-1.571171e+01	-2.938884e+02
1.900000e-07	-2.065710e-06	-4.477455e-09	-1.570460e+01	-2.939607e+02
2.000000e-07	-2.064680e-06	-4.491655e-09	-1.569676e+01	-2.940131e+02
2.100000e-07	-2.063580e-06	-4.503422e-09	-1.568841e+01	-2.940443e+02
2.200000e-07	-2.062432e-06	-4.483573e-09	-1.567968e+01	-2.940531e+02
2.300000e-07	-2.061234e-06	-4.473167e-09	-1.567057e+01	-2.940388e+02
2.400000e-07	-2.059987e-06	-4.456453e-09	-1.566108e+01	-2.940014e+02
2.500000e-07	-2.058664e-06	-4.467827e-09	-1.565103e+01	-2.939408e+02
2.600000e-07	-2.057273e-06	-4.475682e-09	-1.564046e+01	-2.938577e+02
2.700000e-07	-2.055808e-06	-4.476829e-09	-1.562932e+01	-2.937530e+02
2.800000e-07	-2.054302e-06	-4.478473e-09	-1.561787e+01	-2.936280e+02
2.900000e-07	-2.052733e-06	-4.456487e-09	-1.560594e+01	-2.934842e+02
3.000000e-07	-2.051107e-06	-4.444256e-09	-1.559357e+01	-2.933231e+02
3.100000e-07	-2.049430e-06	-4.429785e-09	-1.558083e+01	-2.931465e+02
3.200000e-07	-2.047661e-06	-4.442910e-09	-1.556738e+01	-2.929561e+02
3.300000e-07	-2.045847e-06	-4.461006e-09	-1.555359e+01	-2.927537e+02
3.400000e-07	-2.043999e-06	-4.465135e-09	-1.553954e+01	-2.925408e+02
3.500000e-07	-2.042095e-06	-4.459743e-09	-1.552506e+01	-2.923187e+02
3.600000e-07	-2.040137e-06	-4.434134e-09	-1.551018e+01	-2.920886e+02
3.700000e-07	-2.038136e-06	-4.427178e-09	-1.549496e+01	-2.918514e+02
3.800000e-07	-2.036082e-06	-4.420270e-09	-1.547935e+01	-2.916077e+02
3.900000e-07	-2.033973e-06	-4.422921e-09	-1.546331e+01	-2.913578e+02
4.000000e-07	-2.031838e-06	-4.424783e-09	-1.544708e+01	-2.911019e+02
4.100000e-07	-2.029657e-06	-4.422170e-09	-1.543050e+01	-2.908397e+02
4.200000e-07	-2.027418e-06	-4.426366e-09	-1.541348e+01	-2.905711e+02
4.300000e-07	-2.025120e-06	-4.413475e-09	-1.539601e+01	-2.902956e+02
4.400000e-07	-2.022776e-06	-4.401128e-09	-1.537819e+01	-2.900127e+02
4.500000e-07	-2.020397e-06	-4.383612e-09	-1.536010e+01	-2.897220e+02
4.600000e-07	-2.017951e-06	-4.382300e-09	-1.534151e+01	-2.894230e+02
4.700000e-07	-2.015457e-06	-4.383984e-09	-1.532255e+01	-2.891154e+02
4.800000e-07	-2.012931e-06	-4.370676e-09	-1.530335e+01	-2.887992e+02
4.900000e-07	-2.010364e-06	-4.361188e-09	-1.528383e+01	-2.884745e+02
5.000000e-07	-2.007734e-06	-4.355562e-09	-1.526384e+01	-2.881414e+02
5.100000e-07	-2.005017e-06	-4.364568e-09	-1.524317e+01	-2.878007e+02
5.200000e-07	-2.002217e-06	-4.362844e-09	-1.522189e+01	-2.874531e+02
5.300000e-07	-1.999357e-06	-4.357185e-09	-1.520015e+01	-2.870997e+02
5.400000e-07	-1.996460e-06	-4.350520e-09	-1.517812e+01	-2.867417e+02
5.500000e-07	-1.993528e-06	-4.337935e-09	-1.515583e+01	-2.863806e+02
5.600000e-07	-1.990549e-06	-4.326472e-09	-1.513318e+01	-2.860178e+02
5.700000e-07	-1.987514e-06	-4.308444e-09	-1.511011e+01	-2.856550e+02
5.800000e-07	-1.984441e-06	-4.304861e-09	-1.508675e+01	-2.852938e+02
5.900000e-07	-1.981318e-06	-4.305460e-09	-1.506301e+01	-2.849356e+02
6.000000e-07	-1.978132e-06	-4.306552e-09	-1.503878e+01	-2.845818e+02
6.100000e-07	-1.974905e-06	-4.299822e-09	-1.501425e+01	-2.842337e+02
6.200000e-07	-1.971632e-06	-4.284927e-09	-1.498937e+01	-2.838924e+02
6.300000e-07	-1.968317e-06	-4.278909e-09	-1.496416e+01	-2.835584e+02
6.400000e-07	-1.964974e-06	-4.270587e-09	-1.493875e+01	-2.832325e+02
6.500000e-07	-1.961583e-06	-4.269888e-09	-1.491297e+01	-2.829146e+02
6.600000e-07	-1.958121e-06	-4.268217e-09	-1.488665e+01	-2.826048e+02
6.700000e-07	-1.954568e-06	-4.266056e-09	-1.485963e+01	-2.823026e+02
6.800000e-07	-1.950939e-06	-4.262875e-09	-1.483205e+01	-2.820074e+02
6.900000e-07	-1.947269e-06	-4.252930e-09	-1.480415e+01	-2.817182e+02
7.000000e-07	-1.943564e-06	-4.248187e-09	-1.477598e+01	-2.814340e+02
7.100000e-07	-1.939828e-06	-4.243467e-09	-1.474758e+01	-2.811535e+02
7.200000e-07	-1.936049e-06	-4.243722e-09	-1.471885e+01	-2.808754e+02
7.300000e-07	-1.932207e-06	-4.240806e-09	-1.468964e+01	-2.805981e+02
7.400000e-07	-1.928306e-06	-4.237942e-09	-1.465998e+01	-2.803202e+02
7.500000e-07	-1.924370e-06	-4.236758e-09	-1.463006e+01	-2.800400e+02
7.600000e-07	-1.920387e-06	-4.229850e-09	-1.459978e+01	-2.797562e+02
7.700000e-07	-1.916354e-06	-4.221819e-09	-1.456912e+01	-2.794671e+02
7.800000e-07	-1.912277e-06	-4.208595e-09	-1.453812e+01	-2.791716e+02
7.900000e-07	-1.908162e-06	-4.200990e-09	-1.450683e+01	-2.788681e+02
8.000000e-07	-1.904008e-06	-4.192704e-09	-1.447526e+01	-2.785555e+02
8.100000e-07	-1.899792e-06	-4.186935e-09	-1.444320e+01	-2.782327e+02
8.200000e-07	-1.895519e-06	-4.187998e-09	-1.441072e+01	-2.778985e+02
8.300000e-07	-1.891191e-06	-4.187723e-09	-1.437781e+01	-2.775521e+02
8.400000e-07	-1.886790e-06	-4.187639e-09	-1.434435e+01	-2.771924e+02
8.500000e-07	-1.882336e-06	-4.178287e-09	-1.431049e+01	-2.768188e+02
8.600000e-07	-1.877836e-06	-4.166317e-09	-1.427628e+01	-2.764305e+02
8.700000e-07	-1.873305e-06	-4.153726e-09	-1.424183e+01	-2.760269e+02
8.800000e-07	-1.868725e-06	-4.142336e-09	-1.420701e+01	-2.756074e+02
8.900000e-07	-1.864091e-06	-4.134542e-09	-1.417179e+01	-2.751717e+02
9.000000e-07	-1.859412e-06	-4.125128e-09	-1.413621e+01	-2.747193e+02
9.100000e-07	-1.854687e-06	-4.116287e-09	-1.410029e+01	-2.742502e+02
9.200000e-07	-1.849917e-06	-4.107048e-09	-1.406403e+01	-2.737644e+02
9.300000e-07	-1.845090e-06	-4.101413e-09	-1.402733e+01	-2.732620e+02
9.400000e-07	-1.840216e-06	-4.094298e-09	-1.399027e+01	-2.727433e+02
9.500000e-07	-1.835300e-06	-4.085307e-09	-1.395290e+01	-2.722089e+02
9.600000e-07	-1.830346e-06	-4.075867e-09	-1.391524e+01	-2.716597e+02
9.700000e-07	-1.825341e-06	-4.063370e-09	-1.387718e+01	-2.710965e+02
9.800000e-07	-1.820268e-06	-4.053265e-09	-1.383862e+01	-2.705205e+02
9.900000e-07	-1.815124e-06	-4.040931e-09	-1.379952e+01	-2.699333e+02
1.000000e-06	-1.809911e-06	-4.027247e-09	-1.375988e+01	-2.693362e+02
1.010000e-06	-1.804640e-06	-4.015856e-09	-1.371980e+01	-2.687310e+02
1.020000e-06	-1.799312e-06	-4.006725e-09	-1.367930e+01	-2.681194e+02
1.030000e-06	-1.793952e-06	-4.002396e-09	-1.363855e+01	-2.675034e+02
1.040000e-06	-1.788551e-06	-3.997849e-09	-1.359749e+01	-2.668848e+02
1.050000e-06	-1.783079e-06	-3.991468e-09	-1.355589e+01	-2.662654e+02
1.060000e-06	-1.777557e-06	-3.980558e-09	-1.351391e+01	-2.656468e+02
1.070000e-06	-1.772002e-06	-3.966356e-09	-1.347168e+01	-2.650307e+02
1.080000e-06	-1.766411e-06	-3.951407e-09	-1.342917e+01	-2.644183e+02
1.090000e-06	-1.760786e-06	-3.937941e-09	-1.338641e+01	-2.638108e+02
1.100000e-06	-1.755123e-06	-3.929370e-09	-1.334335e+01	-2.632090e+02
1.110000e-06	-1.749416e-06	-3.918601e-09	-1.329997e+01	-2.626134e+02
1.120000e-06	-1.743676e-06	-3.908005e-09	-1.325633e+01	-2.620243e+02
1.130000e-06	-1.737892e-06	-3.899182e-09	-1.321235e+01	-2.614416e+02
1.140000e-06	-1.732038e-06	-3.892617e-09	-1.316785e+01	-2.608650e+02
1.150000e-06	-1.726126e-06	-3.885943e-09	-1.312290e+01	-2.602940e+02
1.160000e-06	-1.720151e-06	-3.875479e-09	-1.307748e+01	-2.597276e+02
1.170000e-06	-1.714110e-06	-3.863791e-09	-1.303155e+01	-2.591652e+02
1.180000e-06	-1.708027e-06	-3.852235e-09	-1.298531e+01	-2.586055e+02
1.190000e-06	-1.701913e-06	-3.843956e-09	-1.293882e+01	-2.580477e+02
1.200000e-06	-1.695769e-06	-3.837366e-09	-1.289212e+01	-2.574906e+02
1.210000e-06	-1.689577e-06	-3.829422e-09	-1.284504e+01	-2.569333e+02
1.220000e-06	-1.683345e-06	-3.822920e-09	-1.279766e+01	-2.563749e+02
1.230000e-06	-1.677078e-06	-3.816132e-09	-1.275002e+01	-2.558149e+02
1.240000e-06	-1.670778e-06	-3.805673e-09	-1.270212e+01	-2.552528e+02
1.250000e-06	-1.664435e-06	-3.794042e-09	-1.265390e+01	-2.546883e+02
1.260000e-06	-1.658032e-06	-3.783656e-09	-1.260522e+01	-2.541213e+02
1.270000e-06	-1.651587e-06	-3.772842e-09	-1.255622e+01	-2.535522e+02
1.280000e-06	-1.645118e-06	-3.762910e-09	-1.250704e+01	-2.529813e+02
1.290000e-06	-1.638617e-06	-3.757377e-09	-1.245762e+01	-2.524091e+02
1.300000e-06	-1.632080e-06	-3.753947e-09	-1.240792e+01	-2.518362e+02
1.310000e-06	-1.625502e-06	-3.749244e-09	-1.235790e+01	-2.512634e+02
1.320000e-06	-1.618870e-06	-3.739869e-09	-1.230749e+01	-2.506914e+02
1.330000e-06	-1.612182e-06	-3.727598e-09	-1.225664e+01	-2.501208e+02
1.340000e-06	-1.605442e-06	-3.717743e-09	-1.220540e+01	-2.495522e+02
1.350000e-06	-1.598642e-06	-3.709659e-09	-1.215371e+01	-2.489861e+02
1.360000e-06	-1.591802e-06	-3.701767e-09	-1.210171e+01	-2.484225e+02
1.370000e-06	-1.584936e-06	-3.692300e-09	-1.204951e+01	-2.478615e+02
1.380000e-06	-1.578032e-06	-3.682218e-09	-1.199701e+01	-2.473028e+02
1.390000e-06	-1.571100e-06	-3.673751e-09	-1.194432e+01	-2.467459e+02
1.400000e-06	-1.564140e-06	-3.663392e-09	-1.189140e+01	-2.461901e+02
1.410000e-06	-1.557141e-06	-3.650830e-09	-1.183819e+01	-2.456342e+02
1.420000e-06	-1.550099e-06	-3.641183e-09	-1.178465e+01	-2.450772e+02
1.430000e-06	-1.543012e-06	-3.636525e-09	-1.173078e+01	-2.445177e+02
1.440000e-06	-1.535884e-06	-3.635157e-09	-1.167658e+01	-2.439543e+02
1.450000e-06	-1.528726e-06	-3.629932e-09	-1.162216e+01	-2.433855e+02
1.460000e-06	-1.521527e-06	-3.617526e-09	-1.156743e+01	-2.428098e+02
1.470000e-06	-1.514279e-06	-3.602436e-09	-1.151233e+01	-2.422259e+02
1.480000e-06	-1.506994e-06	-3.589998e-09	-1.145695e+01	-2.416325e+02
1.490000e-06	-1.499685e-06	-3.580558e-09	-1.140138e+01	-2.410285e+02
1.500000e-06	-1.492356e-06	-3.570477e-09	-1.134566e+01	-2.404130e+02
1.510000e-06	-1.484989e-06	-3.560179e-09	-1.128965e+01	-2.397853e+02
1.520000e-06	-1.477572e-06	-3.554348e-09	-1.123327e+01	-2.391451e+02
1.530000e-06	-1.470114e-06	-3.547709e-09	-1.117657e+01	-2.384921e+02
1.540000e-06	-1.462597e-06	-3.536502e-09	-1.111942e+01	-2.378263e+02
1.550000e-06	-1.455022e-06	-3.522174e-09	-1.106183e+01	-2.371481e+02
1.560000e-06	-1.447397e-06	-3.508855e-09	-1.100386e+01	-2.364578e+02
1.570000e-06	-1.439727e-06	-3.501150e-09	-1.094555e+01	-2.357560e+02
1.580000e-06	-1.432020e-06	-3.490219e-09	-1.088696e+01	-2.350432e+02
1.590000e-06	-1.424275e-06	-3.478023e-09	-1.082808e+01	-2.343202e+02
1.600000e-06	-1.416503e-06	-3.468942e-09	-1.076899e+01	-2.335875e+02
1.610000e-06	-1.408699e-06	-3.459278e-09	-1.070966e+01	-2.328457e+02
1.620000e-06	-1.400851e-06	-3.447536e-09	-1.064999e+01	-2.320953e+02
1.630000e-06	-1.392965e-06	-3.435696e-09	-1.059004e+01	-2.313367e+02
1.640000e-06	-1.385041e-06	-3.423383e-09	-1.052980e+01	-2.305702e+02
1.650000e-06	-1.377062e-06	-3.412310e-09	-1.046914e+01	-2.297958e+02
1.660000e-06	-1.369044e-06	-3.401872e-09	-1.040818e+01	-2.290136e+02
1.670000e-06	-1.360971e-06	-3.386609e-09	-1.034681e+01	-2.282233e+02
1.680000e-06	-1.352844e-06	-3.368646e-09	-1.028502e+01	-2.274248e+02
1.690000e-06	-1.344683e-06	-3.350693e-09	-1.022298e+01	-2.266179e+02
1.700000e-06	-1.336491e-06	-3.333430e-09	-1.016070e+01	-2.258023e+02
1.710000e-06	-1.328276e-06	-3.317444e-09	-1.009824e+01	-2.249777e+02
1.720000e-06	-1.320036e-06	-3.300826e-09	-1.003560e+01	-2.241440e+02
1.730000e-06	-1.311773e-06	-3.286628e-09	-9.972778e+00	-2.233013e+02
1.740000e-06	-1.303472e-06	-3.279762e-09	-9.909668e+00	-2.224495e+02
1.750000e-06	-1.295139e-06	-3.275502e-09	-9.846315e+00	-2.215891e+02
1.760000e-06	-1.286791e-06	-3.268994e-09	-9.782854e+00	-2.207206e+02
1.770000e-06	-1.278412e-06	-3.256119e-09	-9.719150e+00	-2.198447e+02
1.780000e-06	-1.269982e-06	-3.240029e-09	-9.655061e+00	-2.189622e+02
1.790000e-06	-1.261521e-06	-3.223241e-09	-9.590733e+00	-2.180743e+02
1.800000e-06	-1.253042e-06	-3.203109e-09	-9.526276e+00	-2.171821e+02
1.810000e-06	-1.244542e-06	-3.184807e-09	-9.461653e+00	-2.162869e+02
1.820000e-06	-1.236015e-06	-3.169516e-09	-9.396829e+00	-2.153901e+02
1.830000e-06	-1.227468e-06	-3.158718e-09	-9.331849e+00	-2.144930e+02
1.840000e-06	-1.218890e-06	-3.150424e-09	-9.266636e+00	-2.135968e+02
1.850000e-06	-1.210273e-06	-3.139832e-09	-9.201119e+00	-2.127027e+02
1.860000e-06	-1.201628e-06	-3.125964e-09	-9.135395e+00	-2.118114e+02
1.870000e-06	-1.192959e-06	-3.112772e-09	-9.069491e+00	-2.109237e+02
1.880000e-06	-1.184254e-06	-3.099936e-09	-9.003313e+00	-2.100400e+02
1.890000e-06	-1.175513e-06	-3.082218e-09	-8.936861e+00	-2.091605e+02
1.900000e-06	-1.166749e-06	-3.064682e-09	-8.870232e+00	-2.082847e+02
1.910000e-06	-1.157964e-06	-3.051113e-09	-8.803443e+00	-2.074124e+02
1.920000e-06	-1.149143e-06	-3.041605e-09	-8.736377e+00	-2.065426e+02
1.930000e-06	-1.140289e-06	-3.034164e-09	-8.669071e+00	-2.056744e+02
1.940000e-06	-1.131417e-06	-3.022955e-09	-8.601622e+00	-2.048063e+02
1.950000e-06	-1.122524e-06	-3.011488e-09	-8.534012e+00	-2.039371e+02
1.960000e-06	-1.113617e-06	-3.001551e-09	-8.466295e+00	-2.030651e+02
1.970000e-06	-1.104681e-06	-2.987774e-09	-8.398359e+00	-2.021888e+02
1.980000e-06	-1.095714e-06	-2.968554e-09	-8.330187e+00	-2.013066e+02
1.990000e-06	-1.086723e-06	-2.945899e-09	-8.261827e+00	-2.004171e+02
2.000000e-06	-1.077700e-06	-2.929350e-09	-8.193235e+00	-1.995190e+02
2.010000e-06	-1.068636e-06	-2.919898e-09	-8.124323e+00	-1.986112e+02
2.020000e-06	-1.059528e-06	-2.908563e-09	-8.055079e+00	-1.976928e+02
2.030000e-06	-1.050372e-06	-2.894828e-09	-7.985472e+00	-1.967633e+02
2.040000e-06	-1.041170e-06	-2.881001e-09	-7.915513e+00	-1.958223e+02
2.050000e-06	-1.031936e-06	-2.868685e-09	-7.845316e+00	-1.948698e+02
2.060000e-06	-1.022680e-06	-2.855796e-09	-7.774943e+00	-1.939059e+02
2.070000e-06	-1.013405e-06	-2.836107e-09	-7.704432e+00	-1.929311e+02
2.080000e-06	-1.004112e-06	-2.815449e-09	-7.633783e+00	-1.919460e+02
2.090000e-06	-9.948051e-07	-2.799013e-09	-7.563024e+00	-1.909514e+02
2.100000e-06	-9.854818e-07	-2.781400e-09	-7.492143e+00	-1.899479e+02
2.110000e-06	-9.761386e-07	-2.763280e-09	-7.421111e+00	-1.889366e+02
2.120000e-06	-9.667653e-07	-2.749837e-09	-7.349850e+00	-1.879181e+02
2.130000e-06	-9.573609e-07	-2.740913e-09	-7.278353e+00	-1.868930e+02
2.140000e-06	-9.479337e-07	-2.729589e-09	-7.206683e+00	-1.858621e+02
2.150000e-06	-9.384873e-07	-2.714397e-09	-7.134866e+00	-1.848256e+02
2.160000e-06	-9.290184e-07	-2.698960e-09	-7.062879e+00	-1.837836e+02
2.170000e-06	-9.195279e-07	-2.681409e-09	-6.990727e+00	-1.827361e+02
2.180000e-06	-9.100145e-07	-2.661424e-09	-6.918402e+00	-1.816827e+02
2.190000e-06	-9.004718e-07	-2.644223e-09	-6.845853e+00	-1.806229e+02
2.200000e-06	-8.909076e-07	-2.630002e-09	-6.773141e+00	-1.795561e+02
2.210000e-06	-8.813286e-07	-2.614517e-09	-6.700316e+00	-1.784813e+02
2.220000e-06	-8.717316e-07	-2.595623e-09	-6.627355e+00	-1.773975e+02
2.230000e-06	-8.621116e-07	-2.575056e-09	-6.554219e+00	-1.763038e+02
2.240000e-06	-8.524716e-07	-2.559214e-09	-6.480931e+00	-1.751991e+02
2.250000e-06	-8.428088e-07	-2.546096e-09	-6.407469e+00	-1.740825e+02
2.260000e-06	-8.331267e-07	-2.532300e-09	-6.333860e+00	-1.729530e+02
2.270000e-06	-8.234368e-07	-2.516699e-09	-6.260193e+00	-1.718100e+02
2.280000e-06	-8.137322e-07	-2.497401e-09	-6.186414e+00	-1.706531e+02
2.290000e-06	-8.040080e-07	-2.477205e-09	-6.112485e+00	-1.694820e+02
2.300000e-06	-7.942670e-07	-2.457113e-09	-6.038429e+00	-1.682968e+02
2.310000e-06	-7.844953e-07	-2.436187e-09	-5.964140e+00	-1.670979e+02
2.320000e-06	-7.746994e-07	-2.418757e-09	-5.889666e+00	-1.658858e+02
2.330000e-06	-7.648972e-07	-2.407620e-09	-5.815145e+00	-1.646615e+02
2.340000e-06	-7.550886e-07	-2.396298e-09	-5.740575e+00	-1.634263e+02
2.350000e-06	-7.452302e-07	-2.380188e-09	-5.665626e+00	-1.621813e+02
2.360000e-06	-7.353183e-07	-2.359807e-09	-5.590270e+00	-1.609283e+02
2.370000e-06	-7.253777e-07	-2.337266e-09	-5.514697e+00	-1.596688e+02
2.380000e-06	-7.153988e-07	-2.315569e-09	-5.438832e+00	-1.584046e+02
2.390000e-06	-7.053920e-07	-2.295703e-09	-5.362755e+00	-1.571376e+02
2.400000e-06	-6.953682e-07	-2.275179e-09	-5.286549e+00	-1.558693e+02
2.410000e-06	-6.853330e-07	-2.256192e-09	-5.210257e+00	-1.546015e+02
2.420000e-06	-6.752810e-07	-2.238787e-09	-5.133836e+00	-1.533357e+02
2.430000e-06	-6.652142e-07	-2.220227e-09	-5.057303e+00	-1.520732e+02
2.440000e-06	-6.551410e-07	-2.201772e-09	-4.980721e+00	-1.508152e+02
2.450000e-06	-6.450596e-07	-2.184643e-09	-4.904077e+00	-1.495626e+02
2.460000e-06	-6.349654e-07	-2.168763e-09	-4.827336e+00	-1.483160e+02
2.470000e-06	-6.248653e-07	-2.152167e-09	-4.750550e+00	-1.470759e+02
2.480000e-06	-6.147575e-07	-2.132821e-09	-4.673705e+00	-1.458426e+02
2.490000e-06	-6.046384e-07	-2.110343e-09	-4.596774e+00	-1.446160e+02
2.500000e-06	-5.945099e-07	-2.089803e-09	-4.519772e+00	-1.433961e+02
2.510000e-06	-5.843613e-07	-2.071855e-09	-4.442617e+00	-1.421825e+02
2.520000e-06	-5.741880e-07	-2.056562e-09	-4.365275e+00	-1.409747e+02
2.530000e-06	-5.640002e-07	-2.042493e-09	-4.287822e+00	-1.397722e+02
2.540000e-06	-5.537933e-07	-2.027554e-09	-4.210224e+00	-1.385743e+02
2.550000e-06	-5.435712e-07	-2.015073e-09	-4.132510e+00	-1.373804e+02
2.560000e-06	-5.333512e-07	-2.002884e-09	-4.054812e+00	-1.361900e+02
2.570000e-06	-5.231161e-07	-1.985072e-09	-3.977000e+00	-1.350022e+02
2.580000e-06	-5.128574e-07	-1.962913e-09	-3.899008e+00	-1.338166e+02
2.590000e-06	-5.025933e-07	-1.941915e-09	-3.820974e+00	-1.326326e+02
2.600000e-06	-4.923109e-07	-1.922707e-09	-3.742802e+00	-1.314498e+02
2.610000e-06	-4.820135e-07	-1.902552e-09	-3.664516e+00	-1.302678e+02
2.620000e-06	-4.717093e-07	-1.882299e-09	-3.586178e+00	-1.290862e+02
2.630000e-06	-4.613986e-07	-1.864441e-09	-3.507791e+00	-1.279048e+02
2.640000e-06	-4.510739e-07	-1.851018e-09	-3.429297e+00	-1.267234e+02
2.650000e-06	-4.407263e-07	-1.841847e-09	-3.350630e+00	-1.255419e+02
2.660000e-06	-4.303767e-07	-1.829694e-09	-3.271947e+00	-1.243601e+02
2.670000e-06	-4.200225e-07	-1.811919e-09	-3.193229e+00	-1.231780e+02
2.680000e-06	-4.096417e-07	-1.793395e-09	-3.114308e+00	-1.219955e+02
2.690000e-06	-3.992561e-07	-1.775606e-09	-3.035352e+00	-1.208123e+02
2.700000e-06	-3.888752e-07	-1.757796e-09	-2.956431e+00	-1.196285e+02
2.710000e-06	-3.784763e-07	-1.738051e-09	-2.877373e+00	-1.184437e+02
2.720000e-06	-3.680643e-07	-1.716790e-09	-2.798216e+00	-1.172578e+02
2.730000e-06	-3.576414e-07	-1.698167e-09	-2.718975e+00	-1.160704e+02
2.740000e-06	-3.472002e-07	-1.685747e-09	-2.639596e+00	-1.148811e+02
2.750000e-06	-3.367460e-07	-1.673155e-09	-2.560118e+00	-1.136895e+02
2.760000e-06	-3.262901e-07	-1.654345e-09	-2.480626e+00	-1.124950e+02
2.770000e-06	-3.158241e-07	-1.634663e-09	-2.401058e+00	-1.112970e+02
2.780000e-06	-3.053489e-07	-1.615811e-09	-2.321421e+00	-1.100949e+02
2.790000e-06	-2.948772e-07	-1.597541e-09	-2.241809e+00	-1.088879e+02
2.800000e-06	-2.844036e-07	-1.574485e-09	-2.162184e+00	-1.076752e+02
2.810000e-06	-2.739254e-07	-1.549239e-09	-2.082523e+00	-1.064560e+02
2.820000e-06	-2.634447e-07	-1.528555e-09	-2.002843e+00	-1.052294e+02
2.830000e-06	-2.529607e-07	-1.511666e-09	-1.923138e+00	-1.039946e+02
2.840000e-06	-2.424738e-07	-1.497950e-09	-1.843411e+00	-1.027508e+02
