# Temperatura_=_20.0
# Concentracion g/m^3_=_10000.0
# C_Vs_to_Am_M_A/Vsm_=_65563218390.804596
# pendiente_HvsI_1/m_=_3716.3
# ordenada_HvsI_A/m_=_1297.0
# frecuencia_Hz_=_81139.52269297399

Tiempo_(s)	Campo_(V.s)	Magnetizacion_(V.s)	Campo_(kA/m)	Magnetizacion_(A/m)
0.000000e+00	-2.075628e-06	-4.243558e-09	-1.577599e+01	-2.854840e+02
1.000000e-08	-2.075594e-06	-4.270462e-09	-1.577573e+01	-2.855538e+02
2.000000e-08	-2.075570e-06	-4.321787e-09	-1.577555e+01	-2.856190e+02
3.000000e-08	-2.075516e-06	-4.440194e-09	-1.577514e+01	-2.856806e+02
4.000000e-08	-2.075389e-06	-4.523301e-09	-1.577417e+01	-2.857393e+02
5.000000e-08	-2.075170e-06	-4.336384e-09	-1.577250e+01	-2.857960e+02
6.000000e-08	-2.074890e-06	-4.216349e-09	-1.577038e+01	-2.858514e+02
7.000000e-08	-2.074549e-06	-4.246353e-09	-1.576779e+01	-2.859060e+02
8.000000e-08	-2.074155e-06	-4.394995e-09	-1.576479e+01	-2.859603e+02
9.000000e-08	-2.073698e-06	-4.345559e-09	-1.576132e+01	-2.860148e+02
1.000000e-07	-2.073207e-06	-4.299288e-09	-1.575759e+01	-2.860696e+02
1.100000e-07	-2.072707e-06	-4.432069e-09	-1.575379e+01	-2.861250e+02
1.200000e-07	-2.072132e-06	-4.436647e-09	-1.574942e+01	-2.861808e+02
1.300000e-07	-2.071488e-06	-4.400078e-09	-1.574452e+01	-2.862370e+02
1.400000e-07	-2.070780e-06	-4.238841e-09	-1.573914e+01	-2.862932e+02
1.500000e-07	-2.070032e-06	-4.243623e-09	-1.573346e+01	-2.863492e+02
1.600000e-07	-2.069227e-06	-4.332332e-09	-1.572734e+01	-2.864045e+02
1.700000e-07	-2.068347e-06	-4.398461e-09	-1.572065e+01	-2.864584e+02
1.800000e-07	-2.067441e-06	-4.463851e-09	-1.571377e+01	-2.865104e+02
1.900000e-07	-2.066475e-06	-4.337007e-09	-1.570642e+01	-2.865600e+02
2.000000e-07	-2.065469e-06	-4.338043e-09	-1.569877e+01	-2.866063e+02
2.100000e-07	-2.064392e-06	-4.307172e-09	-1.569059e+01	-2.866488e+02
2.200000e-07	-2.063233e-06	-4.344694e-09	-1.568178e+01	-2.866870e+02
2.300000e-07	-2.062011e-06	-4.369784e-09	-1.567249e+01	-2.867202e+02
2.400000e-07	-2.060734e-06	-4.342944e-09	-1.566278e+01	-2.867480e+02
2.500000e-07	-2.059407e-06	-4.416284e-09	-1.565270e+01	-2.867701e+02
2.600000e-07	-2.058006e-06	-4.383293e-09	-1.564205e+01	-2.867861e+02
2.700000e-07	-2.056565e-06	-4.400530e-09	-1.563110e+01	-2.867959e+02
2.800000e-07	-2.055058e-06	-4.327619e-09	-1.561965e+01	-2.867993e+02
2.900000e-07	-2.053494e-06	-4.301948e-09	-1.560775e+01	-2.867962e+02
3.000000e-07	-2.051874e-06	-4.336155e-09	-1.559545e+01	-2.867867e+02
3.100000e-07	-2.050187e-06	-4.353912e-09	-1.558262e+01	-2.867706e+02
3.200000e-07	-2.048456e-06	-4.424517e-09	-1.556947e+01	-2.867481e+02
3.300000e-07	-2.046646e-06	-4.371866e-09	-1.555571e+01	-2.867191e+02
3.400000e-07	-2.044782e-06	-4.373400e-09	-1.554154e+01	-2.866835e+02
3.500000e-07	-2.042865e-06	-4.344552e-09	-1.552697e+01	-2.866410e+02
3.600000e-07	-2.040900e-06	-4.351526e-09	-1.551204e+01	-2.865914e+02
3.700000e-07	-2.038900e-06	-4.374417e-09	-1.549683e+01	-2.865342e+02
3.800000e-07	-2.036845e-06	-4.339853e-09	-1.548122e+01	-2.864690e+02
3.900000e-07	-2.034749e-06	-4.373535e-09	-1.546528e+01	-2.863949e+02
4.000000e-07	-2.032603e-06	-4.350992e-09	-1.544897e+01	-2.863113e+02
4.100000e-07	-2.030416e-06	-4.379320e-09	-1.543235e+01	-2.862172e+02
4.200000e-07	-2.028180e-06	-4.356795e-09	-1.541535e+01	-2.861116e+02
4.300000e-07	-2.025894e-06	-4.334184e-09	-1.539798e+01	-2.859935e+02
4.400000e-07	-2.023559e-06	-4.346585e-09	-1.538023e+01	-2.858619e+02
4.500000e-07	-2.021169e-06	-4.330603e-09	-1.536206e+01	-2.857158e+02
4.600000e-07	-2.018744e-06	-4.356996e-09	-1.534363e+01	-2.855543e+02
4.700000e-07	-2.016254e-06	-4.307159e-09	-1.532471e+01	-2.853768e+02
4.800000e-07	-2.013705e-06	-4.307300e-09	-1.530534e+01	-2.851826e+02
4.900000e-07	-2.011104e-06	-4.314467e-09	-1.528557e+01	-2.849715e+02
5.000000e-07	-2.008444e-06	-4.331311e-09	-1.526535e+01	-2.847433e+02
5.100000e-07	-2.005728e-06	-4.344824e-09	-1.524471e+01	-2.844984e+02
5.200000e-07	-2.002961e-06	-4.298550e-09	-1.522368e+01	-2.842372e+02
5.300000e-07	-2.000149e-06	-4.307827e-09	-1.520230e+01	-2.839607e+02
5.400000e-07	-1.997265e-06	-4.294744e-09	-1.518038e+01	-2.836699e+02
5.500000e-07	-1.994330e-06	-4.308646e-09	-1.515808e+01	-2.833662e+02
5.600000e-07	-1.991352e-06	-4.287866e-09	-1.513544e+01	-2.830513e+02
5.700000e-07	-1.988335e-06	-4.266341e-09	-1.511251e+01	-2.827270e+02
5.800000e-07	-1.985274e-06	-4.285966e-09	-1.508924e+01	-2.823952e+02
5.900000e-07	-1.982158e-06	-4.275080e-09	-1.506556e+01	-2.820580e+02
6.000000e-07	-1.978996e-06	-4.278068e-09	-1.504153e+01	-2.817174e+02
6.100000e-07	-1.975782e-06	-4.236336e-09	-1.501710e+01	-2.813754e+02
6.200000e-07	-1.972531e-06	-4.238510e-09	-1.499239e+01	-2.810338e+02
6.300000e-07	-1.969229e-06	-4.250024e-09	-1.496730e+01	-2.806942e+02
6.400000e-07	-1.965866e-06	-4.245274e-09	-1.494174e+01	-2.803581e+02
6.500000e-07	-1.962454e-06	-4.240256e-09	-1.491580e+01	-2.800266e+02
6.600000e-07	-1.958986e-06	-4.212912e-09	-1.488944e+01	-2.797006e+02
6.700000e-07	-1.955474e-06	-4.232803e-09	-1.486275e+01	-2.793804e+02
6.800000e-07	-1.951890e-06	-4.221428e-09	-1.483551e+01	-2.790662e+02
6.900000e-07	-1.948225e-06	-4.208733e-09	-1.480765e+01	-2.787579e+02
7.000000e-07	-1.944517e-06	-4.195998e-09	-1.477947e+01	-2.784548e+02
7.100000e-07	-1.940770e-06	-4.198081e-09	-1.475099e+01	-2.781562e+02
7.200000e-07	-1.936988e-06	-4.218462e-09	-1.472225e+01	-2.778610e+02
7.300000e-07	-1.933154e-06	-4.194602e-09	-1.469310e+01	-2.775679e+02
7.400000e-07	-1.929274e-06	-4.183435e-09	-1.466361e+01	-2.772755e+02
7.500000e-07	-1.925361e-06	-4.165754e-09	-1.463387e+01	-2.769824e+02
7.600000e-07	-1.921395e-06	-4.177055e-09	-1.460373e+01	-2.766870e+02
7.700000e-07	-1.917375e-06	-4.181220e-09	-1.457317e+01	-2.763877e+02
7.800000e-07	-1.913312e-06	-4.161345e-09	-1.454229e+01	-2.760832e+02
7.900000e-07	-1.909204e-06	-4.156041e-09	-1.451107e+01	-2.757722e+02
8.000000e-07	-1.905039e-06	-4.144454e-09	-1.447941e+01	-2.754534e+02
8.100000e-07	-1.900836e-06	-4.157478e-09	-1.444746e+01	-2.751259e+02
8.200000e-07	-1.896586e-06	-4.146216e-09	-1.441516e+01	-2.747889e+02
8.300000e-07	-1.892278e-06	-4.136765e-09	-1.438242e+01	-2.744417e+02
8.400000e-07	-1.887915e-06	-4.135268e-09	-1.434926e+01	-2.740841e+02
8.500000e-07	-1.883479e-06	-4.130654e-09	-1.431554e+01	-2.737156e+02
8.600000e-07	-1.878975e-06	-4.129567e-09	-1.428131e+01	-2.733364e+02
8.700000e-07	-1.874430e-06	-4.102247e-09	-1.424676e+01	-2.729465e+02
8.800000e-07	-1.869849e-06	-4.096279e-09	-1.421194e+01	-2.725461e+02
8.900000e-07	-1.865220e-06	-4.095325e-09	-1.417676e+01	-2.721354e+02
9.000000e-07	-1.860549e-06	-4.099528e-09	-1.414126e+01	-2.717150e+02
9.100000e-07	-1.855827e-06	-4.089915e-09	-1.410537e+01	-2.712851e+02
9.200000e-07	-1.851058e-06	-4.069096e-09	-1.406912e+01	-2.708463e+02
9.300000e-07	-1.846249e-06	-4.071389e-09	-1.403257e+01	-2.703988e+02
9.400000e-07	-1.841388e-06	-4.064352e-09	-1.399562e+01	-2.699432e+02
9.500000e-07	-1.836478e-06	-4.060657e-09	-1.395831e+01	-2.694798e+02
9.600000e-07	-1.831512e-06	-4.043407e-09	-1.392057e+01	-2.690090e+02
9.700000e-07	-1.826507e-06	-4.035211e-09	-1.388252e+01	-2.685311e+02
9.800000e-07	-1.821444e-06	-4.036934e-09	-1.384404e+01	-2.680465e+02
9.900000e-07	-1.816316e-06	-4.025638e-09	-1.380507e+01	-2.675554e+02
1.000000e-06	-1.811132e-06	-4.013610e-09	-1.376567e+01	-2.670582e+02
1.010000e-06	-1.805863e-06	-3.994069e-09	-1.372561e+01	-2.665553e+02
1.020000e-06	-1.800534e-06	-3.995064e-09	-1.368511e+01	-2.660468e+02
1.030000e-06	-1.795157e-06	-3.994459e-09	-1.364424e+01	-2.655333e+02
1.040000e-06	-1.789742e-06	-3.986815e-09	-1.360308e+01	-2.650151e+02
1.050000e-06	-1.784289e-06	-3.975430e-09	-1.356164e+01	-2.644925e+02
1.060000e-06	-1.778778e-06	-3.961488e-09	-1.351975e+01	-2.639660e+02
1.070000e-06	-1.773223e-06	-3.954837e-09	-1.347753e+01	-2.634359e+02
1.080000e-06	-1.767637e-06	-3.934506e-09	-1.343508e+01	-2.629027e+02
1.090000e-06	-1.762008e-06	-3.922636e-09	-1.339229e+01	-2.623667e+02
1.100000e-06	-1.756334e-06	-3.915756e-09	-1.334917e+01	-2.618282e+02
1.110000e-06	-1.750618e-06	-3.914292e-09	-1.330573e+01	-2.612872e+02
1.120000e-06	-1.744854e-06	-3.909503e-09	-1.326191e+01	-2.607440e+02
1.130000e-06	-1.739050e-06	-3.891160e-09	-1.321780e+01	-2.601985e+02
1.140000e-06	-1.733210e-06	-3.880628e-09	-1.317341e+01	-2.596506e+02
1.150000e-06	-1.727318e-06	-3.869267e-09	-1.312863e+01	-2.590999e+02
1.160000e-06	-1.721358e-06	-3.862446e-09	-1.308333e+01	-2.585460e+02
1.170000e-06	-1.715339e-06	-3.846849e-09	-1.303758e+01	-2.579883e+02
1.180000e-06	-1.709274e-06	-3.831587e-09	-1.299148e+01	-2.574262e+02
1.190000e-06	-1.703161e-06	-3.826280e-09	-1.294502e+01	-2.568588e+02
1.200000e-06	-1.697014e-06	-3.821138e-09	-1.289830e+01	-2.562853e+02
1.210000e-06	-1.690844e-06	-3.817358e-09	-1.285140e+01	-2.557048e+02
1.220000e-06	-1.684636e-06	-3.802473e-09	-1.280422e+01	-2.551163e+02
1.230000e-06	-1.678380e-06	-3.792758e-09	-1.275667e+01	-2.545191e+02
1.240000e-06	-1.672078e-06	-3.782688e-09	-1.270877e+01	-2.539124e+02
1.250000e-06	-1.665736e-06	-3.767496e-09	-1.266057e+01	-2.532954e+02
1.260000e-06	-1.659360e-06	-3.749616e-09	-1.261211e+01	-2.526677e+02
1.270000e-06	-1.652939e-06	-3.730508e-09	-1.256331e+01	-2.520290e+02
1.280000e-06	-1.646480e-06	-3.724959e-09	-1.251421e+01	-2.513791e+02
1.290000e-06	-1.639981e-06	-3.721944e-09	-1.246482e+01	-2.507183e+02
1.300000e-06	-1.633447e-06	-3.717508e-09	-1.241516e+01	-2.500468e+02
1.310000e-06	-1.626872e-06	-3.705788e-09	-1.236518e+01	-2.493652e+02
1.320000e-06	-1.620252e-06	-3.693616e-09	-1.231486e+01	-2.486743e+02
1.330000e-06	-1.613587e-06	-3.683771e-09	-1.226421e+01	-2.479751e+02
1.340000e-06	-1.606864e-06	-3.667368e-09	-1.221311e+01	-2.472686e+02
1.350000e-06	-1.600093e-06	-3.653010e-09	-1.216164e+01	-2.465563e+02
1.360000e-06	-1.593278e-06	-3.640525e-09	-1.210984e+01	-2.458393e+02
1.370000e-06	-1.586419e-06	-3.633483e-09	-1.205771e+01	-2.451189e+02
1.380000e-06	-1.579518e-06	-3.624269e-09	-1.200526e+01	-2.443966e+02
1.390000e-06	-1.572582e-06	-3.610053e-09	-1.195254e+01	-2.436735e+02
1.400000e-06	-1.565613e-06	-3.595642e-09	-1.189958e+01	-2.429508e+02
1.410000e-06	-1.558607e-06	-3.581105e-09	-1.184632e+01	-2.422294e+02
1.420000e-06	-1.551580e-06	-3.575498e-09	-1.179292e+01	-2.415101e+02
1.430000e-06	-1.544518e-06	-3.570521e-09	-1.173924e+01	-2.407935e+02
1.440000e-06	-1.537398e-06	-3.562661e-09	-1.168513e+01	-2.400800e+02
1.450000e-06	-1.530236e-06	-3.549858e-09	-1.163069e+01	-2.393697e+02
1.460000e-06	-1.523032e-06	-3.534184e-09	-1.157593e+01	-2.386627e+02
1.470000e-06	-1.515794e-06	-3.523998e-09	-1.152092e+01	-2.379586e+02
1.480000e-06	-1.508530e-06	-3.506048e-09	-1.146571e+01	-2.372572e+02
1.490000e-06	-1.501237e-06	-3.492791e-09	-1.141028e+01	-2.365577e+02
1.500000e-06	-1.493916e-06	-3.488148e-09	-1.135463e+01	-2.358597e+02
1.510000e-06	-1.486550e-06	-3.480856e-09	-1.129865e+01	-2.351624e+02
1.520000e-06	-1.479130e-06	-3.473219e-09	-1.124225e+01	-2.344651e+02
1.530000e-06	-1.471661e-06	-3.459699e-09	-1.118549e+01	-2.337670e+02
1.540000e-06	-1.464146e-06	-3.449036e-09	-1.112837e+01	-2.330675e+02
1.550000e-06	-1.456577e-06	-3.436724e-09	-1.107084e+01	-2.323660e+02
1.560000e-06	-1.448959e-06	-3.423856e-09	-1.101294e+01	-2.316619e+02
1.570000e-06	-1.441288e-06	-3.413166e-09	-1.095463e+01	-2.309549e+02
1.580000e-06	-1.433565e-06	-3.397401e-09	-1.089594e+01	-2.302444e+02
1.590000e-06	-1.425815e-06	-3.386384e-09	-1.083703e+01	-2.295304e+02
1.600000e-06	-1.418044e-06	-3.376885e-09	-1.077796e+01	-2.288127e+02
1.610000e-06	-1.410236e-06	-3.368290e-09	-1.071862e+01	-2.280911e+02
1.620000e-06	-1.402393e-06	-3.358477e-09	-1.065901e+01	-2.273658e+02
1.630000e-06	-1.394527e-06	-3.350368e-09	-1.059922e+01	-2.266367e+02
1.640000e-06	-1.386620e-06	-3.341417e-09	-1.053912e+01	-2.259038e+02
1.650000e-06	-1.378662e-06	-3.324328e-09	-1.047864e+01	-2.251672e+02
1.660000e-06	-1.370650e-06	-3.305881e-09	-1.041774e+01	-2.244269e+02
1.670000e-06	-1.362581e-06	-3.285135e-09	-1.035641e+01	-2.236828e+02
1.680000e-06	-1.354463e-06	-3.271638e-09	-1.029471e+01	-2.229347e+02
1.690000e-06	-1.346305e-06	-3.261250e-09	-1.023271e+01	-2.221825e+02
1.700000e-06	-1.338124e-06	-3.247756e-09	-1.017052e+01	-2.214259e+02
1.710000e-06	-1.329911e-06	-3.234669e-09	-1.010810e+01	-2.206646e+02
1.720000e-06	-1.321649e-06	-3.221114e-09	-1.004531e+01	-2.198980e+02
1.730000e-06	-1.313372e-06	-3.213632e-09	-9.982393e+00	-2.191258e+02
1.740000e-06	-1.305083e-06	-3.203738e-09	-9.919394e+00	-2.183474e+02
1.750000e-06	-1.296751e-06	-3.191202e-09	-9.856066e+00	-2.175622e+02
1.760000e-06	-1.288378e-06	-3.177316e-09	-9.792429e+00	-2.167699e+02
1.770000e-06	-1.279972e-06	-3.164587e-09	-9.728535e+00	-2.159699e+02
1.780000e-06	-1.271531e-06	-3.155190e-09	-9.664380e+00	-2.151617e+02
1.790000e-06	-1.263070e-06	-3.138613e-09	-9.600075e+00	-2.143450e+02
1.800000e-06	-1.254583e-06	-3.122641e-09	-9.535569e+00	-2.135196e+02
1.810000e-06	-1.246073e-06	-3.109231e-09	-9.470881e+00	-2.126851e+02
1.820000e-06	-1.237539e-06	-3.098327e-09	-9.406020e+00	-2.118415e+02
1.830000e-06	-1.228972e-06	-3.085476e-09	-9.340908e+00	-2.109889e+02
1.840000e-06	-1.220388e-06	-3.068478e-09	-9.275663e+00	-2.101272e+02
1.850000e-06	-1.211783e-06	-3.053537e-09	-9.210259e+00	-2.092567e+02
1.860000e-06	-1.203145e-06	-3.038668e-09	-9.144604e+00	-2.083776e+02
1.870000e-06	-1.194473e-06	-3.027305e-09	-9.078693e+00	-2.074902e+02
1.880000e-06	-1.185776e-06	-3.014163e-09	-9.012590e+00	-2.065947e+02
1.890000e-06	-1.177055e-06	-2.998110e-09	-8.946305e+00	-2.056915e+02
1.900000e-06	-1.168308e-06	-2.984237e-09	-8.879823e+00	-2.047810e+02
1.910000e-06	-1.159529e-06	-2.970341e-09	-8.813098e+00	-2.038633e+02
1.920000e-06	-1.150701e-06	-2.955016e-09	-8.746001e+00	-2.029388e+02
1.930000e-06	-1.141847e-06	-2.936902e-09	-8.678703e+00	-2.020076e+02
1.940000e-06	-1.132973e-06	-2.924820e-09	-8.611259e+00	-2.010699e+02
1.950000e-06	-1.124083e-06	-2.916011e-09	-8.543691e+00	-2.001259e+02
1.960000e-06	-1.115184e-06	-2.905100e-09	-8.476053e+00	-1.991756e+02
1.970000e-06	-1.106266e-06	-2.891448e-09	-8.408267e+00	-1.982192e+02
1.980000e-06	-1.097311e-06	-2.875926e-09	-8.340208e+00	-1.972565e+02
1.990000e-06	-1.088322e-06	-2.859843e-09	-8.271885e+00	-1.962878e+02
2.000000e-06	-1.079299e-06	-2.836795e-09	-8.203305e+00	-1.953131e+02
2.010000e-06	-1.070236e-06	-2.814137e-09	-8.134419e+00	-1.943324e+02
2.020000e-06	-1.061121e-06	-2.794398e-09	-8.065144e+00	-1.933461e+02
2.030000e-06	-1.051964e-06	-2.782778e-09	-7.995544e+00	-1.923545e+02
2.040000e-06	-1.042792e-06	-2.774892e-09	-7.925830e+00	-1.913577e+02
2.050000e-06	-1.033588e-06	-2.762950e-09	-7.855873e+00	-1.903564e+02
2.060000e-06	-1.024336e-06	-2.750420e-09	-7.785552e+00	-1.893511e+02
2.070000e-06	-1.015061e-06	-2.732210e-09	-7.715060e+00	-1.883423e+02
2.080000e-06	-1.005772e-06	-2.712464e-09	-7.644459e+00	-1.873309e+02
2.090000e-06	-9.964588e-07	-2.692353e-09	-7.573671e+00	-1.863176e+02
2.100000e-06	-9.871328e-07	-2.670632e-09	-7.502787e+00	-1.853033e+02
2.110000e-06	-9.777859e-07	-2.653265e-09	-7.431746e+00	-1.842886e+02
2.120000e-06	-9.684238e-07	-2.642652e-09	-7.360588e+00	-1.832745e+02
2.130000e-06	-9.590445e-07	-2.637252e-09	-7.289300e+00	-1.822617e+02
2.140000e-06	-9.496337e-07	-2.627219e-09	-7.217772e+00	-1.812508e+02
2.150000e-06	-9.401928e-07	-2.613796e-09	-7.146016e+00	-1.802425e+02
2.160000e-06	-9.307220e-07	-2.598865e-09	-7.074032e+00	-1.792372e+02
2.170000e-06	-9.212301e-07	-2.580173e-09	-7.001888e+00	-1.782350e+02
2.180000e-06	-9.117192e-07	-2.560290e-09	-6.929600e+00	-1.772362e+02
2.190000e-06	-9.021785e-07	-2.541717e-09	-6.857085e+00	-1.762407e+02
2.200000e-06	-8.926165e-07	-2.531329e-09	-6.784408e+00	-1.752482e+02
2.210000e-06	-8.830475e-07	-2.520754e-09	-6.711678e+00	-1.742583e+02
2.220000e-06	-8.734451e-07	-2.507115e-09	-6.638694e+00	-1.732704e+02
2.230000e-06	-8.638071e-07	-2.490577e-09	-6.565439e+00	-1.722838e+02
2.240000e-06	-8.541624e-07	-2.475242e-09	-6.492134e+00	-1.712976e+02
2.250000e-06	-8.444906e-07	-2.464983e-09	-6.418623e+00	-1.703110e+02
2.260000e-06	-8.347927e-07	-2.454085e-09	-6.344913e+00	-1.693229e+02
2.270000e-06	-8.251010e-07	-2.438946e-09	-6.271250e+00	-1.683324e+02
2.280000e-06	-8.154012e-07	-2.419167e-09	-6.197527e+00	-1.673384e+02
2.290000e-06	-8.056731e-07	-2.404223e-09	-6.123587e+00	-1.663400e+02
2.300000e-06	-7.959224e-07	-2.391216e-09	-6.049476e+00	-1.653363e+02
2.310000e-06	-7.861402e-07	-2.374459e-09	-5.975126e+00	-1.643264e+02
2.320000e-06	-7.763335e-07	-2.357963e-09	-5.900589e+00	-1.633097e+02
2.330000e-06	-7.665202e-07	-2.345385e-09	-5.826003e+00	-1.622856e+02
2.340000e-06	-7.566834e-07	-2.335560e-09	-5.751237e+00	-1.612535e+02
2.350000e-06	-7.468146e-07	-2.323149e-09	-5.676229e+00	-1.602133e+02
2.360000e-06	-7.369097e-07	-2.305149e-09	-5.600945e+00	-1.591646e+02
2.370000e-06	-7.269604e-07	-2.282967e-09	-5.525325e+00	-1.581073e+02
2.380000e-06	-7.169786e-07	-2.261382e-09	-5.449457e+00	-1.570414e+02
2.390000e-06	-7.069806e-07	-2.244453e-09	-5.373466e+00	-1.559670e+02
2.400000e-06	-6.969594e-07	-2.229019e-09	-5.297300e+00	-1.548842e+02
2.410000e-06	-6.869174e-07	-2.212766e-09	-5.220974e+00	-1.537932e+02
2.420000e-06	-6.768596e-07	-2.198005e-09	-5.144529e+00	-1.526942e+02
2.430000e-06	-6.667829e-07	-2.183451e-09	-5.067941e+00	-1.515874e+02
2.440000e-06	-6.567007e-07	-2.168099e-09	-4.991310e+00	-1.504730e+02
2.450000e-06	-6.466167e-07	-2.151694e-09	-4.914665e+00	-1.493513e+02
2.460000e-06	-6.365199e-07	-2.132656e-09	-4.837924e+00	-1.482225e+02
2.470000e-06	-6.264110e-07	-2.112434e-09	-4.761091e+00	-1.470866e+02
2.480000e-06	-6.162996e-07	-2.095338e-09	-4.684238e+00	-1.459439e+02
2.490000e-06	-6.061839e-07	-2.076715e-09	-4.607353e+00	-1.447945e+02
2.500000e-06	-5.960468e-07	-2.055831e-09	-4.530305e+00	-1.436385e+02
2.510000e-06	-5.858981e-07	-2.041186e-09	-4.453168e+00	-1.424760e+02
2.520000e-06	-5.757354e-07	-2.032557e-09	-4.375926e+00	-1.413071e+02
2.530000e-06	-5.655566e-07	-2.021172e-09	-4.298562e+00	-1.401319e+02
2.540000e-06	-5.553571e-07	-2.002347e-09	-4.221039e+00	-1.389506e+02
2.550000e-06	-5.451312e-07	-1.980718e-09	-4.143317e+00	-1.377632e+02
2.560000e-06	-5.348985e-07	-1.960340e-09	-4.065542e+00	-1.365700e+02
2.570000e-06	-5.246580e-07	-1.941367e-09	-3.987708e+00	-1.353712e+02
2.580000e-06	-5.144024e-07	-1.920333e-09	-3.909760e+00	-1.341668e+02
2.590000e-06	-5.041287e-07	-1.898504e-09	-3.831674e+00	-1.329572e+02
2.600000e-06	-4.938410e-07	-1.881682e-09	-3.753481e+00	-1.317426e+02
2.610000e-06	-4.835433e-07	-1.867017e-09	-3.675212e+00	-1.305232e+02
2.620000e-06	-4.732340e-07	-1.849736e-09	-3.596856e+00	-1.292994e+02
2.630000e-06	-4.629170e-07	-1.830818e-09	-3.518441e+00	-1.280713e+02
2.640000e-06	-4.525860e-07	-1.814358e-09	-3.439918e+00	-1.268393e+02
2.650000e-06	-4.422439e-07	-1.801037e-09	-3.361313e+00	-1.256037e+02
2.660000e-06	-4.318943e-07	-1.784435e-09	-3.282650e+00	-1.243645e+02
2.670000e-06	-4.215335e-07	-1.764009e-09	-3.203902e+00	-1.231222e+02
2.680000e-06	-4.111712e-07	-1.744845e-09	-3.125142e+00	-1.218768e+02
2.690000e-06	-4.007957e-07	-1.728727e-09	-3.046282e+00	-1.206287e+02
2.700000e-06	-3.903960e-07	-1.715205e-09	-2.967238e+00	-1.193779e+02
2.710000e-06	-3.799725e-07	-1.698572e-09	-2.888014e+00	-1.181247e+02
2.720000e-06	-3.695392e-07	-1.681255e-09	-2.808715e+00	-1.168692e+02
2.730000e-06	-3.590997e-07	-1.668593e-09	-2.729368e+00	-1.156116e+02
2.740000e-06	-3.486581e-07	-1.653776e-09	-2.650006e+00	-1.143523e+02
2.750000e-06	-3.382163e-07	-1.632626e-09	-2.570642e+00	-1.130913e+02
2.760000e-06	-3.277644e-07	-1.609146e-09	-2.491202e+00	-1.118289e+02
2.770000e-06	-3.173042e-07	-1.586650e-09	-2.411697e+00	-1.105655e+02
2.780000e-06	-3.068318e-07	-1.566800e-09	-2.332102e+00	-1.093013e+02
2.790000e-06	-2.963613e-07	-1.549359e-09	-2.252519e+00	-1.080366e+02
2.800000e-06	-2.858830e-07	-1.532013e-09	-2.172878e+00	-1.067718e+02
2.810000e-06	-2.753867e-07	-1.515058e-09	-2.093100e+00	-1.055072e+02
2.820000e-06	-2.648937e-07	-1.498217e-09	-2.013347e+00	-1.042431e+02
2.830000e-06	-2.543989e-07	-1.480866e-09	-1.933581e+00	-1.029797e+02
2.840000e-06	-2.438978e-07	-1.462921e-09	-1.853766e+00	-1.017172e+02
