# Temperatura_=_20.0
# Concentracion g/m^3_=_10000.0
# C_Vs_to_Am_M_A/Vsm_=_65563218390.804596
# pendiente_HvsI_1/m_=_3716.3
# ordenada_HvsI_A/m_=_1297.0
# frecuencia_Hz_=_81138.17694514153

Tiempo_(s)	Campo_(V.s)	Magnetizacion_(V.s)	Campo_(kA/m)	Magnetizacion_(A/m)
0.000000e+00	-2.073828e-06	5.690681e-11	-1.577770e+01	3.466230e-02
1.000000e-08	-2.073793e-06	5.217386e-11	-1.577744e+01	2.575157e-02
2.000000e-08	-2.073781e-06	2.456807e-11	-1.577734e+01	1.704000e-02
3.000000e-08	-2.073729e-06	-9.154773e-11	-1.577694e+01	8.384258e-03
4.000000e-08	-2.073580e-06	-1.616822e-10	-1.577582e+01	-3.426018e-04
5.000000e-08	-2.073342e-06	9.810279e-12	-1.577400e+01	-9.242519e-03
6.000000e-08	-2.073043e-06	1.010353e-10	-1.577173e+01	-1.838563e-02
7.000000e-08	-2.072695e-06	4.894307e-11	-1.576908e+01	-2.780561e-02
8.000000e-08	-2.072298e-06	-4.008843e-11	-1.576606e+01	-3.749736e-02
9.000000e-08	-2.071836e-06	4.364454e-11	-1.576254e+01	-4.741732e-02
1.000000e-07	-2.071345e-06	5.484756e-11	-1.575881e+01	-5.748620e-02
1.100000e-07	-2.070837e-06	-7.143080e-11	-1.575494e+01	-6.759408e-02
1.200000e-07	-2.070256e-06	-8.143249e-11	-1.575052e+01	-7.760758e-02
1.300000e-07	-2.069596e-06	-3.989590e-11	-1.574550e+01	-8.737857e-02
1.400000e-07	-2.068901e-06	9.733250e-11	-1.574022e+01	-9.675405e-02
1.500000e-07	-2.068179e-06	7.656359e-11	-1.573472e+01	-1.055864e-01
1.600000e-07	-2.067376e-06	2.650056e-12	-1.572861e+01	-1.137438e-01
1.700000e-07	-2.066493e-06	-5.357836e-11	-1.572190e+01	-1.211194e-01
1.800000e-07	-2.065576e-06	-8.333949e-11	-1.571491e+01	-1.276398e-01
1.900000e-07	-2.064617e-06	1.406856e-11	-1.570762e+01	-1.332711e-01
2.000000e-07	-2.063622e-06	-3.024245e-12	-1.570005e+01	-1.380229e-01
2.100000e-07	-2.062552e-06	2.833789e-11	-1.569191e+01	-1.419503e-01
2.200000e-07	-2.061411e-06	2.715414e-12	-1.568323e+01	-1.451518e-01
2.300000e-07	-2.060208e-06	3.228642e-12	-1.567408e+01	-1.477663e-01
2.400000e-07	-2.058937e-06	8.348871e-12	-1.566441e+01	-1.499661e-01
2.500000e-07	-2.057606e-06	-5.648956e-11	-1.565428e+01	-1.519481e-01
2.600000e-07	-2.056210e-06	-2.920280e-11	-1.564366e+01	-1.539240e-01
2.700000e-07	-2.054760e-06	-3.659295e-11	-1.563263e+01	-1.561078e-01
2.800000e-07	-2.053247e-06	3.617915e-11	-1.562112e+01	-1.587040e-01
2.900000e-07	-2.051678e-06	4.450483e-11	-1.560918e+01	-1.618951e-01
3.000000e-07	-2.050055e-06	2.042506e-11	-1.559684e+01	-1.658301e-01
3.100000e-07	-2.048381e-06	5.943092e-12	-1.558410e+01	-1.706149e-01
3.200000e-07	-2.046640e-06	-3.703123e-11	-1.557085e+01	-1.763036e-01
3.300000e-07	-2.044836e-06	4.619911e-12	-1.555713e+01	-1.828937e-01
3.400000e-07	-2.042977e-06	-1.360428e-11	-1.554298e+01	-1.903232e-01
3.500000e-07	-2.041050e-06	8.200874e-12	-1.552832e+01	-1.984716e-01
3.600000e-07	-2.039079e-06	6.727512e-12	-1.551333e+01	-2.071633e-01
3.700000e-07	-2.037056e-06	6.539757e-12	-1.549793e+01	-2.161751e-01
3.800000e-07	-2.034988e-06	2.507122e-11	-1.548221e+01	-2.252457e-01
3.900000e-07	-2.032889e-06	-6.316956e-12	-1.546624e+01	-2.340881e-01
4.000000e-07	-2.030746e-06	1.522167e-11	-1.544993e+01	-2.424035e-01
4.100000e-07	-2.028559e-06	-9.790311e-12	-1.543329e+01	-2.498965e-01
4.200000e-07	-2.026317e-06	4.576927e-12	-1.541624e+01	-2.562907e-01
4.300000e-07	-2.024030e-06	4.290053e-12	-1.539883e+01	-2.613439e-01
4.400000e-07	-2.021693e-06	1.967601e-12	-1.538106e+01	-2.648619e-01
4.500000e-07	-2.019299e-06	2.055595e-11	-1.536284e+01	-2.667104e-01
4.600000e-07	-2.016855e-06	1.559244e-12	-1.534425e+01	-2.668244e-01
4.700000e-07	-2.014362e-06	3.549714e-11	-1.532528e+01	-2.652143e-01
4.800000e-07	-2.011826e-06	2.652518e-11	-1.530599e+01	-2.619684e-01
4.900000e-07	-2.009232e-06	2.941239e-11	-1.528625e+01	-2.572517e-01
5.000000e-07	-2.006570e-06	1.151129e-11	-1.526600e+01	-2.513012e-01
5.100000e-07	-2.003841e-06	-3.621478e-12	-1.524524e+01	-2.444166e-01
5.200000e-07	-2.001049e-06	2.134159e-11	-1.522400e+01	-2.369487e-01
5.300000e-07	-1.998207e-06	1.143444e-11	-1.520238e+01	-2.292845e-01
5.400000e-07	-1.995311e-06	2.508821e-11	-1.518034e+01	-2.218306e-01
5.500000e-07	-1.992364e-06	9.381885e-12	-1.515792e+01	-2.149943e-01
5.600000e-07	-1.989382e-06	2.695298e-11	-1.513524e+01	-2.091657e-01
5.700000e-07	-1.986358e-06	3.461321e-11	-1.511223e+01	-2.046988e-01
5.800000e-07	-1.983284e-06	1.659926e-11	-1.508884e+01	-2.018946e-01
5.900000e-07	-1.980153e-06	2.083350e-11	-1.506502e+01	-2.009868e-01
6.000000e-07	-1.976979e-06	1.342961e-11	-1.504087e+01	-2.021291e-01
6.100000e-07	-1.973777e-06	4.149271e-11	-1.501651e+01	-2.053873e-01
6.200000e-07	-1.970518e-06	2.858045e-11	-1.499172e+01	-2.107344e-01
6.300000e-07	-1.967195e-06	1.975898e-11	-1.496643e+01	-2.180505e-01
6.400000e-07	-1.963825e-06	1.977539e-11	-1.494080e+01	-2.271265e-01
6.500000e-07	-1.960411e-06	1.827878e-11	-1.491482e+01	-2.376723e-01
6.600000e-07	-1.956944e-06	2.991972e-11	-1.488844e+01	-2.493280e-01
6.700000e-07	-1.953403e-06	9.618502e-12	-1.486150e+01	-2.616796e-01
6.800000e-07	-1.949786e-06	1.934691e-11	-1.483399e+01	-2.742757e-01
6.900000e-07	-1.946121e-06	2.193412e-11	-1.480610e+01	-2.866473e-01
7.000000e-07	-1.942425e-06	2.739137e-11	-1.477799e+01	-2.983270e-01
7.100000e-07	-1.938684e-06	1.504086e-11	-1.474952e+01	-3.088699e-01
7.200000e-07	-1.934895e-06	-8.065155e-12	-1.472069e+01	-3.178714e-01
7.300000e-07	-1.931065e-06	3.506871e-12	-1.469156e+01	-3.249849e-01
7.400000e-07	-1.927183e-06	1.397762e-12	-1.466202e+01	-3.299358e-01
7.500000e-07	-1.923244e-06	7.478204e-12	-1.463205e+01	-3.325323e-01
7.600000e-07	-1.919271e-06	-5.844580e-12	-1.460183e+01	-3.326727e-01
7.700000e-07	-1.915254e-06	-3.977094e-12	-1.457127e+01	-3.303485e-01
7.800000e-07	-1.911187e-06	1.012819e-11	-1.454032e+01	-3.256425e-01
7.900000e-07	-1.907074e-06	1.092988e-11	-1.450903e+01	-3.187246e-01
8.000000e-07	-1.902911e-06	1.557450e-11	-1.447736e+01	-3.098414e-01
8.100000e-07	-1.898712e-06	-3.513396e-13	-1.444542e+01	-2.993046e-01
8.200000e-07	-1.894460e-06	5.533544e-12	-1.441307e+01	-2.874755e-01
8.300000e-07	-1.890157e-06	3.237071e-12	-1.438033e+01	-2.747477e-01
8.400000e-07	-1.885795e-06	-2.877592e-12	-1.434714e+01	-2.615292e-01
8.500000e-07	-1.881349e-06	-5.020244e-12	-1.431332e+01	-2.482236e-01
8.600000e-07	-1.876846e-06	-4.814767e-12	-1.427906e+01	-2.352123e-01
8.700000e-07	-1.872301e-06	1.315962e-11	-1.424448e+01	-2.228386e-01
8.800000e-07	-1.867717e-06	8.380559e-12	-1.420960e+01	-2.113930e-01
8.900000e-07	-1.863081e-06	4.873109e-12	-1.417433e+01	-2.011024e-01
9.000000e-07	-1.858407e-06	-4.071152e-12	-1.413878e+01	-1.921223e-01
9.100000e-07	-1.853692e-06	7.128499e-13	-1.410291e+01	-1.845319e-01
9.200000e-07	-1.848926e-06	9.633670e-12	-1.406664e+01	-1.783343e-01
9.300000e-07	-1.844120e-06	-1.321710e-12	-1.403008e+01	-1.734593e-01
9.400000e-07	-1.839269e-06	-1.410719e-13	-1.399317e+01	-1.697699e-01
9.500000e-07	-1.834377e-06	7.920804e-13	-1.395595e+01	-1.670722e-01
9.600000e-07	-1.829438e-06	1.382140e-11	-1.391838e+01	-1.651271e-01
9.700000e-07	-1.824434e-06	1.598917e-11	-1.388031e+01	-1.636642e-01
9.800000e-07	-1.819364e-06	1.530744e-11	-1.384174e+01	-1.623964e-01
9.900000e-07	-1.814249e-06	2.432196e-11	-1.380282e+01	-1.610355e-01
1.000000e-06	-1.809067e-06	2.856525e-11	-1.376339e+01	-1.593063e-01
1.010000e-06	-1.803780e-06	3.468729e-11	-1.372317e+01	-1.569599e-01
1.020000e-06	-1.798453e-06	2.428800e-11	-1.368264e+01	-1.537856e-01
1.030000e-06	-1.793099e-06	2.068834e-11	-1.364191e+01	-1.496195e-01
1.040000e-06	-1.787687e-06	2.350395e-11	-1.360073e+01	-1.443511e-01
1.050000e-06	-1.782216e-06	3.052678e-11	-1.355911e+01	-1.379265e-01
1.060000e-06	-1.776686e-06	3.647157e-11	-1.351704e+01	-1.303486e-01
1.070000e-06	-1.771124e-06	3.700039e-11	-1.347472e+01	-1.216745e-01
1.080000e-06	-1.765537e-06	4.944789e-11	-1.343222e+01	-1.120101e-01
1.090000e-06	-1.759911e-06	5.229410e-11	-1.338941e+01	-1.015022e-01
1.100000e-06	-1.754234e-06	5.320852e-11	-1.334622e+01	-9.032892e-02
1.110000e-06	-1.748532e-06	4.764905e-11	-1.330285e+01	-7.868921e-02
1.120000e-06	-1.742789e-06	4.515011e-11	-1.325916e+01	-6.679129e-02
1.130000e-06	-1.736980e-06	5.152562e-11	-1.321496e+01	-5.484144e-02
1.140000e-06	-1.731123e-06	4.746950e-11	-1.317039e+01	-4.303343e-02
1.150000e-06	-1.725212e-06	4.949597e-11	-1.312543e+01	-3.153929e-02
1.160000e-06	-1.719242e-06	5.247576e-11	-1.308001e+01	-2.050169e-02
1.170000e-06	-1.713217e-06	5.958201e-11	-1.303417e+01	-1.002862e-02
1.180000e-06	-1.707150e-06	6.072185e-11	-1.298801e+01	-1.903573e-04
1.190000e-06	-1.701040e-06	5.599327e-11	-1.294153e+01	8.981149e-03
1.200000e-06	-1.694880e-06	5.121197e-11	-1.289466e+01	1.749037e-02
1.210000e-06	-1.688684e-06	4.527962e-11	-1.284752e+01	2.537413e-02
1.220000e-06	-1.682459e-06	4.805673e-11	-1.280016e+01	3.269564e-02
1.230000e-06	-1.676204e-06	4.580938e-11	-1.275258e+01	3.953703e-02
1.240000e-06	-1.669910e-06	5.009593e-11	-1.270469e+01	4.599086e-02
1.250000e-06	-1.663569e-06	5.631707e-11	-1.265645e+01	5.215133e-02
1.260000e-06	-1.657183e-06	6.209224e-11	-1.260786e+01	5.810554e-02
1.270000e-06	-1.650762e-06	6.851103e-11	-1.255901e+01	6.392549e-02
1.280000e-06	-1.644313e-06	6.567555e-11	-1.250994e+01	6.966138e-02
1.290000e-06	-1.637819e-06	6.044245e-11	-1.246054e+01	7.533646e-02
1.300000e-06	-1.631274e-06	4.991320e-11	-1.241075e+01	8.094399e-02
1.310000e-06	-1.624704e-06	4.630835e-11	-1.236076e+01	8.644632e-02
1.320000e-06	-1.618093e-06	4.292907e-11	-1.231046e+01	9.177632e-02
1.330000e-06	-1.611422e-06	4.197494e-11	-1.225971e+01	9.684098e-02
1.340000e-06	-1.604702e-06	4.860544e-11	-1.220858e+01	1.015271e-01
1.350000e-06	-1.597919e-06	5.191618e-11	-1.215698e+01	1.057085e-01
1.360000e-06	-1.591082e-06	5.612861e-11	-1.210496e+01	1.092551e-01
1.370000e-06	-1.584207e-06	5.642231e-11	-1.205266e+01	1.120416e-01
1.380000e-06	-1.577296e-06	5.932067e-11	-1.200008e+01	1.139580e-01
1.390000e-06	-1.570355e-06	6.063511e-11	-1.194727e+01	1.149180e-01
1.400000e-06	-1.563393e-06	6.004052e-11	-1.189430e+01	1.148682e-01
1.410000e-06	-1.556396e-06	5.966301e-11	-1.184107e+01	1.137944e-01
1.420000e-06	-1.549360e-06	5.220516e-11	-1.178754e+01	1.117269e-01
1.430000e-06	-1.542291e-06	4.832300e-11	-1.173376e+01	1.087430e-01
1.440000e-06	-1.535173e-06	4.648464e-11	-1.167961e+01	1.049680e-01
1.450000e-06	-1.528013e-06	4.606244e-11	-1.162513e+01	1.005719e-01
1.460000e-06	-1.520825e-06	4.427842e-11	-1.157045e+01	9.576556e-02
1.470000e-06	-1.513602e-06	4.275984e-11	-1.151550e+01	9.079320e-02
1.480000e-06	-1.506342e-06	4.853907e-11	-1.146026e+01	8.592338e-02
1.490000e-06	-1.499046e-06	4.813630e-11	-1.140476e+01	8.143841e-02
1.500000e-06	-1.491711e-06	4.107060e-11	-1.134895e+01	7.762266e-02
1.510000e-06	-1.484332e-06	3.601197e-11	-1.129281e+01	7.475046e-02
1.520000e-06	-1.476910e-06	3.644155e-11	-1.123634e+01	7.307412e-02
1.530000e-06	-1.469443e-06	4.167832e-11	-1.117953e+01	7.281279e-02
1.540000e-06	-1.461924e-06	4.484389e-11	-1.112233e+01	7.414265e-02
1.550000e-06	-1.454356e-06	4.642046e-11	-1.106475e+01	7.718899e-02
1.560000e-06	-1.446734e-06	5.074308e-11	-1.100676e+01	8.202065e-02
1.570000e-06	-1.439076e-06	5.839944e-11	-1.094850e+01	8.864692e-02
1.580000e-06	-1.431385e-06	6.291982e-11	-1.088999e+01	9.701735e-02
1.590000e-06	-1.423645e-06	6.111146e-11	-1.083110e+01	1.070243e-01
1.600000e-06	-1.415875e-06	5.701424e-11	-1.077199e+01	1.185081e-01
1.610000e-06	-1.408077e-06	5.582515e-11	-1.071266e+01	1.312648e-01
1.620000e-06	-1.400243e-06	5.990743e-11	-1.065306e+01	1.450553e-01
1.630000e-06	-1.392365e-06	5.823944e-11	-1.059313e+01	1.596173e-01
1.640000e-06	-1.384442e-06	5.601534e-11	-1.053284e+01	1.746765e-01
1.650000e-06	-1.376477e-06	6.091024e-11	-1.047225e+01	1.899594e-01
1.660000e-06	-1.368477e-06	6.757153e-11	-1.041139e+01	2.052054e-01
1.670000e-06	-1.360431e-06	7.237263e-11	-1.035017e+01	2.201776e-01
1.680000e-06	-1.352337e-06	7.476257e-11	-1.028859e+01	2.346729e-01
1.690000e-06	-1.344196e-06	7.726280e-11	-1.022665e+01	2.485289e-01
1.700000e-06	-1.336006e-06	7.804500e-11	-1.016434e+01	2.616299e-01
1.710000e-06	-1.327790e-06	7.617796e-11	-1.010184e+01	2.739094e-01
1.720000e-06	-1.319550e-06	7.574185e-11	-1.003915e+01	2.853497e-01
1.730000e-06	-1.311280e-06	7.917698e-11	-9.976228e+00	2.959799e-01
1.740000e-06	-1.302980e-06	8.288494e-11	-9.913080e+00	3.058704e-01
1.750000e-06	-1.294642e-06	8.198839e-11	-9.849643e+00	3.151258e-01
1.760000e-06	-1.286276e-06	7.768378e-11	-9.785996e+00	3.238760e-01
1.770000e-06	-1.277887e-06	7.731819e-11	-9.722174e+00	3.322665e-01
1.780000e-06	-1.269461e-06	8.208348e-11	-9.658071e+00	3.404472e-01
1.790000e-06	-1.261006e-06	8.627444e-11	-9.593746e+00	3.485623e-01
1.800000e-06	-1.252518e-06	8.332111e-11	-9.529167e+00	3.567401e-01
1.810000e-06	-1.243999e-06	7.770697e-11	-9.464355e+00	3.650848e-01
1.820000e-06	-1.235467e-06	8.040941e-11	-9.399439e+00	3.736687e-01
1.830000e-06	-1.226909e-06	8.648836e-11	-9.334333e+00	3.825284e-01
1.840000e-06	-1.218332e-06	8.573078e-11	-9.269078e+00	3.916616e-01
1.850000e-06	-1.209730e-06	8.171286e-11	-9.203636e+00	4.010273e-01
1.860000e-06	-1.201099e-06	8.222771e-11	-9.137969e+00	4.105486e-01
1.870000e-06	-1.192432e-06	8.781940e-11	-9.072028e+00	4.201177e-01
1.880000e-06	-1.183721e-06	9.317078e-11	-9.005755e+00	4.296025e-01
1.890000e-06	-1.174991e-06	9.083828e-11	-8.939342e+00	4.388557e-01
1.900000e-06	-1.166233e-06	8.380477e-11	-8.872712e+00	4.477243e-01
1.910000e-06	-1.157429e-06	8.248681e-11	-8.805726e+00	4.560598e-01
1.920000e-06	-1.148602e-06	8.596820e-11	-8.738573e+00	4.637291e-01
1.930000e-06	-1.139755e-06	8.199194e-11	-8.671268e+00	4.706233e-01
1.940000e-06	-1.130876e-06	7.071474e-11	-8.603713e+00	4.766662e-01
1.950000e-06	-1.121982e-06	6.659977e-11	-8.536044e+00	4.818209e-01
1.960000e-06	-1.113076e-06	7.090820e-11	-8.468293e+00	4.860941e-01
1.970000e-06	-1.104147e-06	7.254748e-11	-8.400360e+00	4.895374e-01
1.980000e-06	-1.095188e-06	7.038755e-11	-8.332197e+00	4.922464e-01
1.990000e-06	-1.086204e-06	7.307816e-11	-8.263850e+00	4.943573e-01
2.000000e-06	-1.077183e-06	8.150949e-11	-8.195220e+00	4.960401e-01
2.010000e-06	-1.068128e-06	8.478412e-11	-8.126327e+00	4.974906e-01
2.020000e-06	-1.059049e-06	8.037630e-11	-8.057254e+00	4.989196e-01
2.030000e-06	-1.049923e-06	7.567839e-11	-7.987826e+00	5.005414e-01
2.040000e-06	-1.040757e-06	7.372177e-11	-7.918086e+00	5.025615e-01
2.050000e-06	-1.031546e-06	7.361198e-11	-7.848008e+00	5.051645e-01
2.060000e-06	-1.022293e-06	7.219937e-11	-7.777614e+00	5.085022e-01
2.070000e-06	-1.013025e-06	7.212743e-11	-7.707105e+00	5.126836e-01
2.080000e-06	-1.003736e-06	7.528244e-11	-7.636428e+00	5.177669e-01
2.090000e-06	-9.944285e-07	8.055179e-11	-7.565620e+00	5.237538e-01
2.100000e-06	-9.851041e-07	8.481939e-11	-7.494679e+00	5.305865e-01
2.110000e-06	-9.757589e-07	8.143464e-11	-7.423581e+00	5.381485e-01
2.120000e-06	-9.663945e-07	7.756598e-11	-7.352337e+00	5.462681e-01
2.130000e-06	-9.569955e-07	7.453868e-11	-7.280829e+00	5.547251e-01
2.140000e-06	-9.475644e-07	7.086714e-11	-7.209077e+00	5.632606e-01
2.150000e-06	-9.381133e-07	6.778477e-11	-7.137173e+00	5.715889e-01
2.160000e-06	-9.286547e-07	6.366143e-11	-7.065212e+00	5.794117e-01
2.170000e-06	-9.191731e-07	6.831501e-11	-6.993076e+00	5.864327e-01
2.180000e-06	-9.096631e-07	7.821014e-11	-6.920724e+00	5.923737e-01
2.190000e-06	-9.001346e-07	8.273708e-11	-6.848231e+00	5.969896e-01
2.200000e-06	-8.905839e-07	8.006913e-11	-6.775569e+00	6.000823e-01
2.210000e-06	-8.810136e-07	7.693143e-11	-6.702758e+00	6.015128e-01
2.220000e-06	-8.714176e-07	8.001637e-11	-6.629752e+00	6.012111e-01
2.230000e-06	-8.617968e-07	8.284609e-11	-6.556557e+00	5.991819e-01
2.240000e-06	-8.521554e-07	7.635654e-11	-6.483205e+00	5.955080e-01
2.250000e-06	-8.424890e-07	6.687097e-11	-6.409663e+00	5.903492e-01
2.260000e-06	-8.328138e-07	6.738714e-11	-6.336053e+00	5.839373e-01
2.270000e-06	-8.231278e-07	7.558908e-11	-6.262363e+00	5.765681e-01
2.280000e-06	-8.134173e-07	8.089153e-11	-6.188485e+00	5.685892e-01
2.290000e-06	-8.036916e-07	8.214717e-11	-6.114492e+00	5.603855e-01
2.300000e-06	-7.939469e-07	8.336669e-11	-6.040354e+00	5.523627e-01
2.310000e-06	-7.841877e-07	8.824969e-11	-5.966106e+00	5.449289e-01
2.320000e-06	-7.744118e-07	9.038999e-11	-5.891731e+00	5.384758e-01
2.330000e-06	-7.646140e-07	8.212249e-11	-5.817189e+00	5.333607e-01
2.340000e-06	-7.547856e-07	7.220488e-11	-5.742414e+00	5.298890e-01
2.350000e-06	-7.449207e-07	7.322259e-11	-5.667362e+00	5.282994e-01
2.360000e-06	-7.350334e-07	8.332362e-11	-5.592139e+00	5.287518e-01
2.370000e-06	-7.251199e-07	9.111303e-11	-5.516718e+00	5.313184e-01
2.380000e-06	-7.151709e-07	9.254498e-11	-5.441026e+00	5.359790e-01
2.390000e-06	-7.052028e-07	9.131717e-11	-5.365188e+00	5.426202e-01
2.400000e-06	-6.952171e-07	9.390794e-11	-5.289217e+00	5.510390e-01
2.410000e-06	-6.852019e-07	9.313937e-11	-5.213021e+00	5.609508e-01
2.420000e-06	-6.751620e-07	8.538715e-11	-5.136637e+00	5.720002e-01
2.430000e-06	-6.651027e-07	7.982844e-11	-5.060106e+00	5.837765e-01
2.440000e-06	-6.550308e-07	8.023993e-11	-4.983479e+00	5.958304e-01
2.450000e-06	-6.449420e-07	8.226513e-11	-4.906724e+00	6.076934e-01
2.460000e-06	-6.348426e-07	8.138117e-11	-4.829887e+00	6.188976e-01
2.470000e-06	-6.247360e-07	8.307361e-11	-4.752996e+00	6.289954e-01
2.480000e-06	-6.146230e-07	9.039046e-11	-4.676057e+00	6.375790e-01
2.490000e-06	-6.045061e-07	9.690426e-11	-4.599087e+00	6.442972e-01
2.500000e-06	-5.943788e-07	9.728313e-11	-4.522038e+00	6.488698e-01
2.510000e-06	-5.842333e-07	9.235582e-11	-4.444851e+00	6.510987e-01
2.520000e-06	-5.740749e-07	8.643848e-11	-4.367566e+00	6.508758e-01
2.530000e-06	-5.638974e-07	8.326715e-11	-4.290136e+00	6.481857e-01
2.540000e-06	-5.537050e-07	7.991952e-11	-4.212592e+00	6.431051e-01
2.550000e-06	-5.435020e-07	7.367114e-11	-4.134967e+00	6.357975e-01
2.560000e-06	-5.332828e-07	7.358555e-11	-4.057220e+00	6.265049e-01
2.570000e-06	-5.230478e-07	8.261345e-11	-3.979351e+00	6.155345e-01
2.580000e-06	-5.127839e-07	9.060319e-11	-3.901264e+00	6.032447e-01
2.590000e-06	-5.025067e-07	9.228588e-11	-3.823075e+00	5.900275e-01
2.600000e-06	-4.922323e-07	8.942303e-11	-3.744907e+00	5.762903e-01
2.610000e-06	-4.819513e-07	8.801856e-11	-3.666689e+00	5.624377e-01
2.620000e-06	-4.716564e-07	8.735141e-11	-3.588366e+00	5.488532e-01
2.630000e-06	-4.613459e-07	8.141913e-11	-3.509923e+00	5.358834e-01
2.640000e-06	-4.510083e-07	7.379885e-11	-3.431275e+00	5.238230e-01
2.650000e-06	-4.406687e-07	7.099115e-11	-3.352610e+00	5.129037e-01
2.660000e-06	-4.303295e-07	7.418767e-11	-3.273950e+00	5.032862e-01
2.670000e-06	-4.199645e-07	7.737612e-11	-3.195093e+00	4.950554e-01
2.680000e-06	-4.095888e-07	7.866874e-11	-3.116155e+00	4.882196e-01
2.690000e-06	-3.991992e-07	7.877266e-11	-3.037110e+00	4.827137e-01
2.700000e-06	-3.887910e-07	7.407643e-11	-2.957925e+00	4.784053e-01
2.710000e-06	-3.783879e-07	6.534076e-11	-2.878778e+00	4.751040e-01
2.720000e-06	-3.679856e-07	5.651848e-11	-2.799637e+00	4.725736e-01
2.730000e-06	-3.575646e-07	5.288957e-11	-2.720354e+00	4.705454e-01
2.740000e-06	-3.471305e-07	5.063192e-11	-2.640972e+00	4.687331e-01
2.750000e-06	-3.366964e-07	5.123557e-11	-2.561589e+00	4.668481e-01
2.760000e-06	-3.262533e-07	5.515842e-11	-2.482138e+00	4.646136e-01
2.770000e-06	-3.158001e-07	6.021560e-11	-2.402609e+00	4.617786e-01
2.780000e-06	-3.053314e-07	6.747139e-11	-2.322964e+00	4.581293e-01
2.790000e-06	-2.948520e-07	7.213142e-11	-2.243236e+00	4.534981e-01
2.800000e-06	-2.843723e-07	7.500102e-11	-2.163507e+00	4.477707e-01
2.810000e-06	-2.738868e-07	7.365417e-11	-2.083732e+00	4.408890e-01
2.820000e-06	-2.633957e-07	7.095365e-11	-2.003916e+00	4.328520e-01
2.830000e-06	-2.529040e-07	6.657496e-11	-1.924096e+00	4.237131e-01
2.840000e-06	-2.424128e-07	5.885987e-11	-1.844279e+00	4.135748e-01
2.850000e-06	-2.319163e-07	5.513465e-11	-1.764421e+00	4.025813e-01
2.860000e-06	-2.214173e-07	5.638547e-11	-1.684544e+00	3.909090e-01
2.870000e-06	-2.109211e-07	6.085628e-11	-1.604689e+00	3.787555e-01
2.880000e-06	-2.004264e-07	6.406994e-11	-1.524846e+00	3.663289e-01
2.890000e-06	-1.899234e-07	6.601683e-11	-1.444939e+00	3.538359e-01
2.900000e-06	-1.794139e-07	6.840192e-11	-1.364982e+00	3.414716e-01
2.910000e-06	-1.689039e-07	7.035999e-11	-1.285022e+00	3.294097e-01
