# Temperatura_=_20.0
# Concentracion g/m^3_=_10000.0
# C_Vs_to_Am_M_A/Vsm_=_65563218390.804596
# pendiente_HvsI_1/m_=_3716.3
# ordenada_HvsI_A/m_=_1297.0
# frecuencia_Hz_=_81141.08737842194

Tiempo_(s)	Campo_(V.s)	Magnetizacion_(V.s)	Campo_(kA/m)	Magnetizacion_(A/m)
0.000000e+00	-2.073118e-06	-4.304792e-09	-1.577553e+01	-2.883079e+02
1.000000e-08	-2.073076e-06	-4.314489e-09	-1.577521e+01	-2.883171e+02
2.000000e-08	-2.073042e-06	-4.339667e-09	-1.577495e+01	-2.883313e+02
3.000000e-08	-2.072998e-06	-4.441572e-09	-1.577462e+01	-2.883523e+02
4.000000e-08	-2.072885e-06	-4.519918e-09	-1.577376e+01	-2.883820e+02
5.000000e-08	-2.072670e-06	-4.362493e-09	-1.577212e+01	-2.884217e+02
6.000000e-08	-2.072390e-06	-4.266278e-09	-1.576999e+01	-2.884728e+02
7.000000e-08	-2.072058e-06	-4.317847e-09	-1.576747e+01	-2.885358e+02
8.000000e-08	-2.071678e-06	-4.421076e-09	-1.576458e+01	-2.886111e+02
9.000000e-08	-2.071233e-06	-4.348497e-09	-1.576119e+01	-2.886987e+02
1.000000e-07	-2.070758e-06	-4.318662e-09	-1.575757e+01	-2.887981e+02
1.100000e-07	-2.070279e-06	-4.439159e-09	-1.575393e+01	-2.889082e+02
1.200000e-07	-2.069722e-06	-4.453107e-09	-1.574970e+01	-2.890279e+02
1.300000e-07	-2.069081e-06	-4.424078e-09	-1.574481e+01	-2.891554e+02
1.400000e-07	-2.068386e-06	-4.305047e-09	-1.573953e+01	-2.892889e+02
1.500000e-07	-2.067667e-06	-4.308844e-09	-1.573405e+01	-2.894260e+02
1.600000e-07	-2.066885e-06	-4.369035e-09	-1.572811e+01	-2.895646e+02
1.700000e-07	-2.066021e-06	-4.423429e-09	-1.572153e+01	-2.897022e+02
1.800000e-07	-2.065123e-06	-4.470276e-09	-1.571470e+01	-2.898364e+02
1.900000e-07	-2.064189e-06	-4.377135e-09	-1.570758e+01	-2.899648e+02
2.000000e-07	-2.063210e-06	-4.383575e-09	-1.570014e+01	-2.900853e+02
2.100000e-07	-2.062142e-06	-4.363518e-09	-1.569201e+01	-2.901959e+02
2.200000e-07	-2.061000e-06	-4.398173e-09	-1.568332e+01	-2.902949e+02
2.300000e-07	-2.059798e-06	-4.405769e-09	-1.567418e+01	-2.903809e+02
2.400000e-07	-2.058530e-06	-4.384492e-09	-1.566453e+01	-2.904528e+02
2.500000e-07	-2.057217e-06	-4.440166e-09	-1.565454e+01	-2.905098e+02
2.600000e-07	-2.055847e-06	-4.423058e-09	-1.564411e+01	-2.905517e+02
2.700000e-07	-2.054431e-06	-4.440547e-09	-1.563334e+01	-2.905781e+02
2.800000e-07	-2.052945e-06	-4.378148e-09	-1.562202e+01	-2.905893e+02
2.900000e-07	-2.051397e-06	-4.358279e-09	-1.561025e+01	-2.905855e+02
3.000000e-07	-2.049783e-06	-4.381593e-09	-1.559797e+01	-2.905674e+02
3.100000e-07	-2.048107e-06	-4.399536e-09	-1.558521e+01	-2.905354e+02
3.200000e-07	-2.046381e-06	-4.448397e-09	-1.557208e+01	-2.904903e+02
3.300000e-07	-2.044579e-06	-4.406599e-09	-1.555837e+01	-2.904325e+02
3.400000e-07	-2.042732e-06	-4.413103e-09	-1.554431e+01	-2.903625e+02
3.500000e-07	-2.040834e-06	-4.392723e-09	-1.552987e+01	-2.902807e+02
3.600000e-07	-2.038881e-06	-4.395981e-09	-1.551500e+01	-2.901873e+02
3.700000e-07	-2.036879e-06	-4.398953e-09	-1.549977e+01	-2.900822e+02
3.800000e-07	-2.034821e-06	-4.371398e-09	-1.548411e+01	-2.899652e+02
3.900000e-07	-2.032715e-06	-4.399203e-09	-1.546809e+01	-2.898359e+02
4.000000e-07	-2.030560e-06	-4.386780e-09	-1.545168e+01	-2.896937e+02
4.100000e-07	-2.028379e-06	-4.414872e-09	-1.543509e+01	-2.895378e+02
4.200000e-07	-2.026164e-06	-4.394613e-09	-1.541823e+01	-2.893674e+02
4.300000e-07	-2.023890e-06	-4.375275e-09	-1.540093e+01	-2.891816e+02
4.400000e-07	-2.021558e-06	-4.374932e-09	-1.538318e+01	-2.889797e+02
4.500000e-07	-2.019183e-06	-4.360162e-09	-1.536511e+01	-2.887609e+02
4.600000e-07	-2.016770e-06	-4.377022e-09	-1.534675e+01	-2.885246e+02
4.700000e-07	-2.014285e-06	-4.337636e-09	-1.532784e+01	-2.882704e+02
4.800000e-07	-2.011746e-06	-4.340138e-09	-1.530852e+01	-2.879983e+02
4.900000e-07	-2.009168e-06	-4.342713e-09	-1.528891e+01	-2.877085e+02
5.000000e-07	-2.006543e-06	-4.353982e-09	-1.526893e+01	-2.874015e+02
5.100000e-07	-2.003848e-06	-4.354487e-09	-1.524842e+01	-2.870781e+02
5.200000e-07	-2.001084e-06	-4.315096e-09	-1.522739e+01	-2.867394e+02
5.300000e-07	-1.998273e-06	-4.318988e-09	-1.520600e+01	-2.863871e+02
5.400000e-07	-1.995395e-06	-4.307225e-09	-1.518410e+01	-2.860227e+02
5.500000e-07	-1.992456e-06	-4.316453e-09	-1.516173e+01	-2.856482e+02
5.600000e-07	-1.989479e-06	-4.293872e-09	-1.513908e+01	-2.852657e+02
5.700000e-07	-1.986475e-06	-4.278663e-09	-1.511622e+01	-2.848774e+02
5.800000e-07	-1.983430e-06	-4.292375e-09	-1.509305e+01	-2.844855e+02
5.900000e-07	-1.980324e-06	-4.284485e-09	-1.506941e+01	-2.840921e+02
6.000000e-07	-1.977165e-06	-4.283363e-09	-1.504538e+01	-2.836994e+02
6.100000e-07	-1.973973e-06	-4.245927e-09	-1.502108e+01	-2.833091e+02
6.200000e-07	-1.970741e-06	-4.248227e-09	-1.499649e+01	-2.829229e+02
6.300000e-07	-1.967433e-06	-4.255296e-09	-1.497132e+01	-2.825422e+02
6.400000e-07	-1.964062e-06	-4.248865e-09	-1.494566e+01	-2.821682e+02
6.500000e-07	-1.960657e-06	-4.238743e-09	-1.491976e+01	-2.818016e+02
6.600000e-07	-1.957217e-06	-4.216706e-09	-1.489358e+01	-2.814429e+02
6.700000e-07	-1.953711e-06	-4.233384e-09	-1.486690e+01	-2.810924e+02
6.800000e-07	-1.950118e-06	-4.224988e-09	-1.483956e+01	-2.807501e+02
6.900000e-07	-1.946482e-06	-4.214001e-09	-1.481189e+01	-2.804157e+02
7.000000e-07	-1.942803e-06	-4.199249e-09	-1.478389e+01	-2.800889e+02
7.100000e-07	-1.939068e-06	-4.202689e-09	-1.475547e+01	-2.797689e+02
7.200000e-07	-1.935294e-06	-4.220104e-09	-1.472675e+01	-2.794551e+02
7.300000e-07	-1.931476e-06	-4.202432e-09	-1.469770e+01	-2.791469e+02
7.400000e-07	-1.927612e-06	-4.193746e-09	-1.466830e+01	-2.788433e+02
7.500000e-07	-1.923692e-06	-4.181062e-09	-1.463847e+01	-2.785437e+02
7.600000e-07	-1.919726e-06	-4.191356e-09	-1.460828e+01	-2.782473e+02
7.700000e-07	-1.915703e-06	-4.189831e-09	-1.457768e+01	-2.779534e+02
7.800000e-07	-1.911631e-06	-4.171305e-09	-1.454669e+01	-2.776612e+02
7.900000e-07	-1.907536e-06	-4.165555e-09	-1.451553e+01	-2.773702e+02
8.000000e-07	-1.903396e-06	-4.158832e-09	-1.448403e+01	-2.770796e+02
8.100000e-07	-1.899210e-06	-4.169632e-09	-1.445217e+01	-2.767888e+02
8.200000e-07	-1.894970e-06	-4.156104e-09	-1.441991e+01	-2.764971e+02
8.300000e-07	-1.890680e-06	-4.148222e-09	-1.438726e+01	-2.762037e+02
8.400000e-07	-1.886322e-06	-4.149917e-09	-1.435410e+01	-2.759078e+02
8.500000e-07	-1.881894e-06	-4.151477e-09	-1.432040e+01	-2.756085e+02
8.600000e-07	-1.877422e-06	-4.148536e-09	-1.428637e+01	-2.753047e+02
8.700000e-07	-1.872897e-06	-4.123128e-09	-1.425194e+01	-2.749952e+02
8.800000e-07	-1.868328e-06	-4.120567e-09	-1.421717e+01	-2.746788e+02
8.900000e-07	-1.863707e-06	-4.120713e-09	-1.418201e+01	-2.743542e+02
9.000000e-07	-1.859044e-06	-4.122657e-09	-1.414652e+01	-2.740198e+02
9.100000e-07	-1.854336e-06	-4.114180e-09	-1.411070e+01	-2.736743e+02
9.200000e-07	-1.849584e-06	-4.101068e-09	-1.407453e+01	-2.733161e+02
9.300000e-07	-1.844804e-06	-4.103855e-09	-1.403816e+01	-2.729438e+02
9.400000e-07	-1.839976e-06	-4.097328e-09	-1.400142e+01	-2.725562e+02
9.500000e-07	-1.835096e-06	-4.091277e-09	-1.396429e+01	-2.721521e+02
9.600000e-07	-1.830159e-06	-4.074192e-09	-1.392672e+01	-2.717306e+02
9.700000e-07	-1.825160e-06	-4.069361e-09	-1.388868e+01	-2.712909e+02
9.800000e-07	-1.820099e-06	-4.068624e-09	-1.385017e+01	-2.708327e+02
9.900000e-07	-1.814970e-06	-4.055503e-09	-1.381114e+01	-2.703558e+02
1.000000e-06	-1.809781e-06	-4.041242e-09	-1.377166e+01	-2.698605e+02
1.010000e-06	-1.804530e-06	-4.023429e-09	-1.373169e+01	-2.693472e+02
1.020000e-06	-1.799226e-06	-4.024996e-09	-1.369134e+01	-2.688169e+02
1.030000e-06	-1.793877e-06	-4.022246e-09	-1.365063e+01	-2.682706e+02
1.040000e-06	-1.788488e-06	-4.013472e-09	-1.360962e+01	-2.677096e+02
1.050000e-06	-1.783054e-06	-4.000233e-09	-1.356827e+01	-2.671354e+02
1.060000e-06	-1.777556e-06	-3.986724e-09	-1.352643e+01	-2.665496e+02
1.070000e-06	-1.772015e-06	-3.978610e-09	-1.348427e+01	-2.659539e+02
1.080000e-06	-1.766434e-06	-3.958337e-09	-1.344180e+01	-2.653497e+02
1.090000e-06	-1.760813e-06	-3.944121e-09	-1.339903e+01	-2.647387e+02
1.100000e-06	-1.755149e-06	-3.937072e-09	-1.335593e+01	-2.641222e+02
1.110000e-06	-1.749438e-06	-3.936569e-09	-1.331247e+01	-2.635014e+02
1.120000e-06	-1.743691e-06	-3.928791e-09	-1.326874e+01	-2.628772e+02
1.130000e-06	-1.737905e-06	-3.911324e-09	-1.322471e+01	-2.622502e+02
1.140000e-06	-1.732074e-06	-3.900869e-09	-1.318033e+01	-2.616207e+02
1.150000e-06	-1.726198e-06	-3.892182e-09	-1.313562e+01	-2.609890e+02
1.160000e-06	-1.720254e-06	-3.884174e-09	-1.309039e+01	-2.603547e+02
1.170000e-06	-1.714234e-06	-3.866576e-09	-1.304458e+01	-2.597175e+02
1.180000e-06	-1.708172e-06	-3.849367e-09	-1.299846e+01	-2.590768e+02
1.190000e-06	-1.702073e-06	-3.839508e-09	-1.295204e+01	-2.584319e+02
1.200000e-06	-1.695937e-06	-3.834335e-09	-1.290535e+01	-2.577821e+02
1.210000e-06	-1.689775e-06	-3.830966e-09	-1.285846e+01	-2.571266e+02
1.220000e-06	-1.683573e-06	-3.820618e-09	-1.281127e+01	-2.564648e+02
1.230000e-06	-1.677335e-06	-3.814834e-09	-1.276379e+01	-2.557961e+02
1.240000e-06	-1.671055e-06	-3.807734e-09	-1.271601e+01	-2.551202e+02
1.250000e-06	-1.664729e-06	-3.792330e-09	-1.266787e+01	-2.544369e+02
1.260000e-06	-1.658366e-06	-3.769904e-09	-1.261945e+01	-2.537463e+02
1.270000e-06	-1.651965e-06	-3.748804e-09	-1.257074e+01	-2.530488e+02
1.280000e-06	-1.645524e-06	-3.740602e-09	-1.252173e+01	-2.523452e+02
1.290000e-06	-1.639040e-06	-3.736952e-09	-1.247239e+01	-2.516362e+02
1.300000e-06	-1.632513e-06	-3.733983e-09	-1.242272e+01	-2.509230e+02
1.310000e-06	-1.625946e-06	-3.728719e-09	-1.237275e+01	-2.502069e+02
1.320000e-06	-1.619330e-06	-3.723546e-09	-1.232240e+01	-2.494893e+02
1.330000e-06	-1.612672e-06	-3.712694e-09	-1.227174e+01	-2.487716e+02
1.340000e-06	-1.605966e-06	-3.692785e-09	-1.222071e+01	-2.480553e+02
1.350000e-06	-1.599190e-06	-3.674868e-09	-1.216915e+01	-2.473416e+02
1.360000e-06	-1.592367e-06	-3.663312e-09	-1.211722e+01	-2.466320e+02
1.370000e-06	-1.585502e-06	-3.659450e-09	-1.206499e+01	-2.459273e+02
1.380000e-06	-1.578607e-06	-3.651091e-09	-1.201252e+01	-2.452283e+02
1.390000e-06	-1.571696e-06	-3.638880e-09	-1.195993e+01	-2.445356e+02
1.400000e-06	-1.564758e-06	-3.629135e-09	-1.190714e+01	-2.438494e+02
1.410000e-06	-1.557779e-06	-3.620077e-09	-1.185403e+01	-2.431697e+02
1.420000e-06	-1.550752e-06	-3.613288e-09	-1.180056e+01	-2.424959e+02
1.430000e-06	-1.543686e-06	-3.602588e-09	-1.174679e+01	-2.418275e+02
1.440000e-06	-1.536578e-06	-3.592377e-09	-1.169270e+01	-2.411637e+02
1.450000e-06	-1.529426e-06	-3.583493e-09	-1.163827e+01	-2.405033e+02
1.460000e-06	-1.522239e-06	-3.572646e-09	-1.158358e+01	-2.398450e+02
1.470000e-06	-1.515008e-06	-3.560467e-09	-1.152856e+01	-2.391877e+02
1.480000e-06	-1.507746e-06	-3.544965e-09	-1.147330e+01	-2.385300e+02
1.490000e-06	-1.500453e-06	-3.534978e-09	-1.141780e+01	-2.378704e+02
1.500000e-06	-1.493124e-06	-3.528420e-09	-1.136203e+01	-2.372079e+02
1.510000e-06	-1.485771e-06	-3.518742e-09	-1.130608e+01	-2.365411e+02
1.520000e-06	-1.478366e-06	-3.507317e-09	-1.124972e+01	-2.358691e+02
1.530000e-06	-1.470905e-06	-3.494212e-09	-1.119296e+01	-2.351911e+02
1.540000e-06	-1.463398e-06	-3.485721e-09	-1.113583e+01	-2.345063e+02
1.550000e-06	-1.455848e-06	-3.477297e-09	-1.107837e+01	-2.338142e+02
1.560000e-06	-1.448248e-06	-3.466071e-09	-1.102054e+01	-2.331145e+02
1.570000e-06	-1.440587e-06	-3.453023e-09	-1.096224e+01	-2.324068e+02
1.580000e-06	-1.432885e-06	-3.435136e-09	-1.090364e+01	-2.316911e+02
1.590000e-06	-1.425154e-06	-3.420148e-09	-1.084480e+01	-2.309672e+02
1.600000e-06	-1.417394e-06	-3.406967e-09	-1.078575e+01	-2.302352e+02
1.610000e-06	-1.409605e-06	-3.397301e-09	-1.072648e+01	-2.294950e+02
1.620000e-06	-1.401775e-06	-3.388176e-09	-1.066691e+01	-2.287466e+02
1.630000e-06	-1.393905e-06	-3.382131e-09	-1.060702e+01	-2.279898e+02
1.640000e-06	-1.385994e-06	-3.377222e-09	-1.054682e+01	-2.272246e+02
1.650000e-06	-1.378042e-06	-3.364930e-09	-1.048630e+01	-2.264507e+02
1.660000e-06	-1.370044e-06	-3.351409e-09	-1.042545e+01	-2.256678e+02
1.670000e-06	-1.362014e-06	-3.332006e-09	-1.036434e+01	-2.248756e+02
1.680000e-06	-1.353934e-06	-3.312306e-09	-1.030285e+01	-2.240736e+02
1.690000e-06	-1.345783e-06	-3.295928e-09	-1.024082e+01	-2.232615e+02
1.700000e-06	-1.337595e-06	-3.282030e-09	-1.017852e+01	-2.224390e+02
1.710000e-06	-1.329384e-06	-3.269987e-09	-1.011604e+01	-2.216056e+02
1.720000e-06	-1.321151e-06	-3.254792e-09	-1.005339e+01	-2.207612e+02
1.730000e-06	-1.312896e-06	-3.244655e-09	-9.990572e+00	-2.199056e+02
1.740000e-06	-1.304603e-06	-3.232961e-09	-9.927468e+00	-2.190389e+02
1.750000e-06	-1.296279e-06	-3.218956e-09	-9.864122e+00	-2.181612e+02
1.760000e-06	-1.287923e-06	-3.204324e-09	-9.800536e+00	-2.172730e+02
1.770000e-06	-1.279528e-06	-3.186953e-09	-9.736653e+00	-2.163748e+02
1.780000e-06	-1.271106e-06	-3.169232e-09	-9.672565e+00	-2.154674e+02
1.790000e-06	-1.262658e-06	-3.150062e-09	-9.608280e+00	-2.145517e+02
1.800000e-06	-1.254183e-06	-3.136796e-09	-9.543791e+00	-2.136286e+02
1.810000e-06	-1.245687e-06	-3.122115e-09	-9.479137e+00	-2.126994e+02
1.820000e-06	-1.237170e-06	-3.105985e-09	-9.414327e+00	-2.117652e+02
1.830000e-06	-1.228616e-06	-3.091559e-09	-9.349240e+00	-2.108272e+02
1.840000e-06	-1.220046e-06	-3.077944e-09	-9.284025e+00	-2.098866e+02
1.850000e-06	-1.211459e-06	-3.063974e-09	-9.218679e+00	-2.089443e+02
1.860000e-06	-1.202833e-06	-3.045831e-09	-9.153041e+00	-2.080012e+02
1.870000e-06	-1.194170e-06	-3.029855e-09	-9.087118e+00	-2.070582e+02
1.880000e-06	-1.185473e-06	-3.013452e-09	-9.020939e+00	-2.061157e+02
1.890000e-06	-1.176755e-06	-2.997383e-09	-8.954597e+00	-2.051741e+02
1.900000e-06	-1.168013e-06	-2.983740e-09	-8.888072e+00	-2.042335e+02
1.910000e-06	-1.159244e-06	-2.969421e-09	-8.821349e+00	-2.032937e+02
1.920000e-06	-1.150459e-06	-2.956620e-09	-8.754498e+00	-2.023545e+02
1.930000e-06	-1.141646e-06	-2.943436e-09	-8.687435e+00	-2.014153e+02
1.940000e-06	-1.132793e-06	-2.933592e-09	-8.620067e+00	-2.004756e+02
1.950000e-06	-1.123921e-06	-2.922700e-09	-8.552554e+00	-1.995347e+02
1.960000e-06	-1.115019e-06	-2.907751e-09	-8.484815e+00	-1.985919e+02
1.970000e-06	-1.106090e-06	-2.890836e-09	-8.416866e+00	-1.976465e+02
1.980000e-06	-1.097146e-06	-2.870970e-09	-8.348806e+00	-1.966981e+02
1.990000e-06	-1.088178e-06	-2.851913e-09	-8.280566e+00	-1.957461e+02
2.000000e-06	-1.079177e-06	-2.834516e-09	-8.212070e+00	-1.947902e+02
2.010000e-06	-1.070141e-06	-2.821916e-09	-8.143313e+00	-1.938304e+02
2.020000e-06	-1.061057e-06	-2.809475e-09	-8.074187e+00	-1.928669e+02
2.030000e-06	-1.051917e-06	-2.796949e-09	-8.004637e+00	-1.918999e+02
2.040000e-06	-1.042736e-06	-2.784652e-09	-7.934769e+00	-1.909301e+02
2.050000e-06	-1.033514e-06	-2.771682e-09	-7.864597e+00	-1.899583e+02
2.060000e-06	-1.024267e-06	-2.758883e-09	-7.794233e+00	-1.889853e+02
2.070000e-06	-1.015004e-06	-2.739707e-09	-7.723746e+00	-1.880123e+02
2.080000e-06	-1.005718e-06	-2.718079e-09	-7.653084e+00	-1.870403e+02
2.090000e-06	-9.964150e-07	-2.700886e-09	-7.582288e+00	-1.860704e+02
2.100000e-06	-9.871009e-07	-2.685762e-09	-7.511412e+00	-1.851038e+02
2.110000e-06	-9.777712e-07	-2.667797e-09	-7.440417e+00	-1.841413e+02
2.120000e-06	-9.684210e-07	-2.652290e-09	-7.369266e+00	-1.831837e+02
2.130000e-06	-9.590540e-07	-2.644043e-09	-7.297987e+00	-1.822316e+02
2.140000e-06	-9.496711e-07	-2.636596e-09	-7.226587e+00	-1.812852e+02
2.150000e-06	-9.402581e-07	-2.624678e-09	-7.154959e+00	-1.803446e+02
2.160000e-06	-9.308078e-07	-2.605344e-09	-7.083046e+00	-1.794095e+02
2.170000e-06	-9.213312e-07	-2.583057e-09	-7.010933e+00	-1.784793e+02
2.180000e-06	-9.118293e-07	-2.561214e-09	-6.938628e+00	-1.775530e+02
2.190000e-06	-9.023027e-07	-2.543499e-09	-6.866134e+00	-1.766296e+02
2.200000e-06	-8.927549e-07	-2.533489e-09	-6.793480e+00	-1.757077e+02
2.210000e-06	-8.831890e-07	-2.525524e-09	-6.720687e+00	-1.747857e+02
2.220000e-06	-8.735946e-07	-2.519042e-09	-6.647678e+00	-1.738621e+02
2.230000e-06	-8.639799e-07	-2.508576e-09	-6.574514e+00	-1.729350e+02
2.240000e-06	-8.543412e-07	-2.493842e-09	-6.501168e+00	-1.720027e+02
2.250000e-06	-8.446685e-07	-2.477715e-09	-6.427563e+00	-1.710636e+02
2.260000e-06	-8.349956e-07	-2.459645e-09	-6.353957e+00	-1.701160e+02
2.270000e-06	-8.253233e-07	-2.441663e-09	-6.280355e+00	-1.691585e+02
2.280000e-06	-8.156316e-07	-2.423568e-09	-6.206605e+00	-1.681900e+02
2.290000e-06	-8.059134e-07	-2.409126e-09	-6.132654e+00	-1.672092e+02
2.300000e-06	-7.961847e-07	-2.396611e-09	-6.058623e+00	-1.662155e+02
2.310000e-06	-7.864361e-07	-2.385045e-09	-5.984440e+00	-1.652082e+02
2.320000e-06	-7.766646e-07	-2.373954e-09	-5.910082e+00	-1.641870e+02
2.330000e-06	-7.668716e-07	-2.361443e-09	-5.835562e+00	-1.631517e+02
2.340000e-06	-7.570567e-07	-2.348388e-09	-5.760875e+00	-1.621024e+02
2.350000e-06	-7.472215e-07	-2.330710e-09	-5.686034e+00	-1.610393e+02
2.360000e-06	-7.373397e-07	-2.308749e-09	-5.610837e+00	-1.599627e+02
2.370000e-06	-7.274256e-07	-2.285427e-09	-5.535395e+00	-1.588729e+02
2.380000e-06	-7.174899e-07	-2.264025e-09	-5.459789e+00	-1.577705e+02
2.390000e-06	-7.075139e-07	-2.246945e-09	-5.383875e+00	-1.566560e+02
2.400000e-06	-6.975141e-07	-2.230852e-09	-5.307782e+00	-1.555298e+02
2.410000e-06	-6.874993e-07	-2.214835e-09	-5.231573e+00	-1.543924e+02
2.420000e-06	-6.774638e-07	-2.199168e-09	-5.155207e+00	-1.532441e+02
2.430000e-06	-6.674088e-07	-2.184233e-09	-5.078693e+00	-1.520855e+02
2.440000e-06	-6.573331e-07	-2.166480e-09	-5.002021e+00	-1.509167e+02
2.450000e-06	-6.472451e-07	-2.145533e-09	-4.925256e+00	-1.497382e+02
2.460000e-06	-6.371564e-07	-2.126569e-09	-4.848486e+00	-1.485501e+02
2.470000e-06	-6.270600e-07	-2.109149e-09	-4.771656e+00	-1.473527e+02
2.480000e-06	-6.169557e-07	-2.092708e-09	-4.694767e+00	-1.461463e+02
2.490000e-06	-6.068483e-07	-2.073864e-09	-4.617854e+00	-1.449312e+02
2.500000e-06	-5.967295e-07	-2.052953e-09	-4.540854e+00	-1.437077e+02
2.510000e-06	-5.866012e-07	-2.034337e-09	-4.463782e+00	-1.424763e+02
2.520000e-06	-5.764527e-07	-2.018995e-09	-4.386557e+00	-1.412376e+02
2.530000e-06	-5.662842e-07	-2.004587e-09	-4.309179e+00	-1.399920e+02
2.540000e-06	-5.561125e-07	-1.987066e-09	-4.231777e+00	-1.387403e+02
2.550000e-06	-5.459191e-07	-1.968791e-09	-4.154209e+00	-1.374833e+02
2.560000e-06	-5.357024e-07	-1.950875e-09	-4.076464e+00	-1.362219e+02
2.570000e-06	-5.254864e-07	-1.931978e-09	-3.998725e+00	-1.349570e+02
2.580000e-06	-5.152710e-07	-1.911632e-09	-3.920990e+00	-1.336897e+02
2.590000e-06	-5.050299e-07	-1.891269e-09	-3.843060e+00	-1.324209e+02
2.600000e-06	-4.947652e-07	-1.875040e-09	-3.764950e+00	-1.311518e+02
2.610000e-06	-4.844924e-07	-1.859723e-09	-3.686778e+00	-1.298832e+02
2.620000e-06	-4.742019e-07	-1.841974e-09	-3.608472e+00	-1.286163e+02
2.630000e-06	-4.638859e-07	-1.822900e-09	-3.529972e+00	-1.273519e+02
2.640000e-06	-4.535644e-07	-1.805692e-09	-3.451429e+00	-1.260907e+02
2.650000e-06	-4.432407e-07	-1.791429e-09	-3.372871e+00	-1.248337e+02
2.660000e-06	-4.328988e-07	-1.777008e-09	-3.294174e+00	-1.235812e+02
2.670000e-06	-4.225474e-07	-1.760004e-09	-3.215403e+00	-1.223340e+02
2.680000e-06	-4.121806e-07	-1.741363e-09	-3.136517e+00	-1.210922e+02
2.690000e-06	-4.018073e-07	-1.723561e-09	-3.057580e+00	-1.198562e+02
2.700000e-06	-3.914274e-07	-1.705843e-09	-2.978594e+00	-1.186260e+02
2.710000e-06	-3.810306e-07	-1.687869e-09	-2.899478e+00	-1.174018e+02
2.720000e-06	-3.706188e-07	-1.670469e-09	-2.820250e+00	-1.161835e+02
2.730000e-06	-3.601947e-07	-1.656076e-09	-2.740927e+00	-1.149710e+02
2.740000e-06	-3.497660e-07	-1.644411e-09	-2.661568e+00	-1.137640e+02
2.750000e-06	-3.393288e-07	-1.627507e-09	-2.582146e+00	-1.125623e+02
2.760000e-06	-3.288782e-07	-1.607274e-09	-2.502621e+00	-1.113656e+02
2.770000e-06	-3.184151e-07	-1.586252e-09	-2.423002e+00	-1.101734e+02
2.780000e-06	-3.079487e-07	-1.565684e-09	-2.343357e+00	-1.089854e+02
2.790000e-06	-2.974862e-07	-1.549383e-09	-2.263741e+00	-1.078010e+02
2.800000e-06	-2.870204e-07	-1.533738e-09	-2.184101e+00	-1.066196e+02
2.810000e-06	-2.765437e-07	-1.518445e-09	-2.104378e+00	-1.054405e+02
2.820000e-06	-2.660563e-07	-1.499567e-09	-2.024574e+00	-1.042630e+02
2.830000e-06	-2.555657e-07	-1.478262e-09	-1.944745e+00	-1.030863e+02
2.840000e-06	-2.450720e-07	-1.457445e-09	-1.864892e+00	-1.019092e+02
