# Temperatura_=_20.0
# Concentracion g/m^3_=_10000.0
# C_Vs_to_Am_M_A/Vsm_=_65563218390.804596
# pendiente_HvsI_1/m_=_3716.3
# ordenada_HvsI_A/m_=_1297.0
# frecuencia_Hz_=_135257.7442582157

Tiempo_(s)	Campo_(V.s)	Magnetizacion_(V.s)	Campo_(kA/m)	Magnetizacion_(A/m)
0.000000e+00	-3.189663e-06	-7.026365e-09	-2.355509e+01	-4.561688e+02
1.000000e-08	-3.189691e-06	-7.032640e-09	-2.355530e+01	-4.562383e+02
2.000000e-08	-3.189520e-06	-7.035343e-09	-2.355403e+01	-4.562827e+02
3.000000e-08	-3.189155e-06	-7.034383e-09	-2.355134e+01	-4.563074e+02
4.000000e-08	-3.188513e-06	-7.033769e-09	-2.354660e+01	-4.563182e+02
5.000000e-08	-3.187615e-06	-7.029231e-09	-2.353997e+01	-4.563205e+02
6.000000e-08	-3.186495e-06	-7.014245e-09	-2.353170e+01	-4.563190e+02
7.000000e-08	-3.184990e-06	-7.010207e-09	-2.352058e+01	-4.563171e+02
8.000000e-08	-3.183082e-06	-7.031319e-09	-2.350649e+01	-4.563163e+02
9.000000e-08	-3.181126e-06	-7.072701e-09	-2.349205e+01	-4.563162e+02
1.000000e-07	-3.179029e-06	-7.107856e-09	-2.347656e+01	-4.563148e+02
1.100000e-07	-3.176665e-06	-6.943001e-09	-2.345910e+01	-4.563086e+02
1.200000e-07	-3.174308e-06	-6.997849e-09	-2.344170e+01	-4.562931e+02
1.300000e-07	-3.171619e-06	-7.052329e-09	-2.342184e+01	-4.562638e+02
1.400000e-07	-3.168462e-06	-7.017521e-09	-2.339853e+01	-4.562160e+02
1.500000e-07	-3.165090e-06	-6.984876e-09	-2.337363e+01	-4.561462e+02
1.600000e-07	-3.161588e-06	-6.999980e-09	-2.334776e+01	-4.560517e+02
1.700000e-07	-3.157853e-06	-7.038438e-09	-2.332018e+01	-4.559311e+02
1.800000e-07	-3.153882e-06	-7.019519e-09	-2.329085e+01	-4.557840e+02
1.900000e-07	-3.149661e-06	-7.046979e-09	-2.325968e+01	-4.556111e+02
2.000000e-07	-3.145209e-06	-6.979872e-09	-2.322681e+01	-4.554133e+02
2.100000e-07	-3.140597e-06	-6.975499e-09	-2.319275e+01	-4.551917e+02
2.200000e-07	-3.135803e-06	-6.985149e-09	-2.315734e+01	-4.549470e+02
2.300000e-07	-3.130729e-06	-7.015920e-09	-2.311988e+01	-4.546793e+02
2.400000e-07	-3.125390e-06	-6.965847e-09	-2.308044e+01	-4.543883e+02
2.500000e-07	-3.119894e-06	-6.968340e-09	-2.303986e+01	-4.540729e+02
2.600000e-07	-3.114151e-06	-6.954522e-09	-2.299745e+01	-4.537317e+02
2.700000e-07	-3.108142e-06	-6.986146e-09	-2.295307e+01	-4.533635e+02
2.800000e-07	-3.101946e-06	-6.940579e-09	-2.290731e+01	-4.529671e+02
2.900000e-07	-3.095556e-06	-6.924907e-09	-2.286013e+01	-4.525426e+02
3.000000e-07	-3.088875e-06	-6.927111e-09	-2.281079e+01	-4.520908e+02
3.100000e-07	-3.081987e-06	-6.938621e-09	-2.275993e+01	-4.516135e+02
3.200000e-07	-3.074979e-06	-6.937462e-09	-2.270817e+01	-4.511134e+02
3.300000e-07	-3.067804e-06	-6.915401e-09	-2.265518e+01	-4.505938e+02
3.400000e-07	-3.060317e-06	-6.880758e-09	-2.259989e+01	-4.500580e+02
3.500000e-07	-3.052589e-06	-6.851614e-09	-2.254282e+01	-4.495089e+02
3.600000e-07	-3.044679e-06	-6.894355e-09	-2.248441e+01	-4.489485e+02
3.700000e-07	-3.036509e-06	-6.889226e-09	-2.242407e+01	-4.483774e+02
3.800000e-07	-3.028043e-06	-6.855573e-09	-2.236156e+01	-4.477946e+02
3.900000e-07	-3.019407e-06	-6.826658e-09	-2.229778e+01	-4.471977e+02
4.000000e-07	-3.010579e-06	-6.865020e-09	-2.223259e+01	-4.465833e+02
4.100000e-07	-3.001495e-06	-6.842906e-09	-2.216551e+01	-4.459471e+02
4.200000e-07	-2.992179e-06	-6.807552e-09	-2.209671e+01	-4.452848e+02
4.300000e-07	-2.982670e-06	-6.777223e-09	-2.202648e+01	-4.445931e+02
4.400000e-07	-2.972982e-06	-6.796458e-09	-2.195494e+01	-4.438693e+02
4.500000e-07	-2.963091e-06	-6.782247e-09	-2.188190e+01	-4.431130e+02
4.600000e-07	-2.952936e-06	-6.767193e-09	-2.180690e+01	-4.423253e+02
4.700000e-07	-2.942458e-06	-6.735971e-09	-2.172953e+01	-4.415092e+02
4.800000e-07	-2.931715e-06	-6.721533e-09	-2.165019e+01	-4.406690e+02
4.900000e-07	-2.920767e-06	-6.722038e-09	-2.156934e+01	-4.398099e+02
5.000000e-07	-2.909609e-06	-6.725978e-09	-2.148694e+01	-4.389372e+02
5.100000e-07	-2.898234e-06	-6.692140e-09	-2.140294e+01	-4.380555e+02
5.200000e-07	-2.886673e-06	-6.662230e-09	-2.131756e+01	-4.371681e+02
5.300000e-07	-2.874863e-06	-6.670374e-09	-2.123035e+01	-4.362766e+02
5.400000e-07	-2.862821e-06	-6.663931e-09	-2.114142e+01	-4.353808e+02
5.500000e-07	-2.850592e-06	-6.634662e-09	-2.105111e+01	-4.344785e+02
5.600000e-07	-2.838193e-06	-6.608514e-09	-2.095955e+01	-4.335663e+02
5.700000e-07	-2.825597e-06	-6.608695e-09	-2.086653e+01	-4.326398e+02
5.800000e-07	-2.812817e-06	-6.596838e-09	-2.077215e+01	-4.316947e+02
5.900000e-07	-2.799867e-06	-6.580401e-09	-2.067652e+01	-4.307273e+02
6.000000e-07	-2.786696e-06	-6.545943e-09	-2.057925e+01	-4.297350e+02
6.100000e-07	-2.773250e-06	-6.528372e-09	-2.047996e+01	-4.287169e+02
6.200000e-07	-2.759578e-06	-6.522914e-09	-2.037899e+01	-4.276739e+02
6.300000e-07	-2.745743e-06	-6.519913e-09	-2.027682e+01	-4.266081e+02
6.400000e-07	-2.731735e-06	-6.489563e-09	-2.017337e+01	-4.255230e+02
6.500000e-07	-2.717530e-06	-6.469515e-09	-2.006847e+01	-4.244222e+02
6.600000e-07	-2.703121e-06	-6.460789e-09	-1.996206e+01	-4.233089e+02
6.700000e-07	-2.688541e-06	-6.450768e-09	-1.985439e+01	-4.221855e+02
6.800000e-07	-2.673803e-06	-6.423299e-09	-1.974556e+01	-4.210527e+02
6.900000e-07	-2.658848e-06	-6.397863e-09	-1.963512e+01	-4.199093e+02
7.000000e-07	-2.643629e-06	-6.382379e-09	-1.952273e+01	-4.187526e+02
7.100000e-07	-2.628204e-06	-6.373065e-09	-1.940882e+01	-4.175783e+02
7.200000e-07	-2.612605e-06	-6.355872e-09	-1.929362e+01	-4.163812e+02
7.300000e-07	-2.596778e-06	-6.324512e-09	-1.917674e+01	-4.151561e+02
7.400000e-07	-2.580686e-06	-6.297722e-09	-1.905790e+01	-4.138987e+02
7.500000e-07	-2.564384e-06	-6.284968e-09	-1.893752e+01	-4.126059e+02
7.600000e-07	-2.547916e-06	-6.271693e-09	-1.881591e+01	-4.112767e+02
7.700000e-07	-2.531250e-06	-6.241295e-09	-1.869283e+01	-4.099123e+02
7.800000e-07	-2.514392e-06	-6.216305e-09	-1.856834e+01	-4.085159e+02
7.900000e-07	-2.497405e-06	-6.199602e-09	-1.844289e+01	-4.070924e+02
8.000000e-07	-2.480312e-06	-6.185271e-09	-1.831666e+01	-4.056478e+02
8.100000e-07	-2.463081e-06	-6.160056e-09	-1.818941e+01	-4.041880e+02
8.200000e-07	-2.445680e-06	-6.130749e-09	-1.806091e+01	-4.027187e+02
8.300000e-07	-2.428089e-06	-6.106356e-09	-1.793100e+01	-4.012437e+02
8.400000e-07	-2.410341e-06	-6.090784e-09	-1.779994e+01	-3.997652e+02
8.500000e-07	-2.392484e-06	-6.067966e-09	-1.766807e+01	-3.982832e+02
8.600000e-07	-2.374440e-06	-6.039382e-09	-1.753481e+01	-3.967954e+02
8.700000e-07	-2.356134e-06	-6.013361e-09	-1.739963e+01	-3.952981e+02
8.800000e-07	-2.337628e-06	-5.992758e-09	-1.726296e+01	-3.937866e+02
8.900000e-07	-2.318995e-06	-5.969887e-09	-1.712536e+01	-3.922557e+02
9.000000e-07	-2.300220e-06	-5.939282e-09	-1.698671e+01	-3.907011e+02
9.100000e-07	-2.281277e-06	-5.905428e-09	-1.684682e+01	-3.891195e+02
9.200000e-07	-2.262168e-06	-5.879010e-09	-1.670571e+01	-3.875094e+02
9.300000e-07	-2.242904e-06	-5.858741e-09	-1.656345e+01	-3.858712e+02
9.400000e-07	-2.223509e-06	-5.832826e-09	-1.642022e+01	-3.842071e+02
9.500000e-07	-2.203973e-06	-5.803401e-09	-1.627595e+01	-3.825205e+02
9.600000e-07	-2.184229e-06	-5.779544e-09	-1.613014e+01	-3.808156e+02
9.700000e-07	-2.164271e-06	-5.760171e-09	-1.598275e+01	-3.790965e+02
9.800000e-07	-2.144151e-06	-5.733686e-09	-1.583418e+01	-3.773667e+02
9.900000e-07	-2.123904e-06	-5.699388e-09	-1.568465e+01	-3.756281e+02
1.000000e-06	-2.103543e-06	-5.664160e-09	-1.553429e+01	-3.738813e+02
1.010000e-06	-2.083034e-06	-5.636306e-09	-1.538284e+01	-3.721245e+02
1.020000e-06	-2.062354e-06	-5.610443e-09	-1.523012e+01	-3.703548e+02
1.030000e-06	-2.041524e-06	-5.581267e-09	-1.507629e+01	-3.685678e+02
1.040000e-06	-2.020571e-06	-5.551490e-09	-1.492156e+01	-3.667586e+02
1.050000e-06	-1.999510e-06	-5.526942e-09	-1.476602e+01	-3.649223e+02
1.060000e-06	-1.978303e-06	-5.503233e-09	-1.460941e+01	-3.630548e+02
1.070000e-06	-1.956910e-06	-5.471119e-09	-1.445143e+01	-3.611535e+02
1.080000e-06	-1.935313e-06	-5.432500e-09	-1.429194e+01	-3.592172e+02
1.090000e-06	-1.913552e-06	-5.398193e-09	-1.413124e+01	-3.572464e+02
1.100000e-06	-1.891710e-06	-5.370617e-09	-1.396994e+01	-3.552432e+02
1.110000e-06	-1.869764e-06	-5.340771e-09	-1.380788e+01	-3.532108e+02
1.120000e-06	-1.847684e-06	-5.306624e-09	-1.364482e+01	-3.511528e+02
1.130000e-06	-1.825496e-06	-5.274909e-09	-1.348096e+01	-3.490730e+02
1.140000e-06	-1.803181e-06	-5.248304e-09	-1.331617e+01	-3.469743e+02
1.150000e-06	-1.780724e-06	-5.220314e-09	-1.315033e+01	-3.448590e+02
1.160000e-06	-1.758173e-06	-5.185818e-09	-1.298379e+01	-3.427277e+02
1.170000e-06	-1.735532e-06	-5.146629e-09	-1.281659e+01	-3.405799e+02
1.180000e-06	-1.712755e-06	-5.110705e-09	-1.264839e+01	-3.384140e+02
1.190000e-06	-1.689803e-06	-5.078159e-09	-1.247890e+01	-3.362276e+02
1.200000e-06	-1.666647e-06	-5.044612e-09	-1.230789e+01	-3.340179e+02
1.210000e-06	-1.643324e-06	-5.008538e-09	-1.213565e+01	-3.317820e+02
1.220000e-06	-1.619886e-06	-4.977111e-09	-1.196257e+01	-3.295180e+02
1.230000e-06	-1.596360e-06	-4.948616e-09	-1.178883e+01	-3.272242e+02
1.240000e-06	-1.572737e-06	-4.913521e-09	-1.161438e+01	-3.249002e+02
1.250000e-06	-1.548987e-06	-4.873772e-09	-1.143899e+01	-3.225461e+02
1.260000e-06	-1.525124e-06	-4.835203e-09	-1.126277e+01	-3.201629e+02
1.270000e-06	-1.501167e-06	-4.800898e-09	-1.108585e+01	-3.177517e+02
1.280000e-06	-1.477105e-06	-4.766540e-09	-1.090816e+01	-3.153138e+02
1.290000e-06	-1.452938e-06	-4.729200e-09	-1.072969e+01	-3.128502e+02
1.300000e-06	-1.428692e-06	-4.689084e-09	-1.055064e+01	-3.103613e+02
1.310000e-06	-1.404375e-06	-4.652242e-09	-1.037106e+01	-3.078470e+02
1.320000e-06	-1.379947e-06	-4.618529e-09	-1.019066e+01	-3.053066e+02
1.330000e-06	-1.355357e-06	-4.581939e-09	-1.000907e+01	-3.027392e+02
1.340000e-06	-1.330611e-06	-4.542304e-09	-9.826321e+00	-3.001437e+02
1.350000e-06	-1.305740e-06	-4.503062e-09	-9.642658e+00	-2.975192e+02
1.360000e-06	-1.280788e-06	-4.464332e-09	-9.458391e+00	-2.948655e+02
1.370000e-06	-1.255784e-06	-4.425843e-09	-9.273737e+00	-2.921827e+02
1.380000e-06	-1.230728e-06	-4.385637e-09	-9.088706e+00	-2.894720e+02
1.390000e-06	-1.205602e-06	-4.342967e-09	-8.903152e+00	-2.867351e+02
1.400000e-06	-1.180375e-06	-4.301456e-09	-8.716862e+00	-2.839742e+02
1.410000e-06	-1.155058e-06	-4.262950e-09	-8.529899e+00	-2.811916e+02
1.420000e-06	-1.129653e-06	-4.224467e-09	-8.342282e+00	-2.783896e+02
1.430000e-06	-1.104170e-06	-4.185309e-09	-8.154096e+00	-2.755698e+02
1.440000e-06	-1.078616e-06	-4.144590e-09	-7.965383e+00	-2.727331e+02
1.450000e-06	-1.052992e-06	-4.102148e-09	-7.776158e+00	-2.698795e+02
1.460000e-06	-1.027312e-06	-4.058641e-09	-7.586513e+00	-2.670079e+02
1.470000e-06	-1.001570e-06	-4.009798e-09	-7.396414e+00	-2.641165e+02
1.480000e-06	-9.757740e-07	-3.958569e-09	-7.205917e+00	-2.612031e+02
1.490000e-06	-9.499541e-07	-3.909378e-09	-7.015241e+00	-2.582650e+02
1.500000e-06	-9.240904e-07	-3.863292e-09	-6.824242e+00	-2.553000e+02
1.510000e-06	-8.981381e-07	-3.814538e-09	-6.632589e+00	-2.523062e+02
1.520000e-06	-8.721036e-07	-3.767115e-09	-6.440329e+00	-2.492824e+02
1.530000e-06	-8.459755e-07	-3.720273e-09	-6.247378e+00	-2.462284e+02
1.540000e-06	-8.197523e-07	-3.673516e-09	-6.053724e+00	-2.431445e+02
1.550000e-06	-7.934458e-07	-3.625292e-09	-5.859456e+00	-2.400318e+02
1.560000e-06	-7.670515e-07	-3.572890e-09	-5.664538e+00	-2.368915e+02
1.570000e-06	-7.405798e-07	-3.521914e-09	-5.469049e+00	-2.337247e+02
1.580000e-06	-7.140493e-07	-3.474426e-09	-5.273126e+00	-2.305323e+02
1.590000e-06	-6.874860e-07	-3.428760e-09	-5.076961e+00	-2.273144e+02
1.600000e-06	-6.609034e-07	-3.379111e-09	-4.880653e+00	-2.240703e+02
1.610000e-06	-6.342933e-07	-3.328154e-09	-4.684143e+00	-2.207985e+02
1.620000e-06	-6.076565e-07	-3.279704e-09	-4.487435e+00	-2.174970e+02
1.630000e-06	-5.809954e-07	-3.233315e-09	-4.290547e+00	-2.141631e+02
1.640000e-06	-5.543032e-07	-3.182160e-09	-4.093430e+00	-2.107942e+02
1.650000e-06	-5.275719e-07	-3.126713e-09	-3.896024e+00	-2.073879e+02
1.660000e-06	-5.007900e-07	-3.071241e-09	-3.698245e+00	-2.039426e+02
1.670000e-06	-4.739813e-07	-3.019315e-09	-3.500267e+00	-2.004571e+02
1.680000e-06	-4.471548e-07	-2.966965e-09	-3.302158e+00	-1.969313e+02
1.690000e-06	-4.202931e-07	-2.913498e-09	-3.103789e+00	-1.933660e+02
1.700000e-06	-3.933938e-07	-2.860853e-09	-2.905143e+00	-1.897624e+02
1.710000e-06	-3.664536e-07	-2.807939e-09	-2.706195e+00	-1.861222e+02
1.720000e-06	-3.394693e-07	-2.757605e-09	-2.506920e+00	-1.824472e+02
1.730000e-06	-3.124573e-07	-2.707137e-09	-2.307442e+00	-1.787389e+02
1.740000e-06	-2.854326e-07	-2.650501e-09	-2.107869e+00	-1.749982e+02
1.750000e-06	-2.583829e-07	-2.589616e-09	-1.908112e+00	-1.712255e+02
1.760000e-06	-2.313261e-07	-2.530671e-09	-1.708302e+00	-1.674205e+02
1.770000e-06	-2.042616e-07	-2.472158e-09	-1.508435e+00	-1.635822e+02
1.780000e-06	-1.771890e-07	-2.412170e-09	-1.308509e+00	-1.597095e+02
1.790000e-06	-1.501151e-07	-2.349981e-09	-1.108573e+00	-1.558010e+02
1.800000e-06	-1.230367e-07	-2.288718e-09	-9.086037e-01	-1.518558e+02
1.810000e-06	-9.595411e-08	-2.229150e-09	-7.086040e-01	-1.478731e+02
1.820000e-06	-6.884861e-08	-2.169395e-09	-5.084347e-01	-1.438528e+02
1.830000e-06	-4.171863e-08	-2.108177e-09	-3.080846e-01	-1.397953e+02
1.840000e-06	-1.457929e-08	-2.047077e-09	-1.076655e-01	-1.357018e+02
1.850000e-06	1.255662e-08	-1.986505e-09	9.272841e-02	-1.315734e+02
1.860000e-06	3.969991e-08	-1.924582e-09	2.931767e-01	-1.274115e+02
1.870000e-06	6.682465e-08	-1.861091e-09	4.934881e-01	-1.232173e+02
1.880000e-06	9.391654e-08	-1.796564e-09	6.935568e-01	-1.189914e+02
1.890000e-06	1.209936e-07	-1.731442e-09	8.935160e-01	-1.147340e+02
1.900000e-06	1.480559e-07	-1.665536e-09	1.093366e+00	-1.104448e+02
1.910000e-06	1.751160e-07	-1.599988e-09	1.293201e+00	-1.061228e+02
1.920000e-06	2.021689e-07	-1.533108e-09	1.492981e+00	-1.017669e+02
1.930000e-06	2.292141e-07	-1.464936e-09	1.692705e+00	-9.737614e+01
1.940000e-06	2.562447e-07	-1.396859e-09	1.892322e+00	-9.294962e+01
1.950000e-06	2.832654e-07	-1.327504e-09	2.091864e+00	-8.848723e+01
1.960000e-06	3.102572e-07	-1.257307e-09	2.291194e+00	-8.398959e+01
1.970000e-06	3.372003e-07	-1.187686e-09	2.490164e+00	-7.945811e+01
1.980000e-06	3.641256e-07	-1.117565e-09	2.689002e+00	-7.489491e+01
1.990000e-06	3.910294e-07	-1.046080e-09	2.887683e+00	-7.030252e+01
2.000000e-06	4.179151e-07	-9.759869e-10	3.086228e+00	-6.568359e+01
2.010000e-06	4.447867e-07	-9.088704e-10	3.284670e+00	-6.104041e+01
2.020000e-06	4.716170e-07	-8.402951e-10	3.482807e+00	-5.637456e+01
2.030000e-06	4.983933e-07	-7.683796e-10	3.680545e+00	-5.168662e+01
2.040000e-06	5.251287e-07	-6.945047e-10	3.877982e+00	-4.697598e+01
2.050000e-06	5.518149e-07	-6.208404e-10	4.075054e+00	-4.224086e+01
2.060000e-06	5.784617e-07	-5.491406e-10	4.271836e+00	-3.747854e+01
2.070000e-06	6.050851e-07	-4.778581e-10	4.468446e+00	-3.268572e+01
2.080000e-06	6.316862e-07	-4.047592e-10	4.664890e+00	-2.785896e+01
2.090000e-06	6.582666e-07	-3.286442e-10	4.861181e+00	-2.299529e+01
2.100000e-06	6.848228e-07	-2.521119e-10	5.057294e+00	-1.809263e+01
2.110000e-06	7.113572e-07	-1.749046e-10	5.253246e+00	-1.315018e+01
2.120000e-06	7.378520e-07	-9.596073e-11	5.448905e+00	-8.168670e+00
2.130000e-06	7.642755e-07	-1.779509e-11	5.644038e+00	-3.150284e+00
2.140000e-06	7.906164e-07	5.824637e-11	5.838561e+00	1.901497e+00
2.150000e-06	8.168744e-07	1.328594e-10	6.032471e+00	6.982319e+00
2.160000e-06	8.430524e-07	2.097155e-10	6.225791e+00	1.208747e+01
2.170000e-06	8.691274e-07	2.890821e-10	6.418351e+00	1.721247e+01
2.180000e-06	8.950893e-07	3.679303e-10	6.610074e+00	2.235354e+01
2.190000e-06	9.209926e-07	4.458080e-10	6.801365e+00	2.750810e+01
2.200000e-06	9.468497e-07	5.241411e-10	6.992315e+00	3.267492e+01
2.210000e-06	9.726458e-07	6.042299e-10	7.182816e+00	3.785421e+01
2.220000e-06	9.983852e-07	6.839345e-10	7.372896e+00	4.304736e+01
2.230000e-06	1.024082e-06	7.633422e-10	7.562660e+00	4.825659e+01
2.240000e-06	1.049735e-06	8.451541e-10	7.752103e+00	5.348446e+01
2.250000e-06	1.075310e-06	9.286862e-10	7.940974e+00	5.873327e+01
2.260000e-06	1.100798e-06	1.011288e-09	8.129197e+00	6.400456e+01
2.270000e-06	1.126210e-06	1.091836e-09	8.316857e+00	6.929872e+01
2.280000e-06	1.151547e-06	1.171519e-09	8.503971e+00	7.461469e+01
2.290000e-06	1.176804e-06	1.252534e-09	8.690488e+00	7.994993e+01
2.300000e-06	1.201979e-06	1.335260e-09	8.876399e+00	8.530056e+01
2.310000e-06	1.227066e-06	1.418274e-09	9.061660e+00	9.066167e+01
2.320000e-06	1.252084e-06	1.499534e-09	9.246417e+00	9.602774e+01
2.330000e-06	1.277058e-06	1.579244e-09	9.430845e+00	1.013931e+02
2.340000e-06	1.301964e-06	1.661500e-09	9.614774e+00	1.067525e+02
2.350000e-06	1.326767e-06	1.744745e-09	9.797936e+00	1.121013e+02
2.360000e-06	1.351442e-06	1.825819e-09	9.980159e+00	1.174358e+02
2.370000e-06	1.375955e-06	1.906053e-09	1.016118e+01	1.227534e+02
2.380000e-06	1.400314e-06	1.988190e-09	1.034107e+01	1.280524e+02
2.390000e-06	1.424581e-06	2.072209e-09	1.052027e+01	1.333321e+02
2.400000e-06	1.448778e-06	2.153941e-09	1.069896e+01	1.385921e+02
2.410000e-06	1.472904e-06	2.234096e-09	1.087714e+01	1.438327e+02
2.420000e-06	1.496947e-06	2.316055e-09	1.105468e+01	1.490537e+02
2.430000e-06	1.520870e-06	2.398822e-09	1.123135e+01	1.542550e+02
2.440000e-06	1.544676e-06	2.478380e-09	1.140715e+01	1.594363e+02
2.450000e-06	1.568389e-06	2.552803e-09	1.158227e+01	1.645965e+02
2.460000e-06	1.591999e-06	2.626907e-09	1.175663e+01	1.697345e+02
2.470000e-06	1.615489e-06	2.702778e-09	1.193010e+01	1.748488e+02
2.480000e-06	1.638855e-06	2.779655e-09	1.210265e+01	1.799375e+02
2.490000e-06	1.662085e-06	2.856202e-09	1.227420e+01	1.849990e+02
2.500000e-06	1.685148e-06	2.935552e-09	1.244452e+01	1.900313e+02
2.510000e-06	1.708033e-06	3.018411e-09	1.261352e+01	1.950325e+02
2.520000e-06	1.730757e-06	3.097128e-09	1.278133e+01	2.000005e+02
2.530000e-06	1.753355e-06	3.167852e-09	1.294821e+01	2.049332e+02
2.540000e-06	1.775853e-06	3.235122e-09	1.311436e+01	2.098282e+02
2.550000e-06	1.798245e-06	3.304844e-09	1.327972e+01	2.146829e+02
2.560000e-06	1.820498e-06	3.376892e-09	1.344405e+01	2.194945e+02
2.570000e-06	1.842639e-06	3.452225e-09	1.360756e+01	2.242601e+02
2.580000e-06	1.864673e-06	3.528200e-09	1.377028e+01	2.289770e+02
2.590000e-06	1.886572e-06	3.603276e-09	1.393199e+01	2.336424e+02
2.600000e-06	1.908364e-06	3.675450e-09	1.409293e+01	2.382544e+02
2.610000e-06	1.930061e-06	3.742886e-09	1.425315e+01	2.428115e+02
2.620000e-06	1.951595e-06	3.807351e-09	1.441218e+01	2.473132e+02
2.630000e-06	1.972920e-06	3.871731e-09	1.456966e+01	2.517598e+02
2.640000e-06	1.994063e-06	3.935151e-09	1.472580e+01	2.561523e+02
2.650000e-06	2.015075e-06	3.997379e-09	1.488097e+01	2.604922e+02
2.660000e-06	2.035989e-06	4.059882e-09	1.503542e+01	2.647812e+02
2.670000e-06	2.056761e-06	4.122612e-09	1.518881e+01	2.690209e+02
2.680000e-06	2.077370e-06	4.186490e-09	1.534100e+01	2.732123e+02
2.690000e-06	2.097827e-06	4.252819e-09	1.549208e+01	2.773553e+02
2.700000e-06	2.118143e-06	4.319803e-09	1.564211e+01	2.814490e+02
2.710000e-06	2.138337e-06	4.381814e-09	1.579124e+01	2.854912e+02
2.720000e-06	2.158367e-06	4.440304e-09	1.593915e+01	2.894789e+02
2.730000e-06	2.178180e-06	4.497206e-09	1.608547e+01	2.934085e+02
2.740000e-06	2.197792e-06	4.551785e-09	1.623030e+01	2.972761e+02
2.750000e-06	2.217253e-06	4.604015e-09	1.637401e+01	3.010785e+02
2.760000e-06	2.236581e-06	4.655475e-09	1.651675e+01	3.048132e+02
2.770000e-06	2.255780e-06	4.711008e-09	1.665854e+01	3.084792e+02
2.780000e-06	2.274830e-06	4.769858e-09	1.679921e+01	3.120770e+02
2.790000e-06	2.293713e-06	4.827532e-09	1.693866e+01	3.156088e+02
2.800000e-06	2.312463e-06	4.880369e-09	1.707713e+01	3.190780e+02
2.810000e-06	2.331097e-06	4.927362e-09	1.721473e+01	3.224891e+02
2.820000e-06	2.349594e-06	4.972474e-09	1.735133e+01	3.258466e+02
2.830000e-06	2.367859e-06	5.016562e-09	1.748621e+01	3.291550e+02
2.840000e-06	2.385857e-06	5.060555e-09	1.761913e+01	3.324176e+02
2.850000e-06	2.403681e-06	5.105295e-09	1.775075e+01	3.356360e+02
2.860000e-06	2.421365e-06	5.150588e-09	1.788135e+01	3.388105e+02
2.870000e-06	2.438892e-06	5.198300e-09	1.801078e+01	3.419392e+02
2.880000e-06	2.456252e-06	5.247127e-09	1.813898e+01	3.450188e+02
2.890000e-06	2.473451e-06	5.293071e-09	1.826599e+01	3.480452e+02
2.900000e-06	2.490512e-06	5.333898e-09	1.839199e+01	3.510140e+02
