# Temperatura_=_20.0
# Concentracion g/m^3_=_10000.0
# C_Vs_to_Am_M_A/Vsm_=_65563218390.804596
# pendiente_HvsI_1/m_=_3716.3
# ordenada_HvsI_A/m_=_1297.0
# frecuencia_Hz_=_135258.710191495

Tiempo_(s)	Campo_(V.s)	Magnetizacion_(V.s)	Campo_(kA/m)	Magnetizacion_(A/m)
0.000000e+00	-3.194198e-06	-7.024866e-09	-2.355687e+01	-4.554861e+02
1.000000e-08	-3.194164e-06	-7.020895e-09	-2.355662e+01	-4.555702e+02
2.000000e-08	-3.193946e-06	-7.018660e-09	-2.355501e+01	-4.556438e+02
3.000000e-08	-3.193512e-06	-7.020151e-09	-2.355181e+01	-4.557118e+02
4.000000e-08	-3.192786e-06	-7.022970e-09	-2.354646e+01	-4.557774e+02
5.000000e-08	-3.191811e-06	-7.018909e-09	-2.353927e+01	-4.558417e+02
6.000000e-08	-3.190599e-06	-7.006523e-09	-2.353033e+01	-4.559036e+02
7.000000e-08	-3.188973e-06	-7.014775e-09	-2.351833e+01	-4.559597e+02
8.000000e-08	-3.186963e-06	-7.059133e-09	-2.350351e+01	-4.560052e+02
9.000000e-08	-3.184959e-06	-7.129806e-09	-2.348873e+01	-4.560339e+02
1.000000e-07	-3.182799e-06	-7.124099e-09	-2.347280e+01	-4.560399e+02
1.100000e-07	-3.180377e-06	-6.922587e-09	-2.345494e+01	-4.560177e+02
1.200000e-07	-3.177958e-06	-7.001419e-09	-2.343710e+01	-4.559636e+02
1.300000e-07	-3.175156e-06	-7.070447e-09	-2.341644e+01	-4.558760e+02
1.400000e-07	-3.171921e-06	-7.020400e-09	-2.339257e+01	-4.557561e+02
1.500000e-07	-3.168527e-06	-6.974610e-09	-2.336754e+01	-4.556072e+02
1.600000e-07	-3.164985e-06	-6.994280e-09	-2.334142e+01	-4.554347e+02
1.700000e-07	-3.161182e-06	-7.023583e-09	-2.331337e+01	-4.552453e+02
1.800000e-07	-3.157125e-06	-6.984371e-09	-2.328346e+01	-4.550460e+02
1.900000e-07	-3.152808e-06	-7.014462e-09	-2.325162e+01	-4.548429e+02
2.000000e-07	-3.148261e-06	-6.956451e-09	-2.321809e+01	-4.546406e+02
2.100000e-07	-3.143575e-06	-6.957005e-09	-2.318353e+01	-4.544411e+02
2.200000e-07	-3.138724e-06	-6.957206e-09	-2.314775e+01	-4.542437e+02
2.300000e-07	-3.133577e-06	-6.980983e-09	-2.310980e+01	-4.540449e+02
2.400000e-07	-3.128179e-06	-6.942453e-09	-2.306998e+01	-4.538390e+02
2.500000e-07	-3.122604e-06	-6.948109e-09	-2.302887e+01	-4.536183e+02
2.600000e-07	-3.116752e-06	-6.955628e-09	-2.298571e+01	-4.533750e+02
2.700000e-07	-3.110650e-06	-6.986339e-09	-2.294071e+01	-4.531012e+02
2.800000e-07	-3.104389e-06	-6.922623e-09	-2.289453e+01	-4.527909e+02
2.900000e-07	-3.097928e-06	-6.906048e-09	-2.284689e+01	-4.524401e+02
3.000000e-07	-3.091176e-06	-6.924061e-09	-2.279709e+01	-4.520474e+02
3.100000e-07	-3.084246e-06	-6.931619e-09	-2.274598e+01	-4.516142e+02
3.200000e-07	-3.077191e-06	-6.924919e-09	-2.269395e+01	-4.511440e+02
3.300000e-07	-3.069929e-06	-6.899012e-09	-2.264040e+01	-4.506424e+02
3.400000e-07	-3.062354e-06	-6.861177e-09	-2.258453e+01	-4.501153e+02
3.500000e-07	-3.054552e-06	-6.837656e-09	-2.252699e+01	-4.495686e+02
3.600000e-07	-3.046551e-06	-6.898253e-09	-2.246799e+01	-4.490070e+02
3.700000e-07	-3.038284e-06	-6.890812e-09	-2.240702e+01	-4.484334e+02
3.800000e-07	-3.029725e-06	-6.840123e-09	-2.234390e+01	-4.478482e+02
3.900000e-07	-3.020995e-06	-6.810634e-09	-2.227951e+01	-4.472501e+02
4.000000e-07	-3.012085e-06	-6.860067e-09	-2.221380e+01	-4.466353e+02
4.100000e-07	-3.002927e-06	-6.836291e-09	-2.214626e+01	-4.459993e+02
4.200000e-07	-2.993551e-06	-6.786335e-09	-2.207712e+01	-4.453370e+02
4.300000e-07	-2.983985e-06	-6.766790e-09	-2.200657e+01	-4.446437e+02
4.400000e-07	-2.974226e-06	-6.798680e-09	-2.193460e+01	-4.439161e+02
4.500000e-07	-2.964254e-06	-6.787138e-09	-2.186106e+01	-4.431529e+02
4.600000e-07	-2.953989e-06	-6.761223e-09	-2.178535e+01	-4.423550e+02
4.700000e-07	-2.943392e-06	-6.728362e-09	-2.170720e+01	-4.415251e+02
4.800000e-07	-2.932559e-06	-6.710667e-09	-2.162731e+01	-4.406680e+02
4.900000e-07	-2.921540e-06	-6.715489e-09	-2.154604e+01	-4.397896e+02
5.000000e-07	-2.910325e-06	-6.715617e-09	-2.146334e+01	-4.388958e+02
5.100000e-07	-2.898889e-06	-6.678445e-09	-2.137899e+01	-4.379923e+02
5.200000e-07	-2.887255e-06	-6.654382e-09	-2.129320e+01	-4.370837e+02
5.300000e-07	-2.875383e-06	-6.673512e-09	-2.120564e+01	-4.361728e+02
5.400000e-07	-2.863264e-06	-6.667619e-09	-2.111627e+01	-4.352606e+02
5.500000e-07	-2.850952e-06	-6.625806e-09	-2.102546e+01	-4.343465e+02
5.600000e-07	-2.838454e-06	-6.593352e-09	-2.093329e+01	-4.334282e+02
5.700000e-07	-2.825767e-06	-6.595921e-09	-2.083973e+01	-4.325030e+02
5.800000e-07	-2.812917e-06	-6.594347e-09	-2.074496e+01	-4.315676e+02
5.900000e-07	-2.799894e-06	-6.575563e-09	-2.064892e+01	-4.306190e+02
6.000000e-07	-2.786649e-06	-6.543658e-09	-2.055124e+01	-4.296551e+02
6.100000e-07	-2.773127e-06	-6.532320e-09	-2.045151e+01	-4.286747e+02
6.200000e-07	-2.759365e-06	-6.535607e-09	-2.035002e+01	-4.276773e+02
6.300000e-07	-2.745453e-06	-6.525347e-09	-2.024742e+01	-4.266633e+02
6.400000e-07	-2.731370e-06	-6.486234e-09	-2.014356e+01	-4.256331e+02
6.500000e-07	-2.717081e-06	-6.459998e-09	-2.003818e+01	-4.245870e+02
6.600000e-07	-2.702602e-06	-6.453542e-09	-1.993140e+01	-4.235245e+02
6.700000e-07	-2.687962e-06	-6.444566e-09	-1.982343e+01	-4.224439e+02
6.800000e-07	-2.673149e-06	-6.418470e-09	-1.971419e+01	-4.213425e+02
6.900000e-07	-2.658084e-06	-6.397162e-09	-1.960308e+01	-4.202167e+02
7.000000e-07	-2.642757e-06	-6.388479e-09	-1.949005e+01	-4.190623e+02
7.100000e-07	-2.627249e-06	-6.383778e-09	-1.937568e+01	-4.178749e+02
7.200000e-07	-2.611555e-06	-6.358354e-09	-1.925993e+01	-4.166512e+02
7.300000e-07	-2.595645e-06	-6.318190e-09	-1.914261e+01	-4.153891e+02
7.400000e-07	-2.579514e-06	-6.291374e-09	-1.902364e+01	-4.140887e+02
7.500000e-07	-2.563162e-06	-6.287267e-09	-1.890304e+01	-4.127520e+02
7.600000e-07	-2.546616e-06	-6.273210e-09	-1.878102e+01	-4.113836e+02
7.700000e-07	-2.529885e-06	-6.242144e-09	-1.865763e+01	-4.099897e+02
7.800000e-07	-2.512970e-06	-6.215983e-09	-1.853288e+01	-4.085775e+02
7.900000e-07	-2.495916e-06	-6.202974e-09	-1.840711e+01	-4.071546e+02
8.000000e-07	-2.478756e-06	-6.187652e-09	-1.828056e+01	-4.057277e+02
8.100000e-07	-2.461421e-06	-6.159018e-09	-1.815272e+01	-4.043020e+02
8.200000e-07	-2.443906e-06	-6.125953e-09	-1.802354e+01	-4.028801e+02
8.300000e-07	-2.426253e-06	-6.105922e-09	-1.789336e+01	-4.014621e+02
8.400000e-07	-2.408470e-06	-6.095184e-09	-1.776220e+01	-4.000449e+02
8.500000e-07	-2.390552e-06	-6.074223e-09	-1.763006e+01	-3.986236e+02
8.600000e-07	-2.372433e-06	-6.045104e-09	-1.749644e+01	-3.971912e+02
8.700000e-07	-2.354050e-06	-6.018940e-09	-1.736087e+01	-3.957404e+02
8.800000e-07	-2.335480e-06	-6.000234e-09	-1.722391e+01	-3.942641e+02
8.900000e-07	-2.316792e-06	-5.977879e-09	-1.708609e+01	-3.927569e+02
9.000000e-07	-2.297943e-06	-5.946803e-09	-1.694708e+01	-3.912153e+02
9.100000e-07	-2.278909e-06	-5.912985e-09	-1.680671e+01	-3.896386e+02
9.200000e-07	-2.259720e-06	-5.891402e-09	-1.666519e+01	-3.880287e+02
9.300000e-07	-2.240398e-06	-5.871145e-09	-1.652270e+01	-3.863897e+02
9.400000e-07	-2.220947e-06	-5.842150e-09	-1.637924e+01	-3.847274e+02
9.500000e-07	-2.201322e-06	-5.806580e-09	-1.623451e+01	-3.830479e+02
9.600000e-07	-2.181497e-06	-5.779790e-09	-1.608831e+01	-3.813571e+02
9.700000e-07	-2.161493e-06	-5.759471e-09	-1.594078e+01	-3.796592e+02
9.800000e-07	-2.141331e-06	-5.733283e-09	-1.579209e+01	-3.779566e+02
9.900000e-07	-2.121032e-06	-5.699080e-09	-1.564239e+01	-3.762490e+02
1.000000e-06	-2.100604e-06	-5.667064e-09	-1.549173e+01	-3.745339e+02
1.010000e-06	-2.080027e-06	-5.641836e-09	-1.533998e+01	-3.728064e+02
1.020000e-06	-2.059280e-06	-5.615537e-09	-1.518697e+01	-3.710608e+02
1.030000e-06	-2.038370e-06	-5.581245e-09	-1.503276e+01	-3.692906e+02
1.040000e-06	-2.017348e-06	-5.549541e-09	-1.487772e+01	-3.674901e+02
1.050000e-06	-1.996220e-06	-5.528577e-09	-1.472191e+01	-3.656549e+02
1.060000e-06	-1.974932e-06	-5.507162e-09	-1.456491e+01	-3.637827e+02
1.070000e-06	-1.953441e-06	-5.476130e-09	-1.440642e+01	-3.618734e+02
1.080000e-06	-1.931764e-06	-5.437530e-09	-1.424655e+01	-3.599290e+02
1.090000e-06	-1.909972e-06	-5.402765e-09	-1.408584e+01	-3.579532e+02
1.100000e-06	-1.888090e-06	-5.374406e-09	-1.392446e+01	-3.559506e+02
1.110000e-06	-1.866082e-06	-5.342985e-09	-1.376215e+01	-3.539258e+02
1.120000e-06	-1.843950e-06	-5.306983e-09	-1.359894e+01	-3.518828e+02
1.130000e-06	-1.821691e-06	-5.274877e-09	-1.343477e+01	-3.498236e+02
1.140000e-06	-1.799289e-06	-5.249212e-09	-1.326956e+01	-3.477489e+02
1.150000e-06	-1.776776e-06	-5.220994e-09	-1.310353e+01	-3.456568e+02
1.160000e-06	-1.754163e-06	-5.183513e-09	-1.293676e+01	-3.435441e+02
1.170000e-06	-1.731440e-06	-5.143410e-09	-1.276918e+01	-3.414060e+02
1.180000e-06	-1.708560e-06	-5.107700e-09	-1.260045e+01	-3.392377e+02
1.190000e-06	-1.685491e-06	-5.077916e-09	-1.243031e+01	-3.370348e+02
1.200000e-06	-1.662235e-06	-5.043974e-09	-1.225880e+01	-3.347939e+02
1.210000e-06	-1.638833e-06	-5.007432e-09	-1.208622e+01	-3.325138e+02
1.220000e-06	-1.615344e-06	-4.974609e-09	-1.191299e+01	-3.301952e+02
1.230000e-06	-1.591757e-06	-4.941925e-09	-1.173904e+01	-3.278409e+02
1.240000e-06	-1.568067e-06	-4.903416e-09	-1.156433e+01	-3.254556e+02
1.250000e-06	-1.544262e-06	-4.861214e-09	-1.138877e+01	-3.230445e+02
1.260000e-06	-1.520331e-06	-4.821782e-09	-1.121228e+01	-3.206132e+02
1.270000e-06	-1.496299e-06	-4.788433e-09	-1.103504e+01	-3.181664e+02
1.280000e-06	-1.472172e-06	-4.755736e-09	-1.085711e+01	-3.157075e+02
1.290000e-06	-1.447961e-06	-4.718820e-09	-1.067856e+01	-3.132376e+02
1.300000e-06	-1.423671e-06	-4.677089e-09	-1.049942e+01	-3.107556e+02
1.310000e-06	-1.399267e-06	-4.638508e-09	-1.031944e+01	-3.082585e+02
1.320000e-06	-1.374720e-06	-4.605719e-09	-1.013841e+01	-3.057417e+02
1.330000e-06	-1.350027e-06	-4.570371e-09	-9.956308e+00	-3.032000e+02
1.340000e-06	-1.325201e-06	-4.530965e-09	-9.773212e+00	-3.006279e+02
1.350000e-06	-1.300280e-06	-4.492591e-09	-9.589423e+00	-2.980213e+02
1.360000e-06	-1.275295e-06	-4.457051e-09	-9.405167e+00	-2.953774e+02
1.370000e-06	-1.250245e-06	-4.418976e-09	-9.220426e+00	-2.926958e+02
1.380000e-06	-1.225121e-06	-4.377741e-09	-9.035136e+00	-2.899781e+02
1.390000e-06	-1.199926e-06	-4.336683e-09	-8.849323e+00	-2.872279e+02
1.400000e-06	-1.174649e-06	-4.298112e-09	-8.662908e+00	-2.844500e+02
1.410000e-06	-1.149281e-06	-4.258838e-09	-8.475824e+00	-2.816500e+02
1.420000e-06	-1.123825e-06	-4.216552e-09	-8.288089e+00	-2.788333e+02
1.430000e-06	-1.098291e-06	-4.172875e-09	-8.099778e+00	-2.760041e+02
1.440000e-06	-1.072684e-06	-4.131151e-09	-7.910928e+00	-2.731649e+02
1.450000e-06	-1.047000e-06	-4.091024e-09	-7.721516e+00	-2.703163e+02
1.460000e-06	-1.021244e-06	-4.049634e-09	-7.531562e+00	-2.674569e+02
1.470000e-06	-9.954285e-07	-4.006716e-09	-7.341178e+00	-2.645833e+02
1.480000e-06	-9.695659e-07	-3.963055e-09	-7.150445e+00	-2.616911e+02
1.490000e-06	-9.436578e-07	-3.917451e-09	-6.959375e+00	-2.587754e+02
1.500000e-06	-9.176904e-07	-3.869291e-09	-6.767868e+00	-2.558316e+02
1.510000e-06	-8.916409e-07	-3.817509e-09	-6.575756e+00	-2.528559e+02
1.520000e-06	-8.655216e-07	-3.769814e-09	-6.383129e+00	-2.498462e+02
1.530000e-06	-8.393265e-07	-3.723717e-09	-6.189943e+00	-2.468019e+02
1.540000e-06	-8.130506e-07	-3.676295e-09	-5.996161e+00	-2.437238e+02
1.550000e-06	-7.866953e-07	-3.629111e-09	-5.801794e+00	-2.406143e+02
1.560000e-06	-7.602591e-07	-3.582184e-09	-5.606829e+00	-2.374760e+02
1.570000e-06	-7.337743e-07	-3.535427e-09	-5.411506e+00	-2.343117e+02
1.580000e-06	-7.072403e-07	-3.485968e-09	-5.215821e+00	-2.311234e+02
1.590000e-06	-6.806554e-07	-3.434596e-09	-5.019761e+00	-2.279118e+02
1.600000e-06	-6.540291e-07	-3.383180e-09	-4.823395e+00	-2.246763e+02
1.610000e-06	-6.273695e-07	-3.333260e-09	-4.626783e+00	-2.214145e+02
1.620000e-06	-6.006932e-07	-3.284591e-09	-4.430048e+00	-2.181229e+02
1.630000e-06	-5.739841e-07	-3.235389e-09	-4.233071e+00	-2.147971e+02
1.640000e-06	-5.472446e-07	-3.180653e-09	-4.035870e+00	-2.114326e+02
1.650000e-06	-5.204802e-07	-3.124853e-09	-3.838486e+00	-2.080253e+02
1.660000e-06	-4.936706e-07	-3.071912e-09	-3.640767e+00	-2.045724e+02
1.670000e-06	-4.668338e-07	-3.020725e-09	-3.442849e+00	-2.010728e+02
1.680000e-06	-4.399653e-07	-2.967795e-09	-3.244697e+00	-1.975268e+02
1.690000e-06	-4.130483e-07	-2.914138e-09	-3.046187e+00	-1.939369e+02
1.700000e-06	-3.860886e-07	-2.859529e-09	-2.847362e+00	-1.903064e+02
1.710000e-06	-3.590937e-07	-2.803349e-09	-2.648278e+00	-1.866398e+02
1.720000e-06	-3.320795e-07	-2.746948e-09	-2.449050e+00	-1.829414e+02
1.730000e-06	-3.050438e-07	-2.690839e-09	-2.249665e+00	-1.792149e+02
1.740000e-06	-2.779865e-07	-2.634496e-09	-2.050121e+00	-1.754628e+02
1.750000e-06	-2.509206e-07	-2.576497e-09	-1.850513e+00	-1.716862e+02
1.760000e-06	-2.238289e-07	-2.517135e-09	-1.650714e+00	-1.678844e+02
1.770000e-06	-1.967127e-07	-2.457935e-09	-1.450735e+00	-1.640550e+02
1.780000e-06	-1.695979e-07	-2.401973e-09	-1.250766e+00	-1.601946e+02
1.790000e-06	-1.424850e-07	-2.345998e-09	-1.050812e+00	-1.562993e+02
1.800000e-06	-1.153627e-07	-2.286265e-09	-8.507872e-01	-1.523652e+02
1.810000e-06	-8.822295e-08	-2.223289e-09	-6.506348e-01	-1.483890e+02
1.820000e-06	-6.107090e-08	-2.161169e-09	-4.503913e-01	-1.443686e+02
1.830000e-06	-3.390996e-08	-2.100015e-09	-2.500823e-01	-1.403034e+02
1.840000e-06	-6.745416e-09	-2.036987e-09	-4.974672e-02	-1.361942e+02
1.850000e-06	2.040672e-08	-1.970727e-09	1.504974e-01	-1.320433e+02
1.860000e-06	4.754712e-08	-1.904759e-09	3.506549e-01	-1.278536e+02
1.870000e-06	7.469452e-08	-1.843074e-09	5.508641e-01	-1.236284e+02
1.880000e-06	1.018516e-07	-1.782898e-09	7.511445e-01	-1.193710e+02
1.890000e-06	1.289998e-07	-1.718202e-09	9.513593e-01	-1.150836e+02
1.900000e-06	1.561169e-07	-1.651077e-09	1.151345e+00	-1.107677e+02
1.910000e-06	1.832075e-07	-1.587927e-09	1.351136e+00	-1.064236e+02
1.920000e-06	2.102950e-07	-1.522982e-09	1.550903e+00	-1.020501e+02
1.930000e-06	2.373717e-07	-1.451709e-09	1.750590e+00	-9.764578e+01
1.940000e-06	2.644340e-07	-1.378789e-09	1.950172e+00	-9.320837e+01
1.950000e-06	2.914787e-07	-1.309342e-09	2.149624e+00	-8.873590e+01
1.960000e-06	3.185142e-07	-1.245054e-09	2.349008e+00	-8.422693e+01
1.970000e-06	3.455299e-07	-1.180026e-09	2.548246e+00	-7.968093e+01
1.980000e-06	3.725121e-07	-1.110337e-09	2.747237e+00	-7.509843e+01
1.990000e-06	3.994679e-07	-1.040207e-09	2.946033e+00	-7.048103e+01
2.000000e-06	4.263822e-07	-9.731487e-10	3.144523e+00	-6.583111e+01
2.010000e-06	4.532554e-07	-9.045985e-10	3.342710e+00	-6.115148e+01
2.020000e-06	4.800842e-07	-8.292010e-10	3.540570e+00	-5.644487e+01
2.030000e-06	5.068708e-07	-7.508055e-10	3.738118e+00	-5.171348e+01
2.040000e-06	5.336274e-07	-6.759522e-10	3.935445e+00	-4.695856e+01
2.050000e-06	5.603587e-07	-6.050071e-10	4.132585e+00	-4.218023e+01
2.060000e-06	5.870583e-07	-5.348938e-10	4.329492e+00	-3.737741e+01
2.070000e-06	6.137240e-07	-4.639579e-10	4.526149e+00	-3.254807e+01
2.080000e-06	6.403595e-07	-3.914829e-10	4.722582e+00	-2.768956e+01
2.090000e-06	6.669626e-07	-3.200162e-10	4.918777e+00	-2.279916e+01
2.100000e-06	6.935381e-07	-2.474060e-10	5.114769e+00	-1.787458e+01
2.110000e-06	7.200929e-07	-1.707735e-10	5.310608e+00	-1.291449e+01
2.120000e-06	7.466152e-07	-9.167516e-11	5.506207e+00	-7.918825e+00
2.130000e-06	7.730792e-07	-1.416030e-11	5.701376e+00	-2.888941e+00
2.140000e-06	7.994680e-07	6.465176e-11	5.895990e+00	2.172476e+00
2.150000e-06	8.257536e-07	1.459012e-10	6.089844e+00	7.261726e+00
2.160000e-06	8.519055e-07	2.266824e-10	6.282711e+00	1.237458e+01
2.170000e-06	8.779601e-07	3.053084e-10	6.474862e+00	1.750686e+01
2.180000e-06	9.039532e-07	3.817231e-10	6.666558e+00	2.265503e+01
2.190000e-06	9.298821e-07	4.592336e-10	6.857781e+00	2.781664e+01
2.200000e-06	9.557589e-07	5.380302e-10	7.048619e+00	3.299067e+01
2.210000e-06	9.815835e-07	6.193015e-10	7.239073e+00	3.817754e+01
2.220000e-06	1.007358e-06	6.996769e-10	7.429157e+00	4.337895e+01
2.230000e-06	1.033071e-06	7.793984e-10	7.618790e+00	4.859745e+01
2.240000e-06	1.058719e-06	8.603235e-10	7.807939e+00	5.383588e+01
2.250000e-06	1.084312e-06	9.421724e-10	7.996683e+00	5.909669e+01
2.260000e-06	1.109821e-06	1.023833e-09	8.184810e+00	6.438131e+01
2.270000e-06	1.135234e-06	1.103899e-09	8.372232e+00	6.968971e+01
2.280000e-06	1.160567e-06	1.183167e-09	8.559057e+00	7.502011e+01
2.290000e-06	1.185823e-06	1.265684e-09	8.745316e+00	8.036892e+01
2.300000e-06	1.210989e-06	1.348182e-09	8.930916e+00	8.573105e+01
2.310000e-06	1.236078e-06	1.428549e-09	9.115942e+00	9.110033e+01
2.320000e-06	1.261117e-06	1.508524e-09	9.300599e+00	9.647021e+01
2.330000e-06	1.286106e-06	1.590890e-09	9.484897e+00	1.018344e+02
2.340000e-06	1.311012e-06	1.677766e-09	9.668572e+00	1.071875e+02
2.350000e-06	1.335803e-06	1.763824e-09	9.851407e+00	1.125256e+02
2.360000e-06	1.360469e-06	1.846492e-09	1.003331e+01	1.178466e+02
2.370000e-06	1.384982e-06	1.925072e-09	1.021409e+01	1.231499e+02
2.380000e-06	1.409361e-06	2.003371e-09	1.039389e+01	1.284366e+02
2.390000e-06	1.433637e-06	2.083586e-09	1.057292e+01	1.337088e+02
2.400000e-06	1.457830e-06	2.162871e-09	1.075134e+01	1.389689e+02
2.410000e-06	1.481950e-06	2.241454e-09	1.092922e+01	1.442192e+02
2.420000e-06	1.505979e-06	2.323101e-09	1.110643e+01	1.494611e+02
2.430000e-06	1.529901e-06	2.404815e-09	1.128286e+01	1.546945e+02
2.440000e-06	1.553702e-06	2.486061e-09	1.145838e+01	1.599177e+02
2.450000e-06	1.577384e-06	2.566244e-09	1.163304e+01	1.651274e+02
2.460000e-06	1.600969e-06	2.645030e-09	1.180697e+01	1.703187e+02
2.470000e-06	1.624435e-06	2.720977e-09	1.198003e+01	1.754857e+02
2.480000e-06	1.647787e-06	2.794320e-09	1.215225e+01	1.806222e+02
2.490000e-06	1.670994e-06	2.868954e-09	1.232340e+01	1.857219e+02
2.500000e-06	1.694016e-06	2.947433e-09	1.249318e+01	1.907794e+02
2.510000e-06	1.716885e-06	3.029597e-09	1.266185e+01	1.957905e+02
2.520000e-06	1.739619e-06	3.108842e-09	1.282950e+01	2.007524e+02
2.530000e-06	1.762236e-06	3.184165e-09	1.299630e+01	2.056639e+02
2.540000e-06	1.784758e-06	3.256138e-09	1.316240e+01	2.105254e+02
2.550000e-06	1.807172e-06	3.324764e-09	1.332770e+01	2.153383e+02
2.560000e-06	1.829448e-06	3.391098e-09	1.349198e+01	2.201048e+02
2.570000e-06	1.851578e-06	3.460763e-09	1.365519e+01	2.248272e+02
2.580000e-06	1.873579e-06	3.533883e-09	1.381744e+01	2.295077e+02
2.590000e-06	1.895467e-06	3.607842e-09	1.397887e+01	2.341478e+02
2.600000e-06	1.917267e-06	3.678444e-09	1.413964e+01	2.387480e+02
2.610000e-06	1.938957e-06	3.746188e-09	1.429960e+01	2.433079e+02
2.620000e-06	1.960485e-06	3.813075e-09	1.445837e+01	2.478260e+02
2.630000e-06	1.981815e-06	3.878563e-09	1.461567e+01	2.523003e+02
2.640000e-06	2.002952e-06	3.940969e-09	1.477156e+01	2.567279e+02
2.650000e-06	2.023951e-06	3.999958e-09	1.492642e+01	2.611058e+02
2.660000e-06	2.044820e-06	4.060327e-09	1.508033e+01	2.654311e+02
2.670000e-06	2.065542e-06	4.122471e-09	1.523315e+01	2.697012e+02
2.680000e-06	2.086112e-06	4.186093e-09	1.538485e+01	2.739139e+02
2.690000e-06	2.106524e-06	4.248655e-09	1.553539e+01	2.780675e+02
2.700000e-06	2.126810e-06	4.309211e-09	1.568499e+01	2.821611e+02
2.710000e-06	2.147000e-06	4.369342e-09	1.583389e+01	2.861939e+02
2.720000e-06	2.167036e-06	4.428859e-09	1.598166e+01	2.901657e+02
2.730000e-06	2.186840e-06	4.486761e-09	1.612771e+01	2.940767e+02
2.740000e-06	2.206432e-06	4.541411e-09	1.627220e+01	2.979269e+02
2.750000e-06	2.225879e-06	4.593080e-09	1.641562e+01	3.017169e+02
2.760000e-06	2.245209e-06	4.647145e-09	1.655817e+01	3.054468e+02
2.770000e-06	2.264391e-06	4.703761e-09	1.669964e+01	3.091172e+02
2.780000e-06	2.283414e-06	4.760415e-09	1.683994e+01	3.127285e+02
2.790000e-06	2.302286e-06	4.815313e-09	1.697911e+01	3.162813e+02
2.800000e-06	2.321012e-06	4.869729e-09	1.711722e+01	3.197761e+02
2.810000e-06	2.339626e-06	4.922804e-09	1.725449e+01	3.232135e+02
2.820000e-06	2.358099e-06	4.969888e-09	1.739073e+01	3.265939e+02
2.830000e-06	2.376338e-06	5.012536e-09	1.752524e+01	3.299178e+02
2.840000e-06	2.394334e-06	5.054118e-09	1.765796e+01	3.331855e+02
2.850000e-06	2.412156e-06	5.097250e-09	1.778939e+01	3.363970e+02
2.860000e-06	2.429824e-06	5.141832e-09	1.791969e+01	3.395521e+02
2.870000e-06	2.447326e-06	5.190189e-09	1.804877e+01	3.426505e+02
2.880000e-06	2.464667e-06	5.239547e-09	1.817666e+01	3.456917e+02
2.890000e-06	2.481837e-06	5.282982e-09	1.830328e+01	3.486755e+02
2.900000e-06	2.498876e-06	5.323083e-09	1.842895e+01	3.516017e+02
