# Temperatura_=_20.0
# Concentracion g/m^3_=_10000.0
# C_Vs_to_Am_M_A/Vsm_=_65563218390.804596
# pendiente_HvsI_1/m_=_3716.3
# ordenada_HvsI_A/m_=_1297.0
# frecuencia_Hz_=_135260.07917426465

Tiempo_(s)	Campo_(V.s)	Magnetizacion_(V.s)	Campo_(kA/m)	Magnetizacion_(A/m)
0.000000e+00	-3.187967e-06	-6.962015e-09	-2.355323e+01	-4.535936e+02
1.000000e-08	-3.187959e-06	-6.970026e-09	-2.355317e+01	-4.536923e+02
2.000000e-08	-3.187756e-06	-6.973039e-09	-2.355167e+01	-4.537615e+02
3.000000e-08	-3.187387e-06	-6.971785e-09	-2.354895e+01	-4.538008e+02
4.000000e-08	-3.186745e-06	-6.971758e-09	-2.354420e+01	-4.538113e+02
5.000000e-08	-3.185817e-06	-6.972731e-09	-2.353735e+01	-4.537962e+02
6.000000e-08	-3.184651e-06	-6.968058e-09	-2.352873e+01	-4.537603e+02
7.000000e-08	-3.183128e-06	-6.958270e-09	-2.351748e+01	-4.537101e+02
8.000000e-08	-3.181231e-06	-6.964325e-09	-2.350346e+01	-4.536527e+02
9.000000e-08	-3.179238e-06	-6.998058e-09	-2.348874e+01	-4.535956e+02
1.000000e-07	-3.177103e-06	-7.006553e-09	-2.347297e+01	-4.535460e+02
1.100000e-07	-3.174753e-06	-6.930457e-09	-2.345560e+01	-4.535096e+02
1.200000e-07	-3.172347e-06	-6.905415e-09	-2.343783e+01	-4.534905e+02
1.300000e-07	-3.169645e-06	-6.976096e-09	-2.341787e+01	-4.534909e+02
1.400000e-07	-3.166483e-06	-6.949016e-09	-2.339450e+01	-4.535103e+02
1.500000e-07	-3.163104e-06	-6.909727e-09	-2.336954e+01	-4.535463e+02
1.600000e-07	-3.159582e-06	-6.920405e-09	-2.334351e+01	-4.535942e+02
1.700000e-07	-3.155844e-06	-6.979858e-09	-2.331590e+01	-4.536477e+02
1.800000e-07	-3.151857e-06	-6.960204e-09	-2.328644e+01	-4.536995e+02
1.900000e-07	-3.147599e-06	-7.000765e-09	-2.325498e+01	-4.537415e+02
2.000000e-07	-3.143122e-06	-6.976803e-09	-2.322191e+01	-4.537654e+02
2.100000e-07	-3.138482e-06	-6.973781e-09	-2.318763e+01	-4.537633e+02
2.200000e-07	-3.133658e-06	-6.965623e-09	-2.315199e+01	-4.537279e+02
2.300000e-07	-3.128569e-06	-6.981340e-09	-2.311439e+01	-4.536532e+02
2.400000e-07	-3.123232e-06	-6.956520e-09	-2.307495e+01	-4.535340e+02
2.500000e-07	-3.117698e-06	-6.955478e-09	-2.303407e+01	-4.533666e+02
2.600000e-07	-3.111940e-06	-6.950963e-09	-2.299153e+01	-4.531487e+02
2.700000e-07	-3.105938e-06	-6.957767e-09	-2.294719e+01	-4.528795e+02
2.800000e-07	-3.099736e-06	-6.960537e-09	-2.290137e+01	-4.525596e+02
2.900000e-07	-3.093315e-06	-6.927575e-09	-2.285393e+01	-4.521906e+02
3.000000e-07	-3.086628e-06	-6.936149e-09	-2.280452e+01	-4.517757e+02
3.100000e-07	-3.079739e-06	-6.924425e-09	-2.275362e+01	-4.513188e+02
3.200000e-07	-3.072726e-06	-6.942896e-09	-2.270181e+01	-4.508247e+02
3.300000e-07	-3.065529e-06	-6.898341e-09	-2.264863e+01	-4.502985e+02
3.400000e-07	-3.058016e-06	-6.897100e-09	-2.259313e+01	-4.497457e+02
3.500000e-07	-3.050239e-06	-6.855693e-09	-2.253567e+01	-4.491711e+02
3.600000e-07	-3.042280e-06	-6.888060e-09	-2.247687e+01	-4.485791e+02
3.700000e-07	-3.034089e-06	-6.878030e-09	-2.241635e+01	-4.479730e+02
3.800000e-07	-3.025628e-06	-6.872872e-09	-2.235384e+01	-4.473549e+02
3.900000e-07	-3.016958e-06	-6.833922e-09	-2.228978e+01	-4.467257e+02
4.000000e-07	-3.008100e-06	-6.852127e-09	-2.222435e+01	-4.460847e+02
4.100000e-07	-2.999021e-06	-6.835209e-09	-2.215726e+01	-4.454304e+02
4.200000e-07	-2.989703e-06	-6.811595e-09	-2.208843e+01	-4.447602e+02
4.300000e-07	-2.980195e-06	-6.782241e-09	-2.201818e+01	-4.440714e+02
4.400000e-07	-2.970513e-06	-6.789610e-09	-2.194664e+01	-4.433610e+02
4.500000e-07	-2.960607e-06	-6.788836e-09	-2.187346e+01	-4.426268e+02
4.600000e-07	-2.950405e-06	-6.773190e-09	-2.179808e+01	-4.418671e+02
4.700000e-07	-2.939886e-06	-6.753871e-09	-2.172037e+01	-4.410813e+02
4.800000e-07	-2.929121e-06	-6.730979e-09	-2.164083e+01	-4.402702e+02
4.900000e-07	-2.918148e-06	-6.722393e-09	-2.155976e+01	-4.394351e+02
5.000000e-07	-2.906986e-06	-6.708189e-09	-2.147729e+01	-4.385786e+02
5.100000e-07	-2.895613e-06	-6.691510e-09	-2.139327e+01	-4.377033e+02
5.200000e-07	-2.884021e-06	-6.657805e-09	-2.130763e+01	-4.368121e+02
5.300000e-07	-2.872201e-06	-6.664893e-09	-2.122030e+01	-4.359074e+02
5.400000e-07	-2.860154e-06	-6.659682e-09	-2.113129e+01	-4.349910e+02
5.500000e-07	-2.847916e-06	-6.643449e-09	-2.104088e+01	-4.340639e+02
5.600000e-07	-2.835499e-06	-6.612385e-09	-2.094914e+01	-4.331261e+02
5.700000e-07	-2.822896e-06	-6.608377e-09	-2.085603e+01	-4.321769e+02
5.800000e-07	-2.810116e-06	-6.590519e-09	-2.076160e+01	-4.312152e+02
5.900000e-07	-2.797165e-06	-6.575165e-09	-2.066592e+01	-4.302395e+02
6.000000e-07	-2.783995e-06	-6.547397e-09	-2.056862e+01	-4.292484e+02
6.100000e-07	-2.770570e-06	-6.528586e-09	-2.046943e+01	-4.282410e+02
6.200000e-07	-2.756902e-06	-6.513676e-09	-2.036845e+01	-4.272170e+02
6.300000e-07	-2.743036e-06	-6.509134e-09	-2.026600e+01	-4.261766e+02
6.400000e-07	-2.728998e-06	-6.488232e-09	-2.016229e+01	-4.251207e+02
6.500000e-07	-2.714766e-06	-6.463176e-09	-2.005714e+01	-4.240503e+02
6.600000e-07	-2.700342e-06	-6.451413e-09	-1.995057e+01	-4.229665e+02
6.700000e-07	-2.685763e-06	-6.442430e-09	-1.984286e+01	-4.218702e+02
6.800000e-07	-2.671028e-06	-6.422545e-09	-1.973400e+01	-4.207612e+02
6.900000e-07	-2.656055e-06	-6.397931e-09	-1.962337e+01	-4.196390e+02
7.000000e-07	-2.640806e-06	-6.381410e-09	-1.951072e+01	-4.185018e+02
7.100000e-07	-2.625365e-06	-6.361799e-09	-1.939663e+01	-4.173471e+02
7.200000e-07	-2.609772e-06	-6.345992e-09	-1.928143e+01	-4.161720e+02
7.300000e-07	-2.593955e-06	-6.322791e-09	-1.916457e+01	-4.149733e+02
7.400000e-07	-2.577888e-06	-6.303600e-09	-1.904587e+01	-4.137482e+02
7.500000e-07	-2.561612e-06	-6.288281e-09	-1.892561e+01	-4.124947e+02
7.600000e-07	-2.545131e-06	-6.276398e-09	-1.880385e+01	-4.112119e+02
7.700000e-07	-2.528450e-06	-6.247182e-09	-1.868061e+01	-4.099003e+02
7.800000e-07	-2.511599e-06	-6.217887e-09	-1.855611e+01	-4.085615e+02
7.900000e-07	-2.494618e-06	-6.194537e-09	-1.843065e+01	-4.071984e+02
8.000000e-07	-2.477522e-06	-6.177185e-09	-1.830434e+01	-4.058145e+02
8.100000e-07	-2.460280e-06	-6.157389e-09	-1.817695e+01	-4.044134e+02
8.200000e-07	-2.442854e-06	-6.137294e-09	-1.804821e+01	-4.029986e+02
8.300000e-07	-2.425267e-06	-6.115554e-09	-1.791827e+01	-4.015723e+02
8.400000e-07	-2.407529e-06	-6.095317e-09	-1.778723e+01	-4.001358e+02
8.500000e-07	-2.389648e-06	-6.073440e-09	-1.765512e+01	-3.986886e+02
8.600000e-07	-2.371585e-06	-6.047460e-09	-1.752167e+01	-3.972291e+02
8.700000e-07	-2.353278e-06	-6.022471e-09	-1.738641e+01	-3.957543e+02
8.800000e-07	-2.334763e-06	-5.998607e-09	-1.724961e+01	-3.942607e+02
8.900000e-07	-2.316107e-06	-5.974663e-09	-1.711178e+01	-3.927447e+02
9.000000e-07	-2.297306e-06	-5.944382e-09	-1.697288e+01	-3.912032e+02
9.100000e-07	-2.278345e-06	-5.913710e-09	-1.683279e+01	-3.896344e+02
9.200000e-07	-2.259233e-06	-5.885128e-09	-1.669159e+01	-3.880376e+02
9.300000e-07	-2.239967e-06	-5.862523e-09	-1.654925e+01	-3.864138e+02
9.400000e-07	-2.220572e-06	-5.838417e-09	-1.640595e+01	-3.847657e+02
9.500000e-07	-2.201039e-06	-5.812689e-09	-1.626164e+01	-3.830966e+02
9.600000e-07	-2.181317e-06	-5.786826e-09	-1.611593e+01	-3.814105e+02
9.700000e-07	-2.161386e-06	-5.760528e-09	-1.596868e+01	-3.797112e+02
9.800000e-07	-2.141278e-06	-5.731611e-09	-1.582012e+01	-3.780015e+02
9.900000e-07	-2.121037e-06	-5.701750e-09	-1.567058e+01	-3.762828e+02
1.000000e-06	-2.100667e-06	-5.671765e-09	-1.552008e+01	-3.745548e+02
1.010000e-06	-2.080154e-06	-5.645477e-09	-1.536852e+01	-3.728153e+02
1.020000e-06	-2.059493e-06	-5.622932e-09	-1.521587e+01	-3.710606e+02
1.030000e-06	-2.038680e-06	-5.597617e-09	-1.506210e+01	-3.692857e+02
1.040000e-06	-2.017727e-06	-5.568372e-09	-1.490730e+01	-3.674856e+02
1.050000e-06	-1.996661e-06	-5.538572e-09	-1.475166e+01	-3.656551e+02
1.060000e-06	-1.975465e-06	-5.509117e-09	-1.459506e+01	-3.637905e+02
1.070000e-06	-1.954064e-06	-5.476514e-09	-1.443695e+01	-3.618895e+02
1.080000e-06	-1.932461e-06	-5.441632e-09	-1.427734e+01	-3.599518e+02
1.090000e-06	-1.910722e-06	-5.406740e-09	-1.411673e+01	-3.579791e+02
1.100000e-06	-1.888870e-06	-5.375781e-09	-1.395529e+01	-3.559747e+02
1.110000e-06	-1.866920e-06	-5.344815e-09	-1.379311e+01	-3.539432e+02
1.120000e-06	-1.844857e-06	-5.312774e-09	-1.363011e+01	-3.518895e+02
1.130000e-06	-1.822654e-06	-5.280570e-09	-1.346607e+01	-3.498180e+02
1.140000e-06	-1.800303e-06	-5.250301e-09	-1.330094e+01	-3.477321e+02
1.150000e-06	-1.777844e-06	-5.218836e-09	-1.313501e+01	-3.456335e+02
1.160000e-06	-1.755288e-06	-5.184622e-09	-1.296836e+01	-3.435220e+02
1.170000e-06	-1.732624e-06	-5.148959e-09	-1.280091e+01	-3.413952e+02
1.180000e-06	-1.709815e-06	-5.113921e-09	-1.263240e+01	-3.392495e+02
1.190000e-06	-1.686824e-06	-5.082305e-09	-1.246254e+01	-3.370800e+02
1.200000e-06	-1.663662e-06	-5.050667e-09	-1.229141e+01	-3.348816e+02
1.210000e-06	-1.640351e-06	-5.018722e-09	-1.211918e+01	-3.326500e+02
1.220000e-06	-1.616937e-06	-4.985244e-09	-1.194620e+01	-3.303821e+02
1.230000e-06	-1.593433e-06	-4.949642e-09	-1.177255e+01	-3.280765e+02
1.240000e-06	-1.569815e-06	-4.910029e-09	-1.159806e+01	-3.257340e+02
1.250000e-06	-1.546076e-06	-4.870286e-09	-1.142267e+01	-3.233573e+02
1.260000e-06	-1.522213e-06	-4.831597e-09	-1.124636e+01	-3.209508e+02
1.270000e-06	-1.498234e-06	-4.794724e-09	-1.106920e+01	-3.185196e+02
1.280000e-06	-1.474153e-06	-4.758798e-09	-1.089128e+01	-3.160691e+02
1.290000e-06	-1.449995e-06	-4.724190e-09	-1.071281e+01	-3.136038e+02
1.300000e-06	-1.425768e-06	-4.689444e-09	-1.053381e+01	-3.111272e+02
1.310000e-06	-1.401444e-06	-4.653305e-09	-1.035410e+01	-3.086405e+02
1.320000e-06	-1.377029e-06	-4.618038e-09	-1.017372e+01	-3.061431e+02
1.330000e-06	-1.352482e-06	-4.581172e-09	-9.992360e+00	-3.036326e+02
1.340000e-06	-1.327755e-06	-4.543815e-09	-9.809673e+00	-3.011048e+02
1.350000e-06	-1.302884e-06	-4.506898e-09	-9.625921e+00	-2.985549e+02
1.360000e-06	-1.277931e-06	-4.470219e-09	-9.441563e+00	-2.959780e+02
1.370000e-06	-1.252919e-06	-4.431515e-09	-9.256770e+00	-2.933697e+02
1.380000e-06	-1.227835e-06	-4.392470e-09	-9.071446e+00	-2.907271e+02
1.390000e-06	-1.202691e-06	-4.353107e-09	-8.885681e+00	-2.880490e+02
1.400000e-06	-1.177471e-06	-4.313720e-09	-8.699353e+00	-2.853359e+02
1.410000e-06	-1.152171e-06	-4.272681e-09	-8.512433e+00	-2.825900e+02
1.420000e-06	-1.126796e-06	-4.230609e-09	-8.324953e+00	-2.798148e+02
1.430000e-06	-1.101329e-06	-4.190348e-09	-8.136804e+00	-2.770143e+02
1.440000e-06	-1.075783e-06	-4.151063e-09	-7.948067e+00	-2.741924e+02
1.450000e-06	-1.050161e-06	-4.109468e-09	-7.758763e+00	-2.713522e+02
1.460000e-06	-1.024477e-06	-4.066639e-09	-7.569003e+00	-2.684956e+02
1.470000e-06	-9.987362e-07	-4.025068e-09	-7.378829e+00	-2.656229e+02
1.480000e-06	-9.729323e-07	-3.982817e-09	-7.188185e+00	-2.627328e+02
1.490000e-06	-9.470794e-07	-3.937609e-09	-6.997180e+00	-2.598228e+02
1.500000e-06	-9.211945e-07	-3.886213e-09	-6.805938e+00	-2.568894e+02
1.510000e-06	-8.952488e-07	-3.835256e-09	-6.614247e+00	-2.539288e+02
1.520000e-06	-8.692279e-07	-3.790550e-09	-6.422000e+00	-2.509376e+02
1.530000e-06	-8.431256e-07	-3.747021e-09	-6.229152e+00	-2.479134e+02
1.540000e-06	-8.169276e-07	-3.700266e-09	-6.035597e+00	-2.448548e+02
1.550000e-06	-7.906461e-07	-3.649094e-09	-5.841425e+00	-2.417619e+02
1.560000e-06	-7.642771e-07	-3.595856e-09	-5.646606e+00	-2.386362e+02
1.570000e-06	-7.378182e-07	-3.543902e-09	-5.451123e+00	-2.354798e+02
1.580000e-06	-7.113084e-07	-3.494444e-09	-5.255265e+00	-2.322955e+02
1.590000e-06	-6.847652e-07	-3.447864e-09	-5.059159e+00	-2.290856e+02
1.600000e-06	-6.581751e-07	-3.401124e-09	-4.862707e+00	-2.258519e+02
1.610000e-06	-6.315569e-07	-3.352325e-09	-4.666047e+00	-2.225949e+02
1.620000e-06	-6.049229e-07	-3.303882e-09	-4.469271e+00	-2.193139e+02
1.630000e-06	-5.782621e-07	-3.256004e-09	-4.272296e+00	-2.160066e+02
1.640000e-06	-5.515613e-07	-3.205213e-09	-4.075027e+00	-2.126696e+02
1.650000e-06	-5.248292e-07	-3.152038e-09	-3.877525e+00	-2.092992e+02
1.660000e-06	-4.980717e-07	-3.098398e-09	-3.679836e+00	-2.058912e+02
1.670000e-06	-4.712862e-07	-3.044331e-09	-3.481940e+00	-2.024421e+02
1.680000e-06	-4.444777e-07	-2.991783e-09	-3.283875e+00	-1.989495e+02
1.690000e-06	-4.176182e-07	-2.941785e-09	-3.085433e+00	-1.954124e+02
1.700000e-06	-3.907203e-07	-2.889676e-09	-2.886707e+00	-1.918313e+02
1.710000e-06	-3.638039e-07	-2.833348e-09	-2.687844e+00	-1.882080e+02
1.720000e-06	-3.368492e-07	-2.777738e-09	-2.488698e+00	-1.845455e+02
1.730000e-06	-3.098679e-07	-2.723261e-09	-2.289356e+00	-1.808470e+02
1.740000e-06	-2.828697e-07	-2.667231e-09	-2.089888e+00	-1.771160e+02
1.750000e-06	-2.558637e-07	-2.610578e-09	-1.890363e+00	-1.733550e+02
1.760000e-06	-2.288428e-07	-2.554083e-09	-1.690728e+00	-1.695656e+02
1.770000e-06	-2.018062e-07	-2.497355e-09	-1.490978e+00	-1.657476e+02
1.780000e-06	-1.747599e-07	-2.441056e-09	-1.291155e+00	-1.618997e+02
1.790000e-06	-1.476955e-07	-2.384851e-09	-1.091199e+00	-1.580192e+02
1.800000e-06	-1.206110e-07	-2.326495e-09	-8.910940e-01	-1.541027e+02
1.810000e-06	-9.351615e-08	-2.265405e-09	-6.909128e-01	-1.501465e+02
1.820000e-06	-6.642967e-08	-2.204723e-09	-4.907934e-01	-1.461473e+02
1.830000e-06	-3.932897e-08	-2.143079e-09	-2.905689e-01	-1.421025e+02
1.840000e-06	-1.220503e-08	-2.077843e-09	-9.017279e-02	-1.380112e+02
1.850000e-06	1.491116e-08	-2.012164e-09	1.101661e-01	-1.338738e+02
1.860000e-06	4.200270e-08	-1.949172e-09	3.103229e-01	-1.296922e+02
1.870000e-06	6.908314e-08	-1.887121e-09	5.103977e-01	-1.254695e+02
1.880000e-06	9.615975e-08	-1.823274e-09	7.104442e-01	-1.212094e+02
1.890000e-06	1.232257e-07	-1.758699e-09	9.104117e-01	-1.169161e+02
1.900000e-06	1.502673e-07	-1.694734e-09	1.110200e+00	-1.125932e+02
1.910000e-06	1.772943e-07	-1.632168e-09	1.309880e+00	-1.082434e+02
1.920000e-06	2.043255e-07	-1.566602e-09	1.509590e+00	-1.038684e+02
1.930000e-06	2.313517e-07	-1.496713e-09	1.709265e+00	-9.946849e+01
1.940000e-06	2.583590e-07	-1.427860e-09	1.908799e+00	-9.504285e+01
1.950000e-06	2.853241e-07	-1.359356e-09	2.108022e+00	-9.058987e+01
1.960000e-06	3.122627e-07	-1.290320e-09	2.307049e+00	-8.610753e+01
1.970000e-06	3.392016e-07	-1.221759e-09	2.506078e+00	-8.159391e+01
1.980000e-06	3.661245e-07	-1.151837e-09	2.704989e+00	-7.704768e+01
1.990000e-06	3.930151e-07	-1.080489e-09	2.903661e+00	-7.246839e+01
2.000000e-06	4.198771e-07	-1.012049e-09	3.102122e+00	-6.785664e+01
2.010000e-06	4.467108e-07	-9.452288e-10	3.300373e+00	-6.321401e+01
2.020000e-06	4.735160e-07	-8.734936e-10	3.498415e+00	-5.854281e+01
2.030000e-06	5.002742e-07	-7.979842e-10	3.696109e+00	-5.384570e+01
2.040000e-06	5.269809e-07	-7.232868e-10	3.893423e+00	-4.912516e+01
2.050000e-06	5.536550e-07	-6.507219e-10	4.090495e+00	-4.438308e+01
2.060000e-06	5.803016e-07	-5.801546e-10	4.287365e+00	-3.962033e+01
2.070000e-06	6.069321e-07	-5.104224e-10	4.484116e+00	-3.483664e+01
2.080000e-06	6.335411e-07	-4.393172e-10	4.680707e+00	-3.003052e+01
2.090000e-06	6.601176e-07	-3.678097e-10	4.877059e+00	-2.519954e+01
2.100000e-06	6.866730e-07	-2.953769e-10	5.073254e+00	-2.034068e+01
2.110000e-06	7.131910e-07	-2.164607e-10	5.269173e+00	-1.545087e+01
2.120000e-06	7.396539e-07	-1.335375e-10	5.464686e+00	-1.052748e+01
2.130000e-06	7.660674e-07	-5.482769e-11	5.659833e+00	-5.568807e+00
2.140000e-06	7.923990e-07	1.937192e-11	5.854376e+00	-5.743806e-01
2.150000e-06	8.186257e-07	9.616225e-11	6.048143e+00	4.454921e+00
2.160000e-06	8.447475e-07	1.761117e-10	6.241134e+00	9.516986e+00
2.170000e-06	8.707662e-07	2.544356e-10	6.433365e+00	1.460878e+01
2.180000e-06	8.967013e-07	3.310974e-10	6.624978e+00	1.972681e+01
2.190000e-06	9.225711e-07	4.094494e-10	6.816108e+00	2.486768e+01
2.200000e-06	9.483945e-07	4.898881e-10	7.006896e+00	3.002857e+01
2.210000e-06	9.741788e-07	5.682931e-10	7.197395e+00	3.520763e+01
2.220000e-06	9.999202e-07	6.450483e-10	7.387576e+00	4.040421e+01
2.230000e-06	1.025609e-06	7.230570e-10	7.577369e+00	4.561880e+01
2.240000e-06	1.051232e-06	8.039141e-10	7.766676e+00	5.085273e+01
2.250000e-06	1.076772e-06	8.856510e-10	7.955372e+00	5.610776e+01
2.260000e-06	1.102230e-06	9.650375e-10	8.143457e+00	6.138546e+01
2.270000e-06	1.127624e-06	1.044004e-09	8.331072e+00	6.668660e+01
2.280000e-06	1.152943e-06	1.125295e-09	8.518131e+00	7.201061e+01
2.290000e-06	1.178176e-06	1.207682e-09	8.704561e+00	7.735525e+01
2.300000e-06	1.203328e-06	1.290611e-09	8.890388e+00	8.271649e+01
2.310000e-06	1.228411e-06	1.374846e-09	9.075706e+00	8.808864e+01
2.320000e-06	1.253437e-06	1.459153e-09	9.260603e+00	9.346483e+01
2.330000e-06	1.278403e-06	1.542991e-09	9.445056e+00	9.883757e+01
2.340000e-06	1.303288e-06	1.625937e-09	9.628911e+00	1.041995e+02
2.350000e-06	1.328048e-06	1.708220e-09	9.811841e+00	1.095443e+02
2.360000e-06	1.352644e-06	1.789334e-09	9.993556e+00	1.148669e+02
2.370000e-06	1.377109e-06	1.868010e-09	1.017431e+01	1.201644e+02
2.380000e-06	1.401472e-06	1.946339e-09	1.035430e+01	1.254357e+02
2.390000e-06	1.425725e-06	2.025851e-09	1.053349e+01	1.306819e+02
2.400000e-06	1.449900e-06	2.106413e-09	1.071211e+01	1.359054e+02
2.410000e-06	1.473995e-06	2.188428e-09	1.089012e+01	1.411094e+02
2.420000e-06	1.497994e-06	2.271012e-09	1.106743e+01	1.462974e+02
2.430000e-06	1.521908e-06	2.352137e-09	1.124411e+01	1.514720e+02
2.440000e-06	1.545727e-06	2.432219e-09	1.142009e+01	1.566348e+02
2.450000e-06	1.569410e-06	2.511641e-09	1.159506e+01	1.617855e+02
2.460000e-06	1.592945e-06	2.589295e-09	1.176894e+01	1.669220e+02
2.470000e-06	1.616369e-06	2.664570e-09	1.194200e+01	1.720407e+02
2.480000e-06	1.639686e-06	2.738761e-09	1.211427e+01	1.771364e+02
2.490000e-06	1.662863e-06	2.813525e-09	1.228551e+01	1.822034e+02
2.500000e-06	1.685867e-06	2.890209e-09	1.245547e+01	1.872360e+02
2.510000e-06	1.708684e-06	2.967766e-09	1.262404e+01	1.922290e+02
2.520000e-06	1.731371e-06	3.042837e-09	1.279166e+01	1.971785e+02
2.530000e-06	1.753959e-06	3.116291e-09	1.295854e+01	2.020821e+02
2.540000e-06	1.776451e-06	3.188606e-09	1.312472e+01	2.069389e+02
2.550000e-06	1.798831e-06	3.259847e-09	1.329006e+01	2.117497e+02
2.560000e-06	1.821073e-06	3.330617e-09	1.345439e+01	2.165162e+02
2.570000e-06	1.843187e-06	3.401608e-09	1.361777e+01	2.212409e+02
2.580000e-06	1.865174e-06	3.472590e-09	1.378021e+01	2.259260e+02
2.590000e-06	1.887055e-06	3.542552e-09	1.394188e+01	2.305735e+02
2.600000e-06	1.908845e-06	3.612637e-09	1.410286e+01	2.351841e+02
2.610000e-06	1.930521e-06	3.682652e-09	1.426301e+01	2.397573e+02
2.620000e-06	1.952021e-06	3.752952e-09	1.442185e+01	2.442916e+02
2.630000e-06	1.973307e-06	3.822743e-09	1.457912e+01	2.487842e+02
2.640000e-06	1.994419e-06	3.889262e-09	1.473510e+01	2.532317e+02
2.650000e-06	2.015411e-06	3.952637e-09	1.489019e+01	2.576304e+02
2.660000e-06	2.036294e-06	4.014402e-09	1.504448e+01	2.619769e+02
2.670000e-06	2.057037e-06	4.075351e-09	1.519773e+01	2.662683e+02
2.680000e-06	2.077630e-06	4.134747e-09	1.534988e+01	2.705029e+02
2.690000e-06	2.098075e-06	4.194390e-09	1.550093e+01	2.746796e+02
2.700000e-06	2.118390e-06	4.256372e-09	1.565102e+01	2.787986e+02
2.710000e-06	2.138587e-06	4.319684e-09	1.580024e+01	2.828606e+02
2.720000e-06	2.158645e-06	4.383452e-09	1.594843e+01	2.868666e+02
2.730000e-06	2.178475e-06	4.445752e-09	1.609493e+01	2.908177e+02
2.740000e-06	2.198066e-06	4.504639e-09	1.623968e+01	2.947144e+02
2.750000e-06	2.217499e-06	4.560340e-09	1.638325e+01	2.985567e+02
2.760000e-06	2.236805e-06	4.614451e-09	1.652589e+01	3.023437e+02
2.770000e-06	2.255979e-06	4.668273e-09	1.666755e+01	3.060738e+02
2.780000e-06	2.274993e-06	4.723074e-09	1.680803e+01	3.097450e+02
2.790000e-06	2.293857e-06	4.778987e-09	1.694739e+01	3.133550e+02
2.800000e-06	2.312584e-06	4.833474e-09	1.708575e+01	3.169017e+02
2.810000e-06	2.331179e-06	4.886039e-09	1.722314e+01	3.203838e+02
2.820000e-06	2.349623e-06	4.934981e-09	1.735941e+01	3.238005e+02
2.830000e-06	2.367838e-06	4.978081e-09	1.749398e+01	3.271523e+02
2.840000e-06	2.385820e-06	5.018930e-09	1.762683e+01	3.304403e+02
2.850000e-06	2.403640e-06	5.061267e-09	1.775849e+01	3.336667e+02
2.860000e-06	2.421309e-06	5.105287e-09	1.788903e+01	3.368341e+02
2.870000e-06	2.438817e-06	5.153107e-09	1.801839e+01	3.399449e+02
2.880000e-06	2.456168e-06	5.202119e-09	1.814658e+01	3.430015e+02
2.890000e-06	2.473359e-06	5.246822e-09	1.827359e+01	3.460056e+02
2.900000e-06	2.490421e-06	5.289219e-09	1.839965e+01	3.489578e+02
