# Temperatura_=_20.0
# Concentracion g/m^3_=_10000.0
# C_Vs_to_Am_M_A/Vsm_=_65563218390.804596
# pendiente_HvsI_1/m_=_3716.3
# ordenada_HvsI_A/m_=_1297.0
# frecuencia_Hz_=_135259.70068964263

Tiempo_(s)	Campo_(V.s)	Magnetizacion_(V.s)	Campo_(kA/m)	Magnetizacion_(A/m)
0.000000e+00	-3.190350e-06	-7.003036e-09	-2.355264e+01	-4.547609e+02
1.000000e-08	-3.190358e-06	-7.010545e-09	-2.355270e+01	-4.548315e+02
2.000000e-08	-3.190168e-06	-7.012820e-09	-2.355130e+01	-4.548846e+02
3.000000e-08	-3.189790e-06	-7.012495e-09	-2.354851e+01	-4.549267e+02
4.000000e-08	-3.189155e-06	-7.012068e-09	-2.354382e+01	-4.549638e+02
5.000000e-08	-3.188250e-06	-7.011333e-09	-2.353713e+01	-4.550003e+02
6.000000e-08	-3.187082e-06	-7.004542e-09	-2.352851e+01	-4.550386e+02
7.000000e-08	-3.185551e-06	-6.987229e-09	-2.351721e+01	-4.550787e+02
8.000000e-08	-3.183649e-06	-6.974464e-09	-2.350317e+01	-4.551177e+02
9.000000e-08	-3.181606e-06	-6.988680e-09	-2.348809e+01	-4.551505e+02
1.000000e-07	-3.179450e-06	-7.036120e-09	-2.347217e+01	-4.551703e+02
1.100000e-07	-3.177119e-06	-7.013044e-09	-2.345497e+01	-4.551697e+02
1.200000e-07	-3.174690e-06	-6.956566e-09	-2.343703e+01	-4.551419e+02
1.300000e-07	-3.171974e-06	-7.019042e-09	-2.341698e+01	-4.550814e+02
1.400000e-07	-3.168822e-06	-7.007728e-09	-2.339371e+01	-4.549853e+02
1.500000e-07	-3.165434e-06	-6.978506e-09	-2.336870e+01	-4.548538e+02
1.600000e-07	-3.161889e-06	-6.951877e-09	-2.334253e+01	-4.546902e+02
1.700000e-07	-3.158139e-06	-6.985989e-09	-2.331484e+01	-4.545008e+02
1.800000e-07	-3.154161e-06	-6.939096e-09	-2.328548e+01	-4.542936e+02
1.900000e-07	-3.149919e-06	-6.964355e-09	-2.325416e+01	-4.540777e+02
2.000000e-07	-3.145439e-06	-6.951538e-09	-2.322109e+01	-4.538615e+02
2.100000e-07	-3.140793e-06	-6.961115e-09	-2.318679e+01	-4.536518e+02
2.200000e-07	-3.135957e-06	-6.945736e-09	-2.315109e+01	-4.534523e+02
2.300000e-07	-3.130862e-06	-6.946816e-09	-2.311347e+01	-4.532629e+02
2.400000e-07	-3.125521e-06	-6.927421e-09	-2.307404e+01	-4.530798e+02
2.500000e-07	-3.119963e-06	-6.930768e-09	-2.303301e+01	-4.528953e+02
2.600000e-07	-3.114164e-06	-6.919333e-09	-2.299020e+01	-4.526992e+02
2.700000e-07	-3.108138e-06	-6.915317e-09	-2.294571e+01	-4.524796e+02
2.800000e-07	-3.101931e-06	-6.933852e-09	-2.289989e+01	-4.522245e+02
2.900000e-07	-3.095514e-06	-6.886290e-09	-2.285252e+01	-4.519235e+02
3.000000e-07	-3.088832e-06	-6.901603e-09	-2.280319e+01	-4.515688e+02
3.100000e-07	-3.081953e-06	-6.889746e-09	-2.275240e+01	-4.511565e+02
3.200000e-07	-3.074941e-06	-6.919889e-09	-2.270064e+01	-4.506866e+02
3.300000e-07	-3.067720e-06	-6.875729e-09	-2.264733e+01	-4.501632e+02
3.400000e-07	-3.060210e-06	-6.897314e-09	-2.259189e+01	-4.495938e+02
3.500000e-07	-3.052444e-06	-6.852564e-09	-2.253456e+01	-4.489880e+02
3.600000e-07	-3.044487e-06	-6.863977e-09	-2.247581e+01	-4.483564e+02
3.700000e-07	-3.036290e-06	-6.844936e-09	-2.241530e+01	-4.477092e+02
3.800000e-07	-3.027808e-06	-6.854067e-09	-2.235268e+01	-4.470544e+02
3.900000e-07	-3.019101e-06	-6.814615e-09	-2.228840e+01	-4.463977e+02
4.000000e-07	-3.010223e-06	-6.817617e-09	-2.222286e+01	-4.457413e+02
4.100000e-07	-3.001131e-06	-6.814218e-09	-2.215573e+01	-4.450841e+02
4.200000e-07	-2.991793e-06	-6.807947e-09	-2.208680e+01	-4.444224e+02
4.300000e-07	-2.982264e-06	-6.781658e-09	-2.201645e+01	-4.437505e+02
4.400000e-07	-2.972577e-06	-6.773282e-09	-2.194494e+01	-4.430617e+02
4.500000e-07	-2.962661e-06	-6.771015e-09	-2.187174e+01	-4.423499e+02
4.600000e-07	-2.952456e-06	-6.747973e-09	-2.179640e+01	-4.416099e+02
4.700000e-07	-2.941944e-06	-6.730223e-09	-2.171879e+01	-4.408389e+02
4.800000e-07	-2.931162e-06	-6.705839e-09	-2.163920e+01	-4.400363e+02
4.900000e-07	-2.920185e-06	-6.698328e-09	-2.155815e+01	-4.392038e+02
5.000000e-07	-2.909026e-06	-6.685101e-09	-2.147577e+01	-4.383451e+02
5.100000e-07	-2.897660e-06	-6.686068e-09	-2.139187e+01	-4.374649e+02
5.200000e-07	-2.886062e-06	-6.663708e-09	-2.130624e+01	-4.365684e+02
5.300000e-07	-2.874207e-06	-6.663600e-09	-2.121872e+01	-4.356601e+02
5.400000e-07	-2.862120e-06	-6.650059e-09	-2.112950e+01	-4.347435e+02
5.500000e-07	-2.849858e-06	-6.638725e-09	-2.103897e+01	-4.338201e+02
5.600000e-07	-2.837411e-06	-6.608115e-09	-2.094708e+01	-4.328899e+02
5.700000e-07	-2.824777e-06	-6.591871e-09	-2.085381e+01	-4.319511e+02
5.800000e-07	-2.811978e-06	-6.568901e-09	-2.075932e+01	-4.310008e+02
5.900000e-07	-2.799011e-06	-6.557896e-09	-2.066359e+01	-4.300358e+02
6.000000e-07	-2.785823e-06	-6.540798e-09	-2.056623e+01	-4.290529e+02
6.100000e-07	-2.772367e-06	-6.527373e-09	-2.046690e+01	-4.280498e+02
6.200000e-07	-2.758673e-06	-6.513567e-09	-2.036580e+01	-4.270251e+02
6.300000e-07	-2.744804e-06	-6.507405e-09	-2.026341e+01	-4.259789e+02
6.400000e-07	-2.730769e-06	-6.489264e-09	-2.015980e+01	-4.249124e+02
6.500000e-07	-2.716536e-06	-6.462634e-09	-2.005472e+01	-4.238274e+02
6.600000e-07	-2.702109e-06	-6.439624e-09	-1.994822e+01	-4.227256e+02
6.700000e-07	-2.687521e-06	-6.417734e-09	-1.984053e+01	-4.216085e+02
6.800000e-07	-2.672761e-06	-6.396375e-09	-1.973156e+01	-4.204765e+02
6.900000e-07	-2.657765e-06	-6.378619e-09	-1.962085e+01	-4.193286e+02
7.000000e-07	-2.642517e-06	-6.367771e-09	-1.950828e+01	-4.181625e+02
7.100000e-07	-2.627076e-06	-6.350859e-09	-1.939429e+01	-4.169747e+02
7.200000e-07	-2.611454e-06	-6.335227e-09	-1.927896e+01	-4.157611e+02
7.300000e-07	-2.595611e-06	-6.311014e-09	-1.916200e+01	-4.145180e+02
7.400000e-07	-2.579524e-06	-6.282221e-09	-1.904324e+01	-4.132422e+02
7.500000e-07	-2.563210e-06	-6.251642e-09	-1.892280e+01	-4.119323e+02
7.600000e-07	-2.546722e-06	-6.228671e-09	-1.880108e+01	-4.105891e+02
7.700000e-07	-2.530041e-06	-6.203712e-09	-1.867793e+01	-4.092152e+02
7.800000e-07	-2.513167e-06	-6.183839e-09	-1.855336e+01	-4.078157e+02
7.900000e-07	-2.496178e-06	-6.164316e-09	-1.842794e+01	-4.063968e+02
8.000000e-07	-2.479079e-06	-6.146718e-09	-1.830171e+01	-4.049656e+02
8.100000e-07	-2.461812e-06	-6.126340e-09	-1.817424e+01	-4.035287e+02
8.200000e-07	-2.444347e-06	-6.104543e-09	-1.804530e+01	-4.020913e+02
8.300000e-07	-2.426710e-06	-6.078379e-09	-1.791510e+01	-4.006566e+02
8.400000e-07	-2.408947e-06	-6.053907e-09	-1.778396e+01	-3.992246e+02
8.500000e-07	-2.391051e-06	-6.031085e-09	-1.765185e+01	-3.977930e+02
8.600000e-07	-2.372958e-06	-6.006339e-09	-1.751827e+01	-3.963563e+02
8.700000e-07	-2.354634e-06	-5.979033e-09	-1.738300e+01	-3.949074e+02
8.800000e-07	-2.336126e-06	-5.952854e-09	-1.724636e+01	-3.934382e+02
8.900000e-07	-2.317476e-06	-5.931159e-09	-1.710868e+01	-3.919409e+02
9.000000e-07	-2.298669e-06	-5.910431e-09	-1.696984e+01	-3.904088e+02
9.100000e-07	-2.279690e-06	-5.886142e-09	-1.682973e+01	-3.888377e+02
9.200000e-07	-2.260556e-06	-5.857776e-09	-1.668847e+01	-3.872263e+02
9.300000e-07	-2.241290e-06	-5.832953e-09	-1.654624e+01	-3.855763e+02
9.400000e-07	-2.221898e-06	-5.805382e-09	-1.640308e+01	-3.838920e+02
9.500000e-07	-2.202352e-06	-5.773468e-09	-1.625878e+01	-3.821799e+02
9.600000e-07	-2.182612e-06	-5.742655e-09	-1.611305e+01	-3.804476e+02
9.700000e-07	-2.162651e-06	-5.716081e-09	-1.596569e+01	-3.787024e+02
9.800000e-07	-2.142518e-06	-5.692334e-09	-1.581706e+01	-3.769502e+02
9.900000e-07	-2.122278e-06	-5.668795e-09	-1.566764e+01	-3.751950e+02
1.000000e-06	-2.101918e-06	-5.643188e-09	-1.551733e+01	-3.734379e+02
1.010000e-06	-2.081405e-06	-5.615383e-09	-1.536589e+01	-3.716770e+02
1.020000e-06	-2.060723e-06	-5.588913e-09	-1.521321e+01	-3.699079e+02
1.030000e-06	-2.039893e-06	-5.561804e-09	-1.505944e+01	-3.681245e+02
1.040000e-06	-2.018935e-06	-5.532169e-09	-1.490471e+01	-3.663197e+02
1.050000e-06	-1.997856e-06	-5.502965e-09	-1.474910e+01	-3.644865e+02
1.060000e-06	-1.976616e-06	-5.474896e-09	-1.459229e+01	-3.626194e+02
1.070000e-06	-1.955155e-06	-5.445506e-09	-1.443386e+01	-3.607148e+02
1.080000e-06	-1.933512e-06	-5.411654e-09	-1.427408e+01	-3.587716e+02
1.090000e-06	-1.911769e-06	-5.377779e-09	-1.411356e+01	-3.567913e+02
1.100000e-06	-1.889927e-06	-5.349475e-09	-1.395231e+01	-3.547774e+02
1.110000e-06	-1.867957e-06	-5.324274e-09	-1.379012e+01	-3.527349e+02
1.120000e-06	-1.845873e-06	-5.296810e-09	-1.362709e+01	-3.506693e+02
1.130000e-06	-1.823671e-06	-5.265585e-09	-1.346318e+01	-3.485853e+02
1.140000e-06	-1.801334e-06	-5.233039e-09	-1.329828e+01	-3.464866e+02
1.150000e-06	-1.778866e-06	-5.200391e-09	-1.313241e+01	-3.443746e+02
1.160000e-06	-1.756294e-06	-5.165123e-09	-1.296577e+01	-3.422486e+02
1.170000e-06	-1.733620e-06	-5.127129e-09	-1.279839e+01	-3.401056e+02
1.180000e-06	-1.710808e-06	-5.090600e-09	-1.262998e+01	-3.379413e+02
1.190000e-06	-1.687798e-06	-5.057965e-09	-1.246010e+01	-3.357502e+02
1.200000e-06	-1.664590e-06	-5.027013e-09	-1.228878e+01	-3.335273e+02
1.210000e-06	-1.641259e-06	-4.996647e-09	-1.211653e+01	-3.312683e+02
1.220000e-06	-1.617832e-06	-4.965008e-09	-1.194358e+01	-3.289708e+02
1.230000e-06	-1.594305e-06	-4.931906e-09	-1.176990e+01	-3.266346e+02
1.240000e-06	-1.570664e-06	-4.892712e-09	-1.159537e+01	-3.242618e+02
1.250000e-06	-1.546895e-06	-4.849214e-09	-1.141990e+01	-3.218565e+02
1.260000e-06	-1.523008e-06	-4.805093e-09	-1.124355e+01	-3.194242e+02
1.270000e-06	-1.499003e-06	-4.766589e-09	-1.106633e+01	-3.169709e+02
1.280000e-06	-1.474901e-06	-4.732870e-09	-1.088840e+01	-3.145021e+02
1.290000e-06	-1.450720e-06	-4.702112e-09	-1.070989e+01	-3.120221e+02
1.300000e-06	-1.426455e-06	-4.669527e-09	-1.053075e+01	-3.095335e+02
1.310000e-06	-1.402100e-06	-4.632988e-09	-1.035095e+01	-3.070362e+02
1.320000e-06	-1.377632e-06	-4.596503e-09	-1.017031e+01	-3.045283e+02
1.330000e-06	-1.353025e-06	-4.557098e-09	-9.988654e+00	-3.020059e+02
1.340000e-06	-1.328265e-06	-4.514007e-09	-9.805867e+00	-2.994640e+02
1.350000e-06	-1.303381e-06	-4.470736e-09	-9.622160e+00	-2.968974e+02
1.360000e-06	-1.278420e-06	-4.432700e-09	-9.437886e+00	-2.943011e+02
1.370000e-06	-1.253409e-06	-4.394597e-09	-9.253249e+00	-2.916718e+02
1.380000e-06	-1.228345e-06	-4.353863e-09	-9.068209e+00	-2.890079e+02
1.390000e-06	-1.203193e-06	-4.312034e-09	-8.882526e+00	-2.863097e+02
1.400000e-06	-1.177937e-06	-4.272917e-09	-8.696075e+00	-2.835794e+02
1.410000e-06	-1.152598e-06	-4.234137e-09	-8.509010e+00	-2.808207e+02
1.420000e-06	-1.127191e-06	-4.195168e-09	-8.321443e+00	-2.780379e+02
1.430000e-06	-1.101708e-06	-4.154340e-09	-8.133317e+00	-2.752352e+02
1.440000e-06	-1.076139e-06	-4.111760e-09	-7.944559e+00	-2.724161e+02
1.450000e-06	-1.050495e-06	-4.067503e-09	-7.755241e+00	-2.695826e+02
1.460000e-06	-1.024785e-06	-4.022697e-09	-7.565438e+00	-2.667349e+02
1.470000e-06	-9.990230e-07	-3.975972e-09	-7.375250e+00	-2.638714e+02
1.480000e-06	-9.732216e-07	-3.929584e-09	-7.184772e+00	-2.609890e+02
1.490000e-06	-9.473670e-07	-3.886272e-09	-6.993901e+00	-2.580837e+02
1.500000e-06	-9.214529e-07	-3.842380e-09	-6.802591e+00	-2.551509e+02
1.510000e-06	-8.954753e-07	-3.797893e-09	-6.610813e+00	-2.521866e+02
1.520000e-06	-8.694261e-07	-3.754435e-09	-6.418506e+00	-2.491878e+02
1.530000e-06	-8.432851e-07	-3.710406e-09	-6.225521e+00	-2.461529e+02
1.540000e-06	-8.170299e-07	-3.662702e-09	-6.031693e+00	-2.430817e+02
1.550000e-06	-7.906857e-07	-3.612042e-09	-5.837208e+00	-2.399757e+02
1.560000e-06	-7.642786e-07	-3.559863e-09	-5.642258e+00	-2.368373e+02
1.570000e-06	-7.378157e-07	-3.510164e-09	-5.446897e+00	-2.336695e+02
1.580000e-06	-7.113013e-07	-3.462259e-09	-5.251155e+00	-2.304748e+02
1.590000e-06	-6.847467e-07	-3.414741e-09	-5.055117e+00	-2.272553e+02
1.600000e-06	-6.581570e-07	-3.367081e-09	-4.858819e+00	-2.240113e+02
1.610000e-06	-6.315403e-07	-3.320054e-09	-4.662323e+00	-2.207418e+02
1.620000e-06	-6.048938e-07	-3.272623e-09	-4.465606e+00	-2.174445e+02
1.630000e-06	-5.782148e-07	-3.224361e-09	-4.268649e+00	-2.141156e+02
1.640000e-06	-5.515220e-07	-3.172572e-09	-4.071590e+00	-2.107509e+02
1.650000e-06	-5.248078e-07	-3.117647e-09	-3.874374e+00	-2.073462e+02
1.660000e-06	-4.980619e-07	-3.062909e-09	-3.676923e+00	-2.038980e+02
1.670000e-06	-4.712642e-07	-3.008608e-09	-3.479090e+00	-2.004041e+02
1.680000e-06	-4.444178e-07	-2.955262e-09	-3.280898e+00	-1.968641e+02
1.690000e-06	-4.175352e-07	-2.903948e-09	-3.082438e+00	-1.932792e+02
1.700000e-06	-3.906077e-07	-2.852889e-09	-2.883647e+00	-1.896522e+02
1.710000e-06	-3.636365e-07	-2.800803e-09	-2.684533e+00	-1.859873e+02
1.720000e-06	-3.366463e-07	-2.749062e-09	-2.485279e+00	-1.822887e+02
1.730000e-06	-3.096473e-07	-2.696267e-09	-2.285960e+00	-1.785607e+02
1.740000e-06	-2.826254e-07	-2.639360e-09	-2.086471e+00	-1.748067e+02
1.750000e-06	-2.555974e-07	-2.579601e-09	-1.886939e+00	-1.710286e+02
1.760000e-06	-2.285555e-07	-2.521175e-09	-1.687303e+00	-1.672266e+02
1.770000e-06	-2.014810e-07	-2.463628e-09	-1.487426e+00	-1.633995e+02
1.780000e-06	-1.743934e-07	-2.405305e-09	-1.287453e+00	-1.595446e+02
1.790000e-06	-1.472994e-07	-2.346966e-09	-1.087432e+00	-1.556585e+02
1.800000e-06	-1.201965e-07	-2.287918e-09	-8.873465e-01	-1.517373e+02
1.810000e-06	-9.308374e-08	-2.228164e-09	-6.871873e-01	-1.477781e+02
1.820000e-06	-6.597118e-08	-2.170849e-09	-4.870298e-01	-1.437785e+02
1.830000e-06	-3.884742e-08	-2.112354e-09	-2.867896e-01	-1.397380e+02
1.840000e-06	-1.170230e-08	-2.048873e-09	-8.639177e-02	-1.356572e+02
1.850000e-06	1.543914e-08	-1.983813e-09	1.139788e-01	-1.315384e+02
1.860000e-06	4.257441e-08	-1.918687e-09	3.143040e-01	-1.273845e+02
1.870000e-06	6.971124e-08	-1.854932e-09	5.146406e-01	-1.231989e+02
1.880000e-06	9.683616e-08	-1.792173e-09	7.148893e-01	-1.189848e+02
1.890000e-06	1.239309e-07	-1.728351e-09	9.149153e-01	-1.147442e+02
1.900000e-06	1.510136e-07	-1.665531e-09	1.114852e+00	-1.104782e+02
1.910000e-06	1.780979e-07	-1.604482e-09	1.314801e+00	-1.061862e+02
1.920000e-06	2.051569e-07	-1.540228e-09	1.514563e+00	-1.018660e+02
1.930000e-06	2.321855e-07	-1.470925e-09	1.714100e+00	-9.751475e+01
1.940000e-06	2.592021e-07	-1.399423e-09	1.913550e+00	-9.312870e+01
1.950000e-06	2.862212e-07	-1.328704e-09	2.113017e+00	-8.870445e+01
1.960000e-06	3.132370e-07	-1.261164e-09	2.312460e+00	-8.423935e+01
1.970000e-06	3.402208e-07	-1.195496e-09	2.511667e+00	-7.973209e+01
1.980000e-06	3.671798e-07	-1.126436e-09	2.710692e+00	-7.518296e+01
1.990000e-06	3.941060e-07	-1.055547e-09	2.909473e+00	-7.059395e+01
2.000000e-06	4.209943e-07	-9.877963e-10	3.107974e+00	-6.596843e+01
2.010000e-06	4.478499e-07	-9.204699e-10	3.306235e+00	-6.131068e+01
2.020000e-06	4.746524e-07	-8.479949e-10	3.504104e+00	-5.662519e+01
2.030000e-06	5.014200e-07	-7.717489e-10	3.701715e+00	-5.191593e+01
2.040000e-06	5.281601e-07	-6.948176e-10	3.899122e+00	-4.718573e+01
2.050000e-06	5.548577e-07	-6.188960e-10	4.096216e+00	-4.243575e+01
2.060000e-06	5.815334e-07	-5.470641e-10	4.293148e+00	-3.766534e+01
2.070000e-06	6.081893e-07	-4.765270e-10	4.489935e+00	-3.287209e+01
2.080000e-06	6.348103e-07	-4.051402e-10	4.686463e+00	-2.805230e+01
2.090000e-06	6.614015e-07	-3.319971e-10	4.882772e+00	-2.320157e+01
2.100000e-06	6.879647e-07	-2.563122e-10	5.078874e+00	-1.831560e+01
2.110000e-06	7.144827e-07	-1.766203e-10	5.274642e+00	-1.339095e+01
2.120000e-06	7.409423e-07	-9.567590e-11	5.469979e+00	-8.425708e+00
2.130000e-06	7.673453e-07	-1.752455e-11	5.664898e+00	-3.419867e+00
2.140000e-06	7.936785e-07	5.927402e-11	5.859302e+00	1.624538e+00
2.150000e-06	8.199434e-07	1.385203e-10	6.053202e+00	6.703671e+00
2.160000e-06	8.461286e-07	2.174346e-10	6.246513e+00	1.181241e+01
2.170000e-06	8.722172e-07	2.920331e-10	6.439111e+00	1.694509e+01
2.180000e-06	8.982138e-07	3.676671e-10	6.631030e+00	2.209628e+01
2.190000e-06	9.241212e-07	4.474430e-10	6.822290e+00	2.726160e+01
2.200000e-06	9.499639e-07	5.297137e-10	7.013073e+00	3.243830e+01
2.210000e-06	9.757513e-07	6.118579e-10	7.203448e+00	3.762554e+01
2.220000e-06	1.001497e-06	6.915436e-10	7.393515e+00	4.282443e+01
2.230000e-06	1.027200e-06	7.711245e-10	7.583268e+00	4.803762e+01
2.240000e-06	1.052847e-06	8.532010e-10	7.772603e+00	5.326867e+01
2.250000e-06	1.078419e-06	9.335007e-10	7.961386e+00	5.852124e+01
2.260000e-06	1.103891e-06	1.010321e-09	8.149435e+00	6.379820e+01
2.270000e-06	1.129285e-06	1.086995e-09	8.336908e+00	6.910086e+01
2.280000e-06	1.154622e-06	1.167656e-09	8.523957e+00	7.442840e+01
2.290000e-06	1.179882e-06	1.251435e-09	8.710432e+00	7.977764e+01
2.300000e-06	1.205051e-06	1.335831e-09	8.896247e+00	8.514316e+01
2.310000e-06	1.230149e-06	1.419405e-09	9.081531e+00	9.051774e+01
2.320000e-06	1.255185e-06	1.500292e-09	9.266359e+00	9.589316e+01
2.330000e-06	1.280164e-06	1.579896e-09	9.450763e+00	1.012611e+02
2.340000e-06	1.305068e-06	1.660907e-09	9.634617e+00	1.066139e+02
2.350000e-06	1.329866e-06	1.742292e-09	9.817684e+00	1.119458e+02
2.360000e-06	1.354536e-06	1.821817e-09	9.999809e+00	1.172530e+02
2.370000e-06	1.379066e-06	1.901383e-09	1.018090e+01	1.225344e+02
2.380000e-06	1.403466e-06	1.982769e-09	1.036104e+01	1.277911e+02
2.390000e-06	1.427743e-06	2.064983e-09	1.054026e+01	1.330261e+02
2.400000e-06	1.451909e-06	2.145888e-09	1.071866e+01	1.382437e+02
2.410000e-06	1.475999e-06	2.226740e-09	1.089651e+01	1.434484e+02
2.420000e-06	1.500014e-06	2.308530e-09	1.107380e+01	1.486443e+02
2.430000e-06	1.523935e-06	2.387151e-09	1.125040e+01	1.538338e+02
2.440000e-06	1.547753e-06	2.462888e-09	1.142623e+01	1.590178e+02
2.450000e-06	1.571442e-06	2.538860e-09	1.160111e+01	1.641945e+02
2.460000e-06	1.595001e-06	2.615455e-09	1.177503e+01	1.693605e+02
2.470000e-06	1.618453e-06	2.693551e-09	1.194817e+01	1.745104e+02
2.480000e-06	1.641792e-06	2.771786e-09	1.212046e+01	1.796378e+02
2.490000e-06	1.664991e-06	2.849616e-09	1.229173e+01	1.847356e+02
2.500000e-06	1.688032e-06	2.930073e-09	1.246184e+01	1.897975e+02
2.510000e-06	1.710916e-06	3.010450e-09	1.263077e+01	1.948178e+02
2.520000e-06	1.733662e-06	3.086109e-09	1.279869e+01	1.997925e+02
2.530000e-06	1.756288e-06	3.156899e-09	1.296573e+01	2.047189e+02
2.540000e-06	1.778784e-06	3.226671e-09	1.313181e+01	2.095961e+02
2.550000e-06	1.801156e-06	3.297607e-09	1.329696e+01	2.144245e+02
2.560000e-06	1.823391e-06	3.369904e-09	1.346112e+01	2.192050e+02
2.570000e-06	1.845500e-06	3.446653e-09	1.362433e+01	2.239391e+02
2.580000e-06	1.867502e-06	3.523820e-09	1.378676e+01	2.286281e+02
2.590000e-06	1.889390e-06	3.596613e-09	1.394835e+01	2.332725e+02
2.600000e-06	1.911188e-06	3.665212e-09	1.410927e+01	2.378723e+02
2.610000e-06	1.932883e-06	3.732312e-09	1.426944e+01	2.424265e+02
2.620000e-06	1.954403e-06	3.798366e-09	1.442831e+01	2.469335e+02
2.630000e-06	1.975733e-06	3.862932e-09	1.458577e+01	2.513915e+02
2.640000e-06	1.996886e-06	3.925155e-09	1.474193e+01	2.557984e+02
2.650000e-06	2.017882e-06	3.987609e-09	1.489694e+01	2.601526e+02
2.660000e-06	2.038761e-06	4.053483e-09	1.505108e+01	2.644528e+02
2.670000e-06	2.059506e-06	4.120400e-09	1.520422e+01	2.686988e+02
2.680000e-06	2.080113e-06	4.186149e-09	1.535636e+01	2.728906e+02
2.690000e-06	2.100590e-06	4.250141e-09	1.550753e+01	2.770288e+02
2.700000e-06	2.120913e-06	4.313636e-09	1.565756e+01	2.811143e+02
2.710000e-06	2.141093e-06	4.373146e-09	1.580654e+01	2.851474e+02
2.720000e-06	2.161121e-06	4.430482e-09	1.595440e+01	2.891283e+02
2.730000e-06	2.180963e-06	4.487741e-09	1.610088e+01	2.930563e+02
2.740000e-06	2.200623e-06	4.543850e-09	1.624602e+01	2.969299e+02
2.750000e-06	2.220106e-06	4.598476e-09	1.638985e+01	3.007469e+02
2.760000e-06	2.239423e-06	4.652399e-09	1.653245e+01	3.045048e+02
2.770000e-06	2.258582e-06	4.708283e-09	1.667390e+01	3.082009e+02
2.780000e-06	2.277585e-06	4.765536e-09	1.681419e+01	3.118329e+02
2.790000e-06	2.296460e-06	4.823501e-09	1.695353e+01	3.153993e+02
2.800000e-06	2.315202e-06	4.879281e-09	1.709189e+01	3.188998e+02
2.810000e-06	2.333807e-06	4.930456e-09	1.722924e+01	3.223353e+02
2.820000e-06	2.352259e-06	4.976682e-09	1.736546e+01	3.257078e+02
2.830000e-06	2.370519e-06	5.018660e-09	1.750027e+01	3.290203e+02
2.840000e-06	2.388544e-06	5.058418e-09	1.763333e+01	3.322766e+02
2.850000e-06	2.406366e-06	5.099804e-09	1.776491e+01	3.354801e+02
2.860000e-06	2.424065e-06	5.144142e-09	1.789557e+01	3.386341e+02
2.870000e-06	2.441613e-06	5.193705e-09	1.802512e+01	3.417409e+02
2.880000e-06	2.458979e-06	5.246487e-09	1.815332e+01	3.448014e+02
2.890000e-06	2.476168e-06	5.294188e-09	1.828022e+01	3.478153e+02
2.900000e-06	2.493204e-06	5.336953e-09	1.840598e+01	3.507811e+02
