# Temperatura_=_20.0
# Concentracion g/m^3_=_10000.0
# C_Vs_to_Am_M_A/Vsm_=_65563218390.804596
# pendiente_HvsI_1/m_=_3716.3
# ordenada_HvsI_A/m_=_1297.0
# frecuencia_Hz_=_135258.99557047492

Tiempo_(s)	Campo_(V.s)	Magnetizacion_(V.s)	Campo_(kA/m)	Magnetizacion_(A/m)
0.000000e+00	-3.197419e-06	-7.039665e-09	-2.355425e+01	-4.555739e+02
1.000000e-08	-3.197429e-06	-7.043411e-09	-2.355432e+01	-4.556179e+02
2.000000e-08	-3.197233e-06	-7.041276e-09	-2.355288e+01	-4.556428e+02
3.000000e-08	-3.196863e-06	-7.036932e-09	-2.355016e+01	-4.556572e+02
4.000000e-08	-3.196238e-06	-7.034681e-09	-2.354555e+01	-4.556690e+02
5.000000e-08	-3.195329e-06	-7.029058e-09	-2.353886e+01	-4.556842e+02
6.000000e-08	-3.194177e-06	-7.011138e-09	-2.353037e+01	-4.557064e+02
7.000000e-08	-3.192665e-06	-6.998007e-09	-2.351923e+01	-4.557359e+02
8.000000e-08	-3.190737e-06	-7.028458e-09	-2.350503e+01	-4.557703e+02
9.000000e-08	-3.188715e-06	-7.097755e-09	-2.349014e+01	-4.558046e+02
1.000000e-07	-3.186620e-06	-7.125915e-09	-2.347470e+01	-4.558322e+02
1.100000e-07	-3.184225e-06	-6.932764e-09	-2.345706e+01	-4.558461e+02
1.200000e-07	-3.181799e-06	-6.910667e-09	-2.343918e+01	-4.558400e+02
1.300000e-07	-3.179133e-06	-7.036124e-09	-2.341954e+01	-4.558094e+02
1.400000e-07	-3.175949e-06	-6.988535e-09	-2.339609e+01	-4.557526e+02
1.500000e-07	-3.172545e-06	-6.921223e-09	-2.337102e+01	-4.556709e+02
1.600000e-07	-3.169039e-06	-6.933485e-09	-2.334519e+01	-4.555684e+02
1.700000e-07	-3.165302e-06	-7.037710e-09	-2.331766e+01	-4.554519e+02
1.800000e-07	-3.161316e-06	-6.982802e-09	-2.328829e+01	-4.553292e+02
1.900000e-07	-3.157097e-06	-7.027415e-09	-2.325722e+01	-4.552083e+02
2.000000e-07	-3.152625e-06	-6.979336e-09	-2.322427e+01	-4.550956e+02
2.100000e-07	-3.147988e-06	-6.989280e-09	-2.319011e+01	-4.549952e+02
2.200000e-07	-3.143167e-06	-6.977479e-09	-2.315460e+01	-4.549076e+02
2.300000e-07	-3.138076e-06	-7.002340e-09	-2.311709e+01	-4.548292e+02
2.400000e-07	-3.132717e-06	-6.973082e-09	-2.307762e+01	-4.547525e+02
2.500000e-07	-3.127172e-06	-6.980858e-09	-2.303677e+01	-4.546669e+02
2.600000e-07	-3.121407e-06	-6.964100e-09	-2.299430e+01	-4.545597e+02
2.700000e-07	-3.115403e-06	-6.995441e-09	-2.295007e+01	-4.544175e+02
2.800000e-07	-3.109193e-06	-6.977845e-09	-2.290432e+01	-4.542278e+02
2.900000e-07	-3.102783e-06	-6.921145e-09	-2.285710e+01	-4.539806e+02
3.000000e-07	-3.096087e-06	-6.953022e-09	-2.280778e+01	-4.536693e+02
3.100000e-07	-3.089195e-06	-6.951661e-09	-2.275701e+01	-4.532916e+02
3.200000e-07	-3.082184e-06	-6.972082e-09	-2.270536e+01	-4.528495e+02
3.300000e-07	-3.074976e-06	-6.917523e-09	-2.265226e+01	-4.523491e+02
3.400000e-07	-3.067451e-06	-6.927322e-09	-2.259683e+01	-4.517992e+02
3.500000e-07	-3.059675e-06	-6.861840e-09	-2.253954e+01	-4.512106e+02
3.600000e-07	-3.051748e-06	-6.913051e-09	-2.248114e+01	-4.505939e+02
3.700000e-07	-3.043575e-06	-6.905529e-09	-2.242094e+01	-4.499589e+02
3.800000e-07	-3.035117e-06	-6.899058e-09	-2.235863e+01	-4.493129e+02
3.900000e-07	-3.026458e-06	-6.828121e-09	-2.229485e+01	-4.486601e+02
4.000000e-07	-3.017627e-06	-6.865159e-09	-2.222979e+01	-4.480017e+02
4.100000e-07	-3.008539e-06	-6.865107e-09	-2.216284e+01	-4.473354e+02
4.200000e-07	-2.999196e-06	-6.838852e-09	-2.209402e+01	-4.466567e+02
4.300000e-07	-2.989655e-06	-6.792449e-09	-2.202373e+01	-4.459598e+02
4.400000e-07	-2.979938e-06	-6.816653e-09	-2.195215e+01	-4.452387e+02
4.500000e-07	-2.970025e-06	-6.822755e-09	-2.187912e+01	-4.444881e+02
4.600000e-07	-2.959869e-06	-6.791066e-09	-2.180431e+01	-4.437048e+02
4.700000e-07	-2.949376e-06	-6.752321e-09	-2.172701e+01	-4.428877e+02
4.800000e-07	-2.938595e-06	-6.719741e-09	-2.164759e+01	-4.420381e+02
4.900000e-07	-2.927606e-06	-6.717551e-09	-2.156664e+01	-4.411599e+02
5.000000e-07	-2.916422e-06	-6.714590e-09	-2.148425e+01	-4.402583e+02
5.100000e-07	-2.905032e-06	-6.706922e-09	-2.140034e+01	-4.393392e+02
5.200000e-07	-2.893414e-06	-6.669122e-09	-2.131475e+01	-4.384086e+02
5.300000e-07	-2.881515e-06	-6.679481e-09	-2.122710e+01	-4.374714e+02
5.400000e-07	-2.869405e-06	-6.678223e-09	-2.113789e+01	-4.365307e+02
5.500000e-07	-2.857135e-06	-6.659580e-09	-2.104750e+01	-4.355880e+02
5.600000e-07	-2.844688e-06	-6.611012e-09	-2.095581e+01	-4.346424e+02
5.700000e-07	-2.832051e-06	-6.603959e-09	-2.086271e+01	-4.336919e+02
5.800000e-07	-2.819233e-06	-6.593253e-09	-2.076829e+01	-4.327332e+02
5.900000e-07	-2.806242e-06	-6.582258e-09	-2.067259e+01	-4.317628e+02
6.000000e-07	-2.793030e-06	-6.547536e-09	-2.057526e+01	-4.307774e+02
6.100000e-07	-2.779566e-06	-6.532287e-09	-2.047608e+01	-4.297750e+02
6.200000e-07	-2.765852e-06	-6.528301e-09	-2.037505e+01	-4.287546e+02
6.300000e-07	-2.751953e-06	-6.531796e-09	-2.027266e+01	-4.277164e+02
6.400000e-07	-2.737911e-06	-6.506900e-09	-2.016922e+01	-4.266620e+02
6.500000e-07	-2.723668e-06	-6.476919e-09	-2.006430e+01	-4.255932e+02
6.600000e-07	-2.709217e-06	-6.458641e-09	-1.995784e+01	-4.245119e+02
6.700000e-07	-2.694607e-06	-6.444222e-09	-1.985022e+01	-4.234193e+02
6.800000e-07	-2.679821e-06	-6.419900e-09	-1.974129e+01	-4.223153e+02
6.900000e-07	-2.664821e-06	-6.392549e-09	-1.963079e+01	-4.211984e+02
7.000000e-07	-2.649569e-06	-6.379940e-09	-1.951844e+01	-4.200656e+02
7.100000e-07	-2.634095e-06	-6.375352e-09	-1.940444e+01	-4.189124e+02
7.200000e-07	-2.618445e-06	-6.367758e-09	-1.928916e+01	-4.177338e+02
7.300000e-07	-2.602588e-06	-6.337834e-09	-1.917234e+01	-4.165249e+02
7.400000e-07	-2.586481e-06	-6.307246e-09	-1.905369e+01	-4.152813e+02
7.500000e-07	-2.570143e-06	-6.287380e-09	-1.893333e+01	-4.140003e+02
7.600000e-07	-2.553618e-06	-6.271672e-09	-1.881160e+01	-4.126810e+02
7.700000e-07	-2.536919e-06	-6.238861e-09	-1.868858e+01	-4.113245e+02
7.800000e-07	-2.520044e-06	-6.209022e-09	-1.856427e+01	-4.099342e+02
7.900000e-07	-2.503012e-06	-6.189599e-09	-1.843880e+01	-4.085147e+02
8.000000e-07	-2.485850e-06	-6.178869e-09	-1.831237e+01	-4.070715e+02
8.100000e-07	-2.468534e-06	-6.158699e-09	-1.818481e+01	-4.056100e+02
8.200000e-07	-2.451051e-06	-6.131652e-09	-1.805602e+01	-4.041349e+02
8.300000e-07	-2.433422e-06	-6.107574e-09	-1.792616e+01	-4.026490e+02
8.400000e-07	-2.415654e-06	-6.091817e-09	-1.779527e+01	-4.011534e+02
8.500000e-07	-2.397739e-06	-6.070116e-09	-1.766329e+01	-3.996468e+02
8.600000e-07	-2.379643e-06	-6.039322e-09	-1.752999e+01	-3.981262e+02
8.700000e-07	-2.361314e-06	-6.008053e-09	-1.739496e+01	-3.965875e+02
8.800000e-07	-2.342772e-06	-5.982803e-09	-1.725837e+01	-3.950259e+02
8.900000e-07	-2.324087e-06	-5.960690e-09	-1.712072e+01	-3.934373e+02
9.000000e-07	-2.305268e-06	-5.933798e-09	-1.698209e+01	-3.918186e+02
9.100000e-07	-2.286268e-06	-5.902819e-09	-1.684213e+01	-3.901691e+02
9.200000e-07	-2.267101e-06	-5.877220e-09	-1.670093e+01	-3.884901e+02
9.300000e-07	-2.247819e-06	-5.856720e-09	-1.655889e+01	-3.867851e+02
9.400000e-07	-2.228381e-06	-5.828937e-09	-1.641570e+01	-3.850597e+02
9.500000e-07	-2.208765e-06	-5.793091e-09	-1.627119e+01	-3.833202e+02
9.600000e-07	-2.188980e-06	-5.761389e-09	-1.612544e+01	-3.815735e+02
9.700000e-07	-2.169003e-06	-5.737252e-09	-1.597827e+01	-3.798252e+02
9.800000e-07	-2.148862e-06	-5.711685e-09	-1.582990e+01	-3.780794e+02
9.900000e-07	-2.128596e-06	-5.681561e-09	-1.568061e+01	-3.763376e+02
1.000000e-06	-2.108193e-06	-5.651961e-09	-1.553031e+01	-3.745988e+02
1.010000e-06	-2.087614e-06	-5.627836e-09	-1.537871e+01	-3.728593e+02
1.020000e-06	-2.066872e-06	-5.605707e-09	-1.522591e+01	-3.711131e+02
1.030000e-06	-2.046008e-06	-5.579148e-09	-1.507221e+01	-3.693531e+02
1.040000e-06	-2.025018e-06	-5.548871e-09	-1.491759e+01	-3.675716e+02
1.050000e-06	-2.003907e-06	-5.519223e-09	-1.476208e+01	-3.657618e+02
1.060000e-06	-1.982631e-06	-5.489588e-09	-1.460534e+01	-3.639184e+02
1.070000e-06	-1.961150e-06	-5.456824e-09	-1.444710e+01	-3.620379e+02
1.080000e-06	-1.939503e-06	-5.420937e-09	-1.428763e+01	-3.601197e+02
1.090000e-06	-1.917723e-06	-5.386086e-09	-1.412719e+01	-3.581653e+02
1.100000e-06	-1.895838e-06	-5.356851e-09	-1.396596e+01	-3.561778e+02
1.110000e-06	-1.873847e-06	-5.328812e-09	-1.380397e+01	-3.541618e+02
1.120000e-06	-1.851730e-06	-5.298128e-09	-1.364104e+01	-3.521219e+02
1.130000e-06	-1.829477e-06	-5.267048e-09	-1.347711e+01	-3.500617e+02
1.140000e-06	-1.807086e-06	-5.236731e-09	-1.331216e+01	-3.479838e+02
1.150000e-06	-1.784586e-06	-5.205805e-09	-1.314641e+01	-3.458886e+02
1.160000e-06	-1.761982e-06	-5.170375e-09	-1.297990e+01	-3.437746e+02
1.170000e-06	-1.739256e-06	-5.132639e-09	-1.281248e+01	-3.416385e+02
1.180000e-06	-1.716367e-06	-5.096343e-09	-1.264386e+01	-3.394758e+02
1.190000e-06	-1.693286e-06	-5.064237e-09	-1.247384e+01	-3.372817e+02
1.200000e-06	-1.670045e-06	-5.034689e-09	-1.230263e+01	-3.350518e+02
1.210000e-06	-1.646674e-06	-5.002396e-09	-1.213046e+01	-3.327831e+02
1.220000e-06	-1.623183e-06	-4.965977e-09	-1.195741e+01	-3.304743e+02
1.230000e-06	-1.599586e-06	-4.930059e-09	-1.178358e+01	-3.281265e+02
1.240000e-06	-1.575877e-06	-4.892805e-09	-1.160893e+01	-3.257431e+02
1.250000e-06	-1.552040e-06	-4.854464e-09	-1.143333e+01	-3.233289e+02
1.260000e-06	-1.528106e-06	-4.814119e-09	-1.125702e+01	-3.208900e+02
1.270000e-06	-1.504098e-06	-4.776710e-09	-1.108016e+01	-3.184325e+02
1.280000e-06	-1.479998e-06	-4.742458e-09	-1.090262e+01	-3.159618e+02
1.290000e-06	-1.455794e-06	-4.709470e-09	-1.072432e+01	-3.134818e+02
1.300000e-06	-1.431484e-06	-4.671914e-09	-1.054523e+01	-3.109941e+02
1.310000e-06	-1.407056e-06	-4.632492e-09	-1.036528e+01	-3.084979e+02
1.320000e-06	-1.382512e-06	-4.599419e-09	-1.018448e+01	-3.059901e+02
1.330000e-06	-1.357834e-06	-4.567215e-09	-1.000268e+01	-3.034661e+02
1.340000e-06	-1.333025e-06	-4.530582e-09	-9.819925e+00	-3.009197e+02
1.350000e-06	-1.308125e-06	-4.488478e-09	-9.636496e+00	-2.983449e+02
1.360000e-06	-1.283148e-06	-4.447672e-09	-9.452497e+00	-2.957363e+02
1.370000e-06	-1.258078e-06	-4.409450e-09	-9.267812e+00	-2.930899e+02
1.380000e-06	-1.232937e-06	-4.370308e-09	-9.082614e+00	-2.904039e+02
1.390000e-06	-1.207735e-06	-4.326385e-09	-8.896959e+00	-2.876788e+02
1.400000e-06	-1.182459e-06	-4.284888e-09	-8.710753e+00	-2.849173e+02
1.410000e-06	-1.157115e-06	-4.246766e-09	-8.524055e+00	-2.821235e+02
1.420000e-06	-1.131678e-06	-4.209030e-09	-8.336668e+00	-2.793030e+02
1.430000e-06	-1.106154e-06	-4.167940e-09	-8.148646e+00	-2.764614e+02
1.440000e-06	-1.080560e-06	-4.124502e-09	-7.960106e+00	-2.736038e+02
1.450000e-06	-1.054888e-06	-4.082902e-09	-7.770988e+00	-2.707341e+02
1.460000e-06	-1.029144e-06	-4.043222e-09	-7.581340e+00	-2.678546e+02
1.470000e-06	-1.003345e-06	-4.001820e-09	-7.391290e+00	-2.649655e+02
1.480000e-06	-9.774986e-07	-3.959300e-09	-7.200886e+00	-2.620654e+02
1.490000e-06	-9.515956e-07	-3.917211e-09	-7.010067e+00	-2.591515e+02
1.500000e-06	-9.256189e-07	-3.872234e-09	-6.818706e+00	-2.562201e+02
1.510000e-06	-8.995646e-07	-3.823375e-09	-6.626774e+00	-2.532672e+02
1.520000e-06	-8.734351e-07	-3.774783e-09	-6.434287e+00	-2.502890e+02
1.530000e-06	-8.472258e-07	-3.727387e-09	-6.241213e+00	-2.472828e+02
1.540000e-06	-8.209279e-07	-3.680981e-09	-6.047485e+00	-2.442465e+02
1.550000e-06	-7.945445e-07	-3.633238e-09	-5.853128e+00	-2.411794e+02
1.560000e-06	-7.680939e-07	-3.581403e-09	-5.658276e+00	-2.380814e+02
1.570000e-06	-7.415743e-07	-3.530239e-09	-5.462915e+00	-2.349529e+02
1.580000e-06	-7.150053e-07	-3.481968e-09	-5.267191e+00	-2.317947e+02
1.590000e-06	-6.884101e-07	-3.436613e-09	-5.071273e+00	-2.286069e+02
1.600000e-06	-6.617751e-07	-3.386728e-09	-4.875063e+00	-2.253890e+02
1.610000e-06	-6.351018e-07	-3.333695e-09	-4.678570e+00	-2.221396e+02
1.620000e-06	-6.083924e-07	-3.284237e-09	-4.481811e+00	-2.188564e+02
1.630000e-06	-5.816547e-07	-3.238785e-09	-4.284844e+00	-2.155367e+02
1.640000e-06	-5.548915e-07	-3.189054e-09	-4.087689e+00	-2.121771e+02
1.650000e-06	-5.280950e-07	-3.133935e-09	-3.890289e+00	-2.087747e+02
1.660000e-06	-5.012565e-07	-3.080268e-09	-3.692579e+00	-2.053270e+02
1.670000e-06	-4.743855e-07	-3.028639e-09	-3.494630e+00	-2.018328e+02
1.680000e-06	-4.474898e-07	-2.975402e-09	-3.296499e+00	-1.982917e+02
1.690000e-06	-4.205433e-07	-2.921122e-09	-3.097994e+00	-1.947051e+02
1.700000e-06	-3.935657e-07	-2.867067e-09	-2.899259e+00	-1.910752e+02
1.710000e-06	-3.665660e-07	-2.813077e-09	-2.700362e+00	-1.874049e+02
1.720000e-06	-3.395185e-07	-2.758868e-09	-2.501112e+00	-1.836976e+02
1.730000e-06	-3.124350e-07	-2.703291e-09	-2.301598e+00	-1.799563e+02
1.740000e-06	-2.853380e-07	-2.646297e-09	-2.101984e+00	-1.761834e+02
1.750000e-06	-2.582375e-07	-2.588484e-09	-1.902344e+00	-1.723801e+02
1.760000e-06	-2.311221e-07	-2.532519e-09	-1.702594e+00	-1.685465e+02
1.770000e-06	-2.039869e-07	-2.476418e-09	-1.502699e+00	-1.646817e+02
1.780000e-06	-1.768584e-07	-2.418125e-09	-1.302853e+00	-1.607838e+02
1.790000e-06	-1.497346e-07	-2.357942e-09	-1.103042e+00	-1.568503e+02
1.800000e-06	-1.226009e-07	-2.296751e-09	-9.031575e-01	-1.528792e+02
1.810000e-06	-9.543520e-08	-2.234182e-09	-7.030373e-01	-1.488687e+02
1.820000e-06	-6.825583e-08	-2.173186e-09	-5.028165e-01	-1.448181e+02
1.830000e-06	-4.106717e-08	-2.114398e-09	-3.025273e-01	-1.407278e+02
1.840000e-06	-1.387104e-08	-2.053844e-09	-1.021830e-01	-1.365996e+02
1.850000e-06	1.333075e-08	-1.988811e-09	9.820291e-02	-1.324360e+02
1.860000e-06	4.054351e-08	-1.922174e-09	2.986697e-01	-1.282402e+02
1.870000e-06	6.775022e-08	-1.857873e-09	4.990918e-01	-1.240154e+02
1.880000e-06	9.494122e-08	-1.795929e-09	6.993984e-01	-1.197645e+02
1.890000e-06	1.221090e-07	-1.733801e-09	8.995334e-01	-1.154893e+02
1.900000e-06	1.492616e-07	-1.669663e-09	1.099557e+00	-1.111903e+02
1.910000e-06	1.763924e-07	-1.606770e-09	1.299420e+00	-1.068665e+02
1.920000e-06	2.035237e-07	-1.543762e-09	1.499287e+00	-1.025158e+02
1.930000e-06	2.306606e-07	-1.477420e-09	1.699195e+00	-9.813503e+01
1.940000e-06	2.577736e-07	-1.408026e-09	1.898927e+00	-9.372049e+01
1.950000e-06	2.848512e-07	-1.338151e-09	2.098398e+00	-8.926872e+01
1.960000e-06	3.119042e-07	-1.270612e-09	2.297688e+00	-8.477696e+01
1.970000e-06	3.389358e-07	-1.203506e-09	2.496820e+00	-8.024368e+01
1.980000e-06	3.659434e-07	-1.132938e-09	2.695775e+00	-7.566884e+01
1.990000e-06	3.929207e-07	-1.060346e-09	2.894507e+00	-7.105396e+01
2.000000e-06	4.198749e-07	-9.909153e-10	3.093070e+00	-6.640193e+01
2.010000e-06	4.467971e-07	-9.237681e-10	3.291396e+00	-6.171658e+01
2.020000e-06	4.736786e-07	-8.524734e-10	3.489422e+00	-5.700208e+01
2.030000e-06	5.005109e-07	-7.776282e-10	3.687087e+00	-5.226233e+01
2.040000e-06	5.272927e-07	-7.017913e-10	3.884378e+00	-4.750037e+01
2.050000e-06	5.540388e-07	-6.262906e-10	4.081408e+00	-4.271788e+01
2.060000e-06	5.807551e-07	-5.544889e-10	4.278217e+00	-3.791497e+01
2.070000e-06	6.074571e-07	-4.842094e-10	4.474921e+00	-3.309021e+01
2.080000e-06	6.341298e-07	-4.124553e-10	4.671410e+00	-2.824085e+01
2.090000e-06	6.607669e-07	-3.394992e-10	4.867635e+00	-2.336336e+01
2.100000e-06	6.873701e-07	-2.649308e-10	5.063612e+00	-1.845400e+01
2.110000e-06	7.139348e-07	-1.876350e-10	5.259304e+00	-1.350948e+01
2.120000e-06	7.404584e-07	-1.076024e-10	5.454695e+00	-8.527565e+00
2.130000e-06	7.669306e-07	-2.758517e-11	5.649706e+00	-3.507471e+00
2.140000e-06	7.933551e-07	5.087384e-11	5.844366e+00	1.549939e+00
2.150000e-06	8.197259e-07	1.305621e-10	6.038630e+00	6.642224e+00
2.160000e-06	8.460031e-07	2.102677e-10	6.232205e+00	1.176567e+01
2.170000e-06	8.721606e-07	2.881951e-10	6.424898e+00	1.691581e+01
2.180000e-06	8.981938e-07	3.679045e-10	6.616675e+00	2.208800e+01
2.190000e-06	9.241319e-07	4.488551e-10	6.807752e+00	2.727807e+01
2.200000e-06	9.500070e-07	5.287156e-10	6.998365e+00	3.248284e+01
2.210000e-06	9.758333e-07	6.085179e-10	7.188618e+00	3.770042e+01
2.220000e-06	1.001621e-06	6.879884e-10	7.378587e+00	4.293035e+01
2.230000e-06	1.027361e-06	7.683250e-10	7.568205e+00	4.817346e+01
2.240000e-06	1.053058e-06	8.507280e-10	7.757507e+00	5.343143e+01
2.250000e-06	1.078689e-06	9.318040e-10	7.946321e+00	5.870633e+01
2.260000e-06	1.104234e-06	1.010444e-09	8.134504e+00	6.399997e+01
2.270000e-06	1.129704e-06	1.089457e-09	8.322126e+00	6.931328e+01
2.280000e-06	1.155099e-06	1.170552e-09	8.509205e+00	7.464590e+01
2.290000e-06	1.180415e-06	1.253232e-09	8.695698e+00	7.999588e+01
2.300000e-06	1.205631e-06	1.336760e-09	8.881460e+00	8.535966e+01
2.310000e-06	1.230758e-06	1.421475e-09	9.066559e+00	9.073227e+01
2.320000e-06	1.255819e-06	1.504423e-09	9.251176e+00	9.610781e+01
2.330000e-06	1.280842e-06	1.585767e-09	9.435512e+00	1.014800e+02
2.340000e-06	1.305813e-06	1.668187e-09	9.619461e+00	1.068427e+02
2.350000e-06	1.330694e-06	1.748982e-09	9.802748e+00	1.121908e+02
2.360000e-06	1.355463e-06	1.827722e-09	9.985216e+00	1.175204e+02
2.370000e-06	1.380086e-06	1.906790e-09	1.016660e+01	1.228291e+02
2.380000e-06	1.404536e-06	1.985648e-09	1.034672e+01	1.281161e+02
2.390000e-06	1.428858e-06	2.065801e-09	1.052589e+01	1.333821e+02
2.400000e-06	1.453101e-06	2.147418e-09	1.070448e+01	1.386286e+02
2.410000e-06	1.477262e-06	2.229539e-09	1.088247e+01	1.438576e+02
2.420000e-06	1.501336e-06	2.312476e-09	1.105981e+01	1.490712e+02
2.430000e-06	1.525285e-06	2.392490e-09	1.123623e+01	1.542705e+02
2.440000e-06	1.549112e-06	2.468268e-09	1.141176e+01	1.594559e+02
2.450000e-06	1.572841e-06	2.543631e-09	1.158656e+01	1.646263e+02
2.460000e-06	1.596457e-06	2.621704e-09	1.176053e+01	1.697795e+02
2.470000e-06	1.619973e-06	2.700797e-09	1.193377e+01	1.749121e+02
2.480000e-06	1.643384e-06	2.778859e-09	1.210623e+01	1.800203e+02
2.490000e-06	1.666671e-06	2.857196e-09	1.227777e+01	1.850995e+02
2.500000e-06	1.689768e-06	2.938662e-09	1.244792e+01	1.901457e+02
2.510000e-06	1.712652e-06	3.019490e-09	1.261650e+01	1.951554e+02
2.520000e-06	1.735382e-06	3.092774e-09	1.278394e+01	2.001257e+02
2.530000e-06	1.758015e-06	3.161682e-09	1.295067e+01	2.050551e+02
2.540000e-06	1.780569e-06	3.230865e-09	1.311682e+01	2.099428e+02
2.550000e-06	1.803010e-06	3.302479e-09	1.328214e+01	2.147889e+02
2.560000e-06	1.825320e-06	3.375867e-09	1.344648e+01	2.195939e+02
2.570000e-06	1.847505e-06	3.451186e-09	1.360991e+01	2.243585e+02
2.580000e-06	1.869562e-06	3.527589e-09	1.377240e+01	2.290831e+02
2.590000e-06	1.891495e-06	3.602342e-09	1.393397e+01	2.337675e+02
2.600000e-06	1.913331e-06	3.672449e-09	1.409483e+01	2.384108e+02
2.610000e-06	1.935093e-06	3.737280e-09	1.425514e+01	2.430113e+02
2.620000e-06	1.956738e-06	3.802255e-09	1.441460e+01	2.475667e+02
2.630000e-06	1.978143e-06	3.869722e-09	1.457228e+01	2.520740e+02
2.640000e-06	1.999309e-06	3.937864e-09	1.472820e+01	2.565301e+02
2.650000e-06	2.020353e-06	4.003849e-09	1.488323e+01	2.609319e+02
2.660000e-06	2.041294e-06	4.068708e-09	1.503749e+01	2.652766e+02
2.670000e-06	2.062102e-06	4.133767e-09	1.519077e+01	2.695623e+02
2.680000e-06	2.082761e-06	4.198355e-09	1.534296e+01	2.737874e+02
2.690000e-06	2.103266e-06	4.259666e-09	1.549402e+01	2.779514e+02
2.700000e-06	2.123620e-06	4.316226e-09	1.564395e+01	2.820542e+02
2.710000e-06	2.143855e-06	4.372931e-09	1.579302e+01	2.860965e+02
2.720000e-06	2.163992e-06	4.436003e-09	1.594136e+01	2.900790e+02
2.730000e-06	2.183950e-06	4.497514e-09	1.608838e+01	2.940028e+02
2.740000e-06	2.203656e-06	4.551541e-09	1.623355e+01	2.978686e+02
2.750000e-06	2.223152e-06	4.602213e-09	1.637718e+01	3.016771e+02
2.760000e-06	2.242508e-06	4.655632e-09	1.651977e+01	3.054286e+02
2.770000e-06	2.261735e-06	4.714010e-09	1.666140e+01	3.091231e+02
2.780000e-06	2.280812e-06	4.772162e-09	1.680194e+01	3.127605e+02
2.790000e-06	2.299752e-06	4.826962e-09	1.694146e+01	3.163404e+02
2.800000e-06	2.318539e-06	4.879797e-09	1.707986e+01	3.198624e+02
2.810000e-06	2.337187e-06	4.934880e-09	1.721723e+01	3.233263e+02
2.820000e-06	2.355720e-06	4.985580e-09	1.735376e+01	3.267319e+02
2.830000e-06	2.374050e-06	5.025212e-09	1.748879e+01	3.300793e+02
2.840000e-06	2.392096e-06	5.061678e-09	1.762173e+01	3.333685e+02
2.850000e-06	2.409944e-06	5.106312e-09	1.775321e+01	3.365999e+02
2.860000e-06	2.427671e-06	5.156562e-09	1.788380e+01	3.397737e+02
2.870000e-06	2.445245e-06	5.205487e-09	1.801326e+01	3.428902e+02
2.880000e-06	2.462650e-06	5.251604e-09	1.814147e+01	3.459495e+02
2.890000e-06	2.479895e-06	5.296309e-09	1.826851e+01	3.489519e+02
2.900000e-06	2.496989e-06	5.340598e-09	1.839443e+01	3.518974e+02
