# Temperatura_=_20.0
# Concentracion g/m^3_=_10000.0
# C_Vs_to_Am_M_A/Vsm_=_65563218390.804596
# pendiente_HvsI_1/m_=_3716.3
# ordenada_HvsI_A/m_=_1297.0
# frecuencia_Hz_=_135260.63200029713

Tiempo_(s)	Campo_(V.s)	Magnetizacion_(V.s)	Campo_(kA/m)	Magnetizacion_(A/m)
0.000000e+00	-3.183425e-06	-7.014130e-09	-2.355231e+01	-4.558221e+02
1.000000e-08	-3.183390e-06	-7.016808e-09	-2.355205e+01	-4.558957e+02
2.000000e-08	-3.183156e-06	-7.017529e-09	-2.355032e+01	-4.559532e+02
3.000000e-08	-3.182730e-06	-7.017752e-09	-2.354716e+01	-4.560000e+02
4.000000e-08	-3.182046e-06	-7.017766e-09	-2.354211e+01	-4.560407e+02
5.000000e-08	-3.181105e-06	-7.011245e-09	-2.353514e+01	-4.560790e+02
6.000000e-08	-3.179900e-06	-7.003955e-09	-2.352623e+01	-4.561166e+02
7.000000e-08	-3.178285e-06	-7.006564e-09	-2.351427e+01	-4.561529e+02
8.000000e-08	-3.176357e-06	-7.026419e-09	-2.350001e+01	-4.561854e+02
9.000000e-08	-3.174387e-06	-7.081679e-09	-2.348543e+01	-4.562095e+02
1.000000e-07	-3.172191e-06	-7.051870e-09	-2.346919e+01	-4.562190e+02
1.100000e-07	-3.169841e-06	-6.992431e-09	-2.345180e+01	-4.562074e+02
1.200000e-07	-3.167421e-06	-7.014240e-09	-2.343390e+01	-4.561680e+02
1.300000e-07	-3.164615e-06	-7.046541e-09	-2.341314e+01	-4.560956e+02
1.400000e-07	-3.161414e-06	-7.022058e-09	-2.338946e+01	-4.559865e+02
1.500000e-07	-3.158032e-06	-7.002390e-09	-2.336444e+01	-4.558397e+02
1.600000e-07	-3.154492e-06	-6.997108e-09	-2.333825e+01	-4.556566e+02
1.700000e-07	-3.150729e-06	-7.018243e-09	-2.331040e+01	-4.554407e+02
1.800000e-07	-3.146723e-06	-7.010996e-09	-2.328077e+01	-4.551978e+02
1.900000e-07	-3.142441e-06	-7.008263e-09	-2.324909e+01	-4.549344e+02
2.000000e-07	-3.137931e-06	-6.972558e-09	-2.321572e+01	-4.546572e+02
2.100000e-07	-3.133264e-06	-6.975469e-09	-2.318119e+01	-4.543718e+02
2.200000e-07	-3.128409e-06	-6.993865e-09	-2.314527e+01	-4.540825e+02
2.300000e-07	-3.123259e-06	-6.985846e-09	-2.310717e+01	-4.537910e+02
2.400000e-07	-3.117897e-06	-6.961164e-09	-2.306751e+01	-4.534965e+02
2.500000e-07	-3.112320e-06	-6.958415e-09	-2.302624e+01	-4.531957e+02
2.600000e-07	-3.106471e-06	-6.974003e-09	-2.298297e+01	-4.528835e+02
2.700000e-07	-3.100411e-06	-6.963051e-09	-2.293813e+01	-4.525536e+02
2.800000e-07	-3.094189e-06	-6.947115e-09	-2.289210e+01	-4.521994e+02
2.900000e-07	-3.087738e-06	-6.928626e-09	-2.284437e+01	-4.518149e+02
3.000000e-07	-3.081027e-06	-6.941947e-09	-2.279472e+01	-4.513958e+02
3.100000e-07	-3.074129e-06	-6.940239e-09	-2.274369e+01	-4.509399e+02
3.200000e-07	-3.067089e-06	-6.939502e-09	-2.269160e+01	-4.504474e+02
3.300000e-07	-3.059823e-06	-6.900424e-09	-2.263785e+01	-4.499207e+02
3.400000e-07	-3.052261e-06	-6.878204e-09	-2.258190e+01	-4.493642e+02
3.500000e-07	-3.044465e-06	-6.872759e-09	-2.252422e+01	-4.487833e+02
3.600000e-07	-3.036491e-06	-6.900502e-09	-2.246523e+01	-4.481838e+02
3.700000e-07	-3.028271e-06	-6.884076e-09	-2.240441e+01	-4.475710e+02
3.800000e-07	-3.019769e-06	-6.855759e-09	-2.234151e+01	-4.469488e+02
3.900000e-07	-3.011081e-06	-6.846291e-09	-2.227723e+01	-4.463193e+02
4.000000e-07	-3.002209e-06	-6.854858e-09	-2.221159e+01	-4.456827e+02
4.100000e-07	-2.993103e-06	-6.830272e-09	-2.214422e+01	-4.450370e+02
4.200000e-07	-2.983757e-06	-6.799712e-09	-2.207508e+01	-4.443791e+02
4.300000e-07	-2.974236e-06	-6.791482e-09	-2.200464e+01	-4.437048e+02
4.400000e-07	-2.964539e-06	-6.799295e-09	-2.193289e+01	-4.430099e+02
4.500000e-07	-2.954613e-06	-6.794481e-09	-2.185946e+01	-4.422908e+02
4.600000e-07	-2.944384e-06	-6.776183e-09	-2.178378e+01	-4.415454e+02
4.700000e-07	-2.933853e-06	-6.753954e-09	-2.170586e+01	-4.407729e+02
4.800000e-07	-2.923062e-06	-6.739935e-09	-2.162603e+01	-4.399745e+02
4.900000e-07	-2.912056e-06	-6.735500e-09	-2.154460e+01	-4.391529e+02
5.000000e-07	-2.900851e-06	-6.719042e-09	-2.146171e+01	-4.383119e+02
5.100000e-07	-2.889454e-06	-6.688970e-09	-2.137739e+01	-4.374558e+02
5.200000e-07	-2.877855e-06	-6.675946e-09	-2.129157e+01	-4.365886e+02
5.300000e-07	-2.866021e-06	-6.683431e-09	-2.120402e+01	-4.357138e+02
5.400000e-07	-2.853956e-06	-6.669349e-09	-2.111475e+01	-4.348334e+02
5.500000e-07	-2.841711e-06	-6.641497e-09	-2.102416e+01	-4.339479e+02
5.600000e-07	-2.829271e-06	-6.625149e-09	-2.093213e+01	-4.330564e+02
5.700000e-07	-2.816640e-06	-6.622216e-09	-2.083867e+01	-4.321566e+02
5.800000e-07	-2.803849e-06	-6.608894e-09	-2.074404e+01	-4.312454e+02
5.900000e-07	-2.790866e-06	-6.590040e-09	-2.064799e+01	-4.303193e+02
6.000000e-07	-2.777666e-06	-6.564222e-09	-2.055033e+01	-4.293750e+02
6.100000e-07	-2.764213e-06	-6.548248e-09	-2.045080e+01	-4.284099e+02
6.200000e-07	-2.750538e-06	-6.535804e-09	-2.034963e+01	-4.274222e+02
6.300000e-07	-2.736703e-06	-6.521169e-09	-2.024727e+01	-4.264109e+02
6.400000e-07	-2.722698e-06	-6.494880e-09	-2.014365e+01	-4.253760e+02
6.500000e-07	-2.708467e-06	-6.477645e-09	-2.003837e+01	-4.243180e+02
6.600000e-07	-2.694033e-06	-6.466165e-09	-1.993158e+01	-4.232373e+02
6.700000e-07	-2.679450e-06	-6.451162e-09	-1.982369e+01	-4.221340e+02
6.800000e-07	-2.664696e-06	-6.424522e-09	-1.971453e+01	-4.210076e+02
6.900000e-07	-2.649686e-06	-6.402422e-09	-1.960348e+01	-4.198570e+02
7.000000e-07	-2.634420e-06	-6.386213e-09	-1.949053e+01	-4.186800e+02
7.100000e-07	-2.618978e-06	-6.371406e-09	-1.937629e+01	-4.174742e+02
7.200000e-07	-2.603379e-06	-6.349736e-09	-1.926088e+01	-4.162371e+02
7.300000e-07	-2.587573e-06	-6.323639e-09	-1.914395e+01	-4.149666e+02
7.400000e-07	-2.571545e-06	-6.304886e-09	-1.902536e+01	-4.136616e+02
7.500000e-07	-2.555300e-06	-6.290551e-09	-1.890518e+01	-4.123225e+02
7.600000e-07	-2.538833e-06	-6.269764e-09	-1.878334e+01	-4.109513e+02
7.700000e-07	-2.522149e-06	-6.239618e-09	-1.865991e+01	-4.095515e+02
7.800000e-07	-2.505274e-06	-6.216714e-09	-1.853506e+01	-4.081281e+02
7.900000e-07	-2.488273e-06	-6.196267e-09	-1.840928e+01	-4.066866e+02
8.000000e-07	-2.471180e-06	-6.175643e-09	-1.828282e+01	-4.052326e+02
8.100000e-07	-2.453937e-06	-6.148125e-09	-1.815525e+01	-4.037710e+02
8.200000e-07	-2.436510e-06	-6.122435e-09	-1.802632e+01	-4.023052e+02
8.300000e-07	-2.418917e-06	-6.099657e-09	-1.789616e+01	-4.008365e+02
8.400000e-07	-2.401176e-06	-6.083681e-09	-1.776490e+01	-3.993642e+02
8.500000e-07	-2.383294e-06	-6.061801e-09	-1.763260e+01	-3.978853e+02
8.600000e-07	-2.365213e-06	-6.034679e-09	-1.749883e+01	-3.963953e+02
8.700000e-07	-2.346915e-06	-6.007713e-09	-1.736345e+01	-3.948887e+02
8.800000e-07	-2.328428e-06	-5.985220e-09	-1.722668e+01	-3.933600e+02
8.900000e-07	-2.309777e-06	-5.959299e-09	-1.708869e+01	-3.918046e+02
9.000000e-07	-2.290970e-06	-5.927397e-09	-1.694955e+01	-3.902194e+02
9.100000e-07	-2.271994e-06	-5.897206e-09	-1.680916e+01	-3.886036e+02
9.200000e-07	-2.252868e-06	-5.875330e-09	-1.666766e+01	-3.869591e+02
9.300000e-07	-2.233616e-06	-5.856058e-09	-1.652522e+01	-3.852897e+02
9.400000e-07	-2.214241e-06	-5.828609e-09	-1.638188e+01	-3.836011e+02
9.500000e-07	-2.194709e-06	-5.797140e-09	-1.623737e+01	-3.818995e+02
9.600000e-07	-2.174974e-06	-5.769201e-09	-1.609136e+01	-3.801914e+02
9.700000e-07	-2.155041e-06	-5.745233e-09	-1.594389e+01	-3.784815e+02
9.800000e-07	-2.134934e-06	-5.715597e-09	-1.579513e+01	-3.767727e+02
9.900000e-07	-2.114697e-06	-5.680749e-09	-1.564541e+01	-3.750651e+02
1.000000e-06	-2.094346e-06	-5.648105e-09	-1.549484e+01	-3.733557e+02
1.010000e-06	-2.073847e-06	-5.625082e-09	-1.534319e+01	-3.716391e+02
1.020000e-06	-2.053187e-06	-5.604244e-09	-1.519033e+01	-3.699077e+02
1.030000e-06	-2.032364e-06	-5.579975e-09	-1.503628e+01	-3.681531e+02
1.040000e-06	-2.011411e-06	-5.553498e-09	-1.488126e+01	-3.663669e+02
1.050000e-06	-1.990353e-06	-5.530340e-09	-1.472546e+01	-3.645420e+02
1.060000e-06	-1.969159e-06	-5.502184e-09	-1.456866e+01	-3.626734e+02
1.070000e-06	-1.947789e-06	-5.466128e-09	-1.441055e+01	-3.607592e+02
1.080000e-06	-1.926214e-06	-5.426020e-09	-1.425094e+01	-3.588004e+02
1.090000e-06	-1.904465e-06	-5.390298e-09	-1.409002e+01	-3.568009e+02
1.100000e-06	-1.882613e-06	-5.360661e-09	-1.392835e+01	-3.547666e+02
1.110000e-06	-1.860661e-06	-5.331340e-09	-1.376595e+01	-3.527047e+02
1.120000e-06	-1.838589e-06	-5.300555e-09	-1.360265e+01	-3.506224e+02
1.130000e-06	-1.816397e-06	-5.270994e-09	-1.343846e+01	-3.485257e+02
1.140000e-06	-1.794076e-06	-5.243637e-09	-1.327332e+01	-3.464186e+02
1.150000e-06	-1.771637e-06	-5.210979e-09	-1.310731e+01	-3.443026e+02
1.160000e-06	-1.749085e-06	-5.171433e-09	-1.294046e+01	-3.421764e+02
1.170000e-06	-1.726410e-06	-5.131026e-09	-1.277270e+01	-3.400361e+02
1.180000e-06	-1.703616e-06	-5.097239e-09	-1.260406e+01	-3.378762e+02
1.190000e-06	-1.680656e-06	-5.068136e-09	-1.243419e+01	-3.356904e+02
1.200000e-06	-1.657482e-06	-5.038410e-09	-1.226275e+01	-3.334724e+02
1.210000e-06	-1.634156e-06	-5.009103e-09	-1.209017e+01	-3.312177e+02
1.220000e-06	-1.610732e-06	-4.977534e-09	-1.191687e+01	-3.289234e+02
1.230000e-06	-1.587221e-06	-4.940101e-09	-1.174293e+01	-3.265896e+02
1.240000e-06	-1.563610e-06	-4.897022e-09	-1.156824e+01	-3.242189e+02
1.250000e-06	-1.539887e-06	-4.852273e-09	-1.139273e+01	-3.218161e+02
1.260000e-06	-1.516042e-06	-4.812424e-09	-1.121631e+01	-3.193875e+02
1.270000e-06	-1.492077e-06	-4.779809e-09	-1.103901e+01	-3.169400e+02
1.280000e-06	-1.468006e-06	-4.749567e-09	-1.086092e+01	-3.144797e+02
1.290000e-06	-1.443834e-06	-4.717423e-09	-1.068208e+01	-3.120112e+02
1.300000e-06	-1.419590e-06	-4.682388e-09	-1.050272e+01	-3.095368e+02
1.310000e-06	-1.395269e-06	-4.643940e-09	-1.032278e+01	-3.070562e+02
1.320000e-06	-1.370852e-06	-4.603296e-09	-1.014214e+01	-3.045664e+02
1.330000e-06	-1.346318e-06	-4.560873e-09	-9.960622e+00	-3.020622e+02
1.340000e-06	-1.321627e-06	-4.521158e-09	-9.777944e+00	-2.995371e+02
1.350000e-06	-1.296793e-06	-4.484796e-09	-9.594214e+00	-2.969844e+02
1.360000e-06	-1.271870e-06	-4.450435e-09	-9.409826e+00	-2.943978e+02
1.370000e-06	-1.246881e-06	-4.414603e-09	-9.224944e+00	-2.917730e+02
1.380000e-06	-1.221843e-06	-4.374865e-09	-9.039701e+00	-2.891079e+02
1.390000e-06	-1.196740e-06	-4.332008e-09	-8.853984e+00	-2.864028e+02
1.400000e-06	-1.171544e-06	-4.288564e-09	-8.667573e+00	-2.836607e+02
1.410000e-06	-1.146263e-06	-4.244617e-09	-8.480535e+00	-2.808865e+02
1.420000e-06	-1.120889e-06	-4.200741e-09	-8.292801e+00	-2.780863e+02
1.430000e-06	-1.095418e-06	-4.161003e-09	-8.104356e+00	-2.752663e+02
1.440000e-06	-1.069882e-06	-4.123660e-09	-7.915430e+00	-2.724321e+02
1.450000e-06	-1.044274e-06	-4.083454e-09	-7.725972e+00	-2.695876e+02
1.460000e-06	-1.018595e-06	-4.039727e-09	-7.535993e+00	-2.667345e+02
1.470000e-06	-9.928567e-07	-3.994732e-09	-7.345568e+00	-2.638724e+02
1.480000e-06	-9.670609e-07	-3.950621e-09	-7.154720e+00	-2.609984e+02
1.490000e-06	-9.412266e-07	-3.906872e-09	-6.963587e+00	-2.581082e+02
1.500000e-06	-9.153419e-07	-3.860068e-09	-6.772081e+00	-2.551963e+02
1.510000e-06	-8.893905e-07	-3.812924e-09	-6.580082e+00	-2.522573e+02
1.520000e-06	-8.633913e-07	-3.768473e-09	-6.387728e+00	-2.492862e+02
1.530000e-06	-8.373402e-07	-3.723217e-09	-6.194992e+00	-2.462798e+02
1.540000e-06	-8.112040e-07	-3.676847e-09	-6.001626e+00	-2.432361e+02
1.550000e-06	-7.849757e-07	-3.627570e-09	-5.807578e+00	-2.401553e+02
1.560000e-06	-7.586685e-07	-3.577365e-09	-5.612946e+00	-2.370389e+02
1.570000e-06	-7.322542e-07	-3.528234e-09	-5.417522e+00	-2.338893e+02
1.580000e-06	-7.057454e-07	-3.479602e-09	-5.221399e+00	-2.307095e+02
1.590000e-06	-6.792055e-07	-3.431772e-09	-5.025045e+00	-2.275018e+02
1.600000e-06	-6.526355e-07	-3.384735e-09	-4.828469e+00	-2.242678e+02
1.610000e-06	-6.260328e-07	-3.337105e-09	-4.631652e+00	-2.210075e+02
1.620000e-06	-5.994061e-07	-3.288590e-09	-4.434656e+00	-2.177196e+02
1.630000e-06	-5.727577e-07	-3.240225e-09	-4.237500e+00	-2.144012e+02
1.640000e-06	-5.460882e-07	-3.188354e-09	-4.040188e+00	-2.110487e+02
1.650000e-06	-5.193939e-07	-3.134403e-09	-3.842693e+00	-2.076583e+02
1.660000e-06	-4.926793e-07	-3.081683e-09	-3.645047e+00	-2.042263e+02
1.670000e-06	-4.659125e-07	-3.029892e-09	-3.447015e+00	-2.007504e+02
1.680000e-06	-4.391054e-07	-2.979291e-09	-3.248685e+00	-1.972298e+02
1.690000e-06	-4.122865e-07	-2.929694e-09	-3.050267e+00	-1.936653e+02
1.700000e-06	-3.854238e-07	-2.876957e-09	-2.851526e+00	-1.900596e+02
1.710000e-06	-3.585125e-07	-2.820618e-09	-2.652425e+00	-1.864167e+02
1.720000e-06	-3.315734e-07	-2.765386e-09	-2.453119e+00	-1.827411e+02
1.730000e-06	-3.046221e-07	-2.710481e-09	-2.253722e+00	-1.790376e+02
1.740000e-06	-2.776477e-07	-2.652094e-09	-2.054153e+00	-1.753098e+02
1.750000e-06	-2.506634e-07	-2.593567e-09	-1.854512e+00	-1.715602e+02
1.760000e-06	-2.236728e-07	-2.538748e-09	-1.654825e+00	-1.677893e+02
1.770000e-06	-1.966654e-07	-2.485963e-09	-1.455012e+00	-1.639955e+02
1.780000e-06	-1.696567e-07	-2.431141e-09	-1.255191e+00	-1.601755e+02
1.790000e-06	-1.426405e-07	-2.373290e-09	-1.055314e+00	-1.563248e+02
1.800000e-06	-1.156157e-07	-2.314429e-09	-8.553732e-01	-1.524380e+02
1.810000e-06	-8.858382e-08	-2.256340e-09	-6.553800e-01	-1.485100e+02
1.820000e-06	-6.155103e-08	-2.198854e-09	-4.553802e-01	-1.445368e+02
1.830000e-06	-3.451019e-08	-2.138063e-09	-2.553208e-01	-1.405156e+02
1.840000e-06	-7.446666e-09	-2.072614e-09	-5.509354e-02	-1.364459e+02
1.850000e-06	1.962072e-08	-2.008262e-09	1.451623e-01	-1.323288e+02
1.860000e-06	4.667624e-08	-1.946213e-09	3.453303e-01	-1.281673e+02
1.870000e-06	7.372658e-08	-1.883851e-09	5.454600e-01	-1.239658e+02
1.880000e-06	1.007899e-07	-1.821476e-09	7.456856e-01	-1.197287e+02
1.890000e-06	1.278446e-07	-1.759114e-09	9.458473e-01	-1.154605e+02
1.900000e-06	1.548736e-07	-1.696687e-09	1.145820e+00	-1.111646e+02
1.910000e-06	1.819001e-07	-1.633390e-09	1.345773e+00	-1.068430e+02
1.920000e-06	2.089101e-07	-1.565153e-09	1.545604e+00	-1.024960e+02
1.930000e-06	2.358899e-07	-1.493334e-09	1.745212e+00	-9.812223e+01
1.940000e-06	2.628531e-07	-1.421968e-09	1.944697e+00	-9.371894e+01
1.950000e-06	2.898131e-07	-1.352249e-09	2.144158e+00	-8.928277e+01
1.960000e-06	3.167662e-07	-1.284883e-09	2.343569e+00	-8.481026e+01
1.970000e-06	3.436876e-07	-1.218646e-09	2.542744e+00	-8.029863e+01
1.980000e-06	3.705751e-07	-1.150947e-09	2.741669e+00	-7.574630e+01
1.990000e-06	3.974355e-07	-1.082170e-09	2.940394e+00	-7.115329e+01
2.000000e-06	4.242609e-07	-1.014310e-09	3.138859e+00	-6.652125e+01
2.010000e-06	4.510486e-07	-9.444674e-10	3.337045e+00	-6.185329e+01
2.020000e-06	4.777959e-07	-8.708397e-10	3.534934e+00	-5.715346e+01
2.030000e-06	5.045087e-07	-7.947655e-10	3.732566e+00	-5.242614e+01
2.040000e-06	5.311915e-07	-7.181962e-10	3.929976e+00	-4.767531e+01
2.050000e-06	5.578459e-07	-6.431733e-10	4.127177e+00	-4.290391e+01
2.060000e-06	5.844827e-07	-5.714072e-10	4.324246e+00	-3.811335e+01
2.070000e-06	6.110904e-07	-5.005951e-10	4.521101e+00	-3.330331e+01
2.080000e-06	6.376808e-07	-4.306819e-10	4.717828e+00	-2.847182e+01
2.090000e-06	6.642556e-07	-3.615597e-10	4.914440e+00	-2.361561e+01
2.100000e-06	6.907967e-07	-2.878034e-10	5.110802e+00	-1.873077e+01
2.110000e-06	7.172955e-07	-2.089229e-10	5.306851e+00	-1.381343e+01
2.120000e-06	7.437072e-07	-1.276978e-10	5.502256e+00	-8.860540e+00
2.130000e-06	7.700186e-07	-4.956218e-11	5.696919e+00	-3.870511e+00
2.140000e-06	7.962452e-07	2.662023e-11	5.890954e+00	1.156387e+00
2.150000e-06	8.223878e-07	1.040490e-10	6.084368e+00	6.217904e+00
2.160000e-06	8.484292e-07	1.815574e-10	6.277033e+00	1.131001e+01
2.170000e-06	8.743880e-07	2.595260e-10	6.469087e+00	1.642741e+01
2.180000e-06	9.002886e-07	3.379640e-10	6.660711e+00	2.156422e+01
2.190000e-06	9.261327e-07	4.159059e-10	6.851916e+00	2.671484e+01
2.200000e-06	9.519458e-07	4.935314e-10	7.042892e+00	3.187469e+01
2.210000e-06	9.777098e-07	5.718372e-10	7.233505e+00	3.704087e+01
2.220000e-06	1.003410e-06	6.505604e-10	7.423644e+00	4.221252e+01
2.230000e-06	1.029049e-06	7.310423e-10	7.613335e+00	4.739087e+01
2.240000e-06	1.054620e-06	8.135722e-10	7.802521e+00	5.257892e+01
2.250000e-06	1.080126e-06	8.964817e-10	7.991222e+00	5.778088e+01
2.260000e-06	1.105560e-06	9.763848e-10	8.179396e+00	6.300134e+01
2.270000e-06	1.130916e-06	1.053356e-09	8.366988e+00	6.824437e+01
2.280000e-06	1.156187e-06	1.131301e-09	8.553951e+00	7.351269e+01
2.290000e-06	1.181365e-06	1.211387e-09	8.740227e+00	7.880699e+01
2.300000e-06	1.206469e-06	1.293182e-09	8.925963e+00	8.412556e+01
2.310000e-06	1.231521e-06	1.377903e-09	9.111306e+00	8.946423e+01
2.320000e-06	1.256523e-06	1.464027e-09	9.296285e+00	9.481671e+01
2.330000e-06	1.281463e-06	1.548725e-09	9.480796e+00	1.001752e+02
2.340000e-06	1.306295e-06	1.633195e-09	9.664517e+00	1.055310e+02
2.350000e-06	1.330985e-06	1.715120e-09	9.847181e+00	1.108761e+02
2.360000e-06	1.355506e-06	1.793223e-09	1.002860e+01	1.162031e+02
2.370000e-06	1.379893e-06	1.870352e-09	1.020902e+01	1.215068e+02
2.380000e-06	1.404194e-06	1.947584e-09	1.038881e+01	1.267841e+02
2.390000e-06	1.428421e-06	2.027430e-09	1.056806e+01	1.320343e+02
2.400000e-06	1.452572e-06	2.110127e-09	1.074674e+01	1.372589e+02
2.410000e-06	1.476623e-06	2.194547e-09	1.092467e+01	1.424612e+02
2.420000e-06	1.500565e-06	2.278484e-09	1.110181e+01	1.476451e+02
2.430000e-06	1.524405e-06	2.358247e-09	1.127818e+01	1.528150e+02
2.440000e-06	1.548130e-06	2.435161e-09	1.145371e+01	1.579741e+02
2.450000e-06	1.571740e-06	2.511115e-09	1.162839e+01	1.631245e+02
2.460000e-06	1.595245e-06	2.586486e-09	1.180229e+01	1.682663e+02
2.470000e-06	1.618637e-06	2.661440e-09	1.197535e+01	1.733974e+02
2.480000e-06	1.641900e-06	2.736562e-09	1.214746e+01	1.785140e+02
2.490000e-06	1.665001e-06	2.815303e-09	1.231837e+01	1.836102e+02
2.500000e-06	1.687940e-06	2.899984e-09	1.248808e+01	1.886795e+02
2.510000e-06	1.710729e-06	2.985171e-09	1.265669e+01	1.937148e+02
2.520000e-06	1.733387e-06	3.062117e-09	1.282432e+01	1.987093e+02
2.530000e-06	1.755951e-06	3.133924e-09	1.299125e+01	2.036572e+02
2.540000e-06	1.778399e-06	3.205941e-09	1.315733e+01	2.085539e+02
2.550000e-06	1.800724e-06	3.277303e-09	1.332251e+01	2.133964e+02
2.560000e-06	1.822948e-06	3.346364e-09	1.348693e+01	2.181835e+02
2.570000e-06	1.845047e-06	3.416914e-09	1.365043e+01	2.229150e+02
2.580000e-06	1.867006e-06	3.490907e-09	1.381289e+01	2.275922e+02
2.590000e-06	1.888860e-06	3.565713e-09	1.397457e+01	2.322168e+02
2.600000e-06	1.910598e-06	3.638245e-09	1.413540e+01	2.367908e+02
2.610000e-06	1.932183e-06	3.706653e-09	1.429510e+01	2.413161e+02
2.620000e-06	1.953601e-06	3.773995e-09	1.445355e+01	2.457940e+02
2.630000e-06	1.974819e-06	3.841638e-09	1.461054e+01	2.502252e+02
2.640000e-06	1.995882e-06	3.906883e-09	1.476637e+01	2.546099e+02
2.650000e-06	2.016845e-06	3.968883e-09	1.492146e+01	2.589475e+02
2.660000e-06	2.037674e-06	4.031565e-09	1.507556e+01	2.632369e+02
2.670000e-06	2.058350e-06	4.095801e-09	1.522853e+01	2.674769e+02
2.680000e-06	2.078877e-06	4.159876e-09	1.538040e+01	2.716660e+02
2.690000e-06	2.099267e-06	4.224169e-09	1.553126e+01	2.758029e+02
2.700000e-06	2.119533e-06	4.289413e-09	1.568119e+01	2.798864e+02
2.710000e-06	2.139667e-06	4.352741e-09	1.583015e+01	2.839155e+02
2.720000e-06	2.159625e-06	4.413186e-09	1.597781e+01	2.878893e+02
2.730000e-06	2.179362e-06	4.471230e-09	1.612383e+01	2.918073e+02
2.740000e-06	2.198906e-06	4.525703e-09	1.626842e+01	2.956688e+02
2.750000e-06	2.218302e-06	4.576328e-09	1.641192e+01	2.994733e+02
2.760000e-06	2.237564e-06	4.625642e-09	1.655443e+01	3.032205e+02
2.770000e-06	2.256676e-06	4.679745e-09	1.669583e+01	3.069099e+02
2.780000e-06	2.275627e-06	4.739004e-09	1.683604e+01	3.105412e+02
2.790000e-06	2.294442e-06	4.798990e-09	1.697524e+01	3.141144e+02
2.800000e-06	2.313142e-06	4.855556e-09	1.711359e+01	3.176296e+02
2.810000e-06	2.331710e-06	4.909371e-09	1.725096e+01	3.210874e+02
2.820000e-06	2.350083e-06	4.959666e-09	1.738690e+01	3.244883e+02
2.830000e-06	2.368219e-06	5.003736e-09	1.752107e+01	3.278337e+02
2.840000e-06	2.386143e-06	5.044217e-09	1.765368e+01	3.311246e+02
2.850000e-06	2.403909e-06	5.086253e-09	1.778512e+01	3.343625e+02
2.860000e-06	2.421537e-06	5.132518e-09	1.791554e+01	3.375486e+02
2.870000e-06	2.439007e-06	5.180754e-09	1.804479e+01	3.406841e+02
2.880000e-06	2.456294e-06	5.229263e-09	1.817269e+01	3.437696e+02
2.890000e-06	2.473432e-06	5.274225e-09	1.829948e+01	3.468057e+02
2.900000e-06	2.490447e-06	5.316677e-09	1.842536e+01	3.497924e+02
