# Temperatura_=_20.0
# Concentracion g/m^3_=_10000.0
# C_Vs_to_Am_M_A/Vsm_=_65563218390.804596
# pendiente_HvsI_1/m_=_3716.3
# ordenada_HvsI_A/m_=_1297.0
# frecuencia_Hz_=_135251.1441973412

Tiempo_(s)	Campo_(V.s)	Magnetizacion_(V.s)	Campo_(kA/m)	Magnetizacion_(A/m)
0.000000e+00	-3.180232e-06	3.250555e-11	-2.355439e+01	-1.883715e+00
1.000000e-08	-3.180174e-06	3.543954e-11	-2.355395e+01	-1.925553e+00
2.000000e-08	-3.179915e-06	3.392131e-11	-2.355203e+01	-1.963473e+00
3.000000e-08	-3.179457e-06	3.073343e-11	-2.354864e+01	-1.996020e+00
4.000000e-08	-3.178753e-06	2.748296e-11	-2.354343e+01	-2.022061e+00
5.000000e-08	-3.177795e-06	2.247815e-11	-2.353633e+01	-2.041070e+00
6.000000e-08	-3.176555e-06	2.020757e-11	-2.352715e+01	-2.053423e+00
7.000000e-08	-3.174905e-06	3.238802e-11	-2.351493e+01	-2.060632e+00
8.000000e-08	-3.172948e-06	6.206804e-11	-2.350043e+01	-2.065480e+00
9.000000e-08	-3.170954e-06	9.232129e-11	-2.348567e+01	-2.071995e+00
1.000000e-07	-3.168770e-06	6.943402e-11	-2.346949e+01	-2.085239e+00
1.100000e-07	-3.166411e-06	-3.940440e-11	-2.345202e+01	-2.110913e+00
1.200000e-07	-3.164001e-06	1.248414e-11	-2.343417e+01	-2.154798e+00
1.300000e-07	-3.161197e-06	4.493235e-11	-2.341340e+01	-2.222095e+00
1.400000e-07	-3.157983e-06	1.716105e-12	-2.338960e+01	-2.316737e+00
1.500000e-07	-3.154606e-06	-2.716263e-11	-2.336458e+01	-2.440772e+00
1.600000e-07	-3.151086e-06	-1.050711e-11	-2.333851e+01	-2.593896e+00
1.700000e-07	-3.147344e-06	1.492785e-11	-2.331080e+01	-2.773231e+00
1.800000e-07	-3.143338e-06	1.021823e-11	-2.328113e+01	-2.973381e+00
1.900000e-07	-3.139033e-06	2.327852e-11	-2.324924e+01	-3.186797e+00
2.000000e-07	-3.134499e-06	-3.789229e-11	-2.321566e+01	-3.404401e+00
2.100000e-07	-3.129833e-06	-5.989097e-11	-2.318111e+01	-3.616437e+00
2.200000e-07	-3.124987e-06	-3.363563e-11	-2.314521e+01	-3.813417e+00
2.300000e-07	-3.119838e-06	-9.554154e-12	-2.310707e+01	-3.987072e+00
2.400000e-07	-3.114436e-06	-7.445533e-11	-2.306707e+01	-4.131180e+00
2.500000e-07	-3.108862e-06	-7.501137e-11	-2.302578e+01	-4.242161e+00
2.600000e-07	-3.103073e-06	-4.804503e-11	-2.298291e+01	-4.319372e+00
2.700000e-07	-3.097029e-06	-3.921121e-11	-2.293814e+01	-4.365055e+00
2.800000e-07	-3.090804e-06	-9.795693e-11	-2.289204e+01	-4.383957e+00
2.900000e-07	-3.084393e-06	-8.826729e-11	-2.284456e+01	-4.382661e+00
3.000000e-07	-3.077710e-06	-4.917044e-11	-2.279506e+01	-4.368732e+00
3.100000e-07	-3.070819e-06	-5.299825e-11	-2.274402e+01	-4.349781e+00
3.200000e-07	-3.063780e-06	-4.914694e-11	-2.269188e+01	-4.332577e+00
3.300000e-07	-3.056510e-06	-3.482014e-11	-2.263804e+01	-4.322314e+00
3.400000e-07	-3.048937e-06	-6.522649e-11	-2.258195e+01	-4.322131e+00
3.500000e-07	-3.041145e-06	-1.200677e-10	-2.252423e+01	-4.332924e+00
3.600000e-07	-3.033169e-06	-7.481360e-11	-2.246516e+01	-4.353477e+00
3.700000e-07	-3.024927e-06	-4.609498e-11	-2.240412e+01	-4.380856e+00
3.800000e-07	-3.016410e-06	-8.169636e-11	-2.234104e+01	-4.411023e+00
3.900000e-07	-3.007728e-06	-1.003262e-10	-2.227673e+01	-4.439542e+00
4.000000e-07	-2.998853e-06	-3.302534e-11	-2.221100e+01	-4.462300e+00
4.100000e-07	-2.989730e-06	-3.832260e-11	-2.214343e+01	-4.476119e+00
4.200000e-07	-2.980383e-06	-9.472335e-11	-2.207420e+01	-4.479190e+00
4.300000e-07	-2.970856e-06	-1.108625e-10	-2.200364e+01	-4.471272e+00
4.400000e-07	-2.961134e-06	-7.420736e-11	-2.193164e+01	-4.453645e+00
4.500000e-07	-2.951184e-06	-7.438840e-11	-2.185794e+01	-4.428831e+00
4.600000e-07	-2.940956e-06	-7.521945e-11	-2.178219e+01	-4.400151e+00
4.700000e-07	-2.930416e-06	-7.319303e-11	-2.170412e+01	-4.371181e+00
4.800000e-07	-2.919617e-06	-8.081322e-11	-2.162414e+01	-4.345201e+00
4.900000e-07	-2.908624e-06	-7.467333e-11	-2.154272e+01	-4.324712e+00
5.000000e-07	-2.897424e-06	-5.580693e-11	-2.145977e+01	-4.311096e+00
5.100000e-07	-2.886001e-06	-7.490227e-11	-2.137516e+01	-4.304457e+00
5.200000e-07	-2.874401e-06	-1.024778e-10	-2.128925e+01	-4.303645e+00
5.300000e-07	-2.862596e-06	-7.966638e-11	-2.120181e+01	-4.306470e+00
5.400000e-07	-2.850550e-06	-6.833451e-11	-2.111259e+01	-4.310037e+00
5.500000e-07	-2.838294e-06	-9.129958e-11	-2.102182e+01	-4.311172e+00
5.600000e-07	-2.825836e-06	-1.021639e-10	-2.092955e+01	-4.306849e+00
5.700000e-07	-2.813191e-06	-7.451457e-11	-2.083589e+01	-4.294583e+00
5.800000e-07	-2.800396e-06	-6.050067e-11	-2.074113e+01	-4.272716e+00
5.900000e-07	-2.787420e-06	-6.107081e-11	-2.064503e+01	-4.240593e+00
6.000000e-07	-2.774208e-06	-7.531169e-11	-2.054716e+01	-4.198589e+00
6.100000e-07	-2.760749e-06	-8.421181e-11	-2.044748e+01	-4.148025e+00
6.200000e-07	-2.747094e-06	-8.302813e-11	-2.034635e+01	-4.090981e+00
6.300000e-07	-2.733263e-06	-7.644103e-11	-2.024391e+01	-4.030053e+00
6.400000e-07	-2.719225e-06	-8.838358e-11	-2.013994e+01	-3.968084e+00
6.500000e-07	-2.704979e-06	-9.272281e-11	-2.003443e+01	-3.907910e+00
6.600000e-07	-2.690566e-06	-7.721804e-11	-1.992767e+01	-3.852138e+00
6.700000e-07	-2.676000e-06	-6.522621e-11	-1.981979e+01	-3.802988e+00
6.800000e-07	-2.661248e-06	-7.308943e-11	-1.971053e+01	-3.762178e+00
6.900000e-07	-2.646248e-06	-8.493317e-11	-1.959943e+01	-3.730871e+00
7.000000e-07	-2.630994e-06	-8.417048e-11	-1.948646e+01	-3.709646e+00
7.100000e-07	-2.615552e-06	-7.522029e-11	-1.937208e+01	-3.698515e+00
7.200000e-07	-2.599944e-06	-7.292175e-11	-1.925648e+01	-3.696938e+00
7.300000e-07	-2.584126e-06	-8.599833e-11	-1.913933e+01	-3.703865e+00
7.400000e-07	-2.568072e-06	-8.845997e-11	-1.902042e+01	-3.717788e+00
7.500000e-07	-2.551790e-06	-7.486607e-11	-1.889983e+01	-3.736814e+00
7.600000e-07	-2.535294e-06	-6.691840e-11	-1.877765e+01	-3.758769e+00
7.700000e-07	-2.518604e-06	-7.598181e-11	-1.865404e+01	-3.781335e+00
7.800000e-07	-2.501749e-06	-8.105279e-11	-1.852920e+01	-3.802229e+00
7.900000e-07	-2.484765e-06	-7.925498e-11	-1.840341e+01	-3.819396e+00
8.000000e-07	-2.467660e-06	-7.525070e-11	-1.827672e+01	-3.831223e+00
8.100000e-07	-2.450421e-06	-7.943283e-11	-1.814904e+01	-3.836725e+00
8.200000e-07	-2.433004e-06	-8.758217e-11	-1.802004e+01	-3.835690e+00
8.300000e-07	-2.415412e-06	-8.712522e-11	-1.788975e+01	-3.828737e+00
8.400000e-07	-2.397682e-06	-7.641437e-11	-1.775843e+01	-3.817277e+00
8.500000e-07	-2.379813e-06	-7.008688e-11	-1.762608e+01	-3.803364e+00
8.600000e-07	-2.361744e-06	-7.312490e-11	-1.749225e+01	-3.789436e+00
8.700000e-07	-2.343446e-06	-7.451042e-11	-1.735673e+01	-3.777980e+00
8.800000e-07	-2.324949e-06	-7.048381e-11	-1.721973e+01	-3.771150e+00
8.900000e-07	-2.306300e-06	-6.825357e-11	-1.708161e+01	-3.770405e+00
9.000000e-07	-2.287502e-06	-7.564337e-11	-1.694238e+01	-3.776212e+00
9.100000e-07	-2.268538e-06	-8.383721e-11	-1.680192e+01	-3.787864e+00
9.200000e-07	-2.249432e-06	-8.307604e-11	-1.666042e+01	-3.803466e+00
9.300000e-07	-2.230196e-06	-7.747995e-11	-1.651795e+01	-3.820086e+00
9.400000e-07	-2.210828e-06	-7.925401e-11	-1.637450e+01	-3.834073e+00
9.500000e-07	-2.191313e-06	-8.228055e-11	-1.622996e+01	-3.841500e+00
9.600000e-07	-2.171607e-06	-7.798727e-11	-1.608401e+01	-3.838689e+00
9.700000e-07	-2.151693e-06	-7.067594e-11	-1.593651e+01	-3.822720e+00
9.800000e-07	-2.131615e-06	-7.136445e-11	-1.578780e+01	-3.791869e+00
9.900000e-07	-2.111405e-06	-7.901455e-11	-1.563812e+01	-3.745905e+00
1.000000e-06	-2.091062e-06	-8.489773e-11	-1.548745e+01	-3.686179e+00
1.010000e-06	-2.070559e-06	-8.349422e-11	-1.533559e+01	-3.615504e+00
1.020000e-06	-2.049893e-06	-7.885472e-11	-1.518253e+01	-3.537825e+00
1.030000e-06	-2.029088e-06	-7.596040e-11	-1.502844e+01	-3.457721e+00
1.040000e-06	-2.008150e-06	-7.214987e-11	-1.487336e+01	-3.379822e+00
1.050000e-06	-1.987091e-06	-6.506077e-11	-1.471739e+01	-3.308201e+00
1.060000e-06	-1.965890e-06	-6.009995e-11	-1.456036e+01	-3.245855e+00
1.070000e-06	-1.944504e-06	-6.344260e-11	-1.440197e+01	-3.194346e+00
1.080000e-06	-1.922962e-06	-7.157143e-11	-1.424241e+01	-3.153652e+00
1.090000e-06	-1.901291e-06	-7.572004e-11	-1.408191e+01	-3.122254e+00
1.100000e-06	-1.879492e-06	-7.305589e-11	-1.392046e+01	-3.097459e+00
1.110000e-06	-1.857569e-06	-7.111550e-11	-1.375808e+01	-3.075894e+00
1.120000e-06	-1.835516e-06	-7.142019e-11	-1.359474e+01	-3.054099e+00
1.130000e-06	-1.813342e-06	-7.003897e-11	-1.343051e+01	-3.029135e+00
1.140000e-06	-1.791030e-06	-6.471208e-11	-1.326526e+01	-2.999101e+00
1.150000e-06	-1.768600e-06	-6.172207e-11	-1.309913e+01	-2.963481e+00
1.160000e-06	-1.746064e-06	-6.565406e-11	-1.293222e+01	-2.923264e+00
1.170000e-06	-1.723402e-06	-7.220429e-11	-1.276438e+01	-2.880816e+00
1.180000e-06	-1.700629e-06	-7.377387e-11	-1.259571e+01	-2.839519e+00
1.190000e-06	-1.677707e-06	-7.141293e-11	-1.242593e+01	-2.803238e+00
1.200000e-06	-1.654594e-06	-6.708446e-11	-1.225475e+01	-2.775687e+00
1.210000e-06	-1.631333e-06	-6.415501e-11	-1.208247e+01	-2.759804e+00
1.220000e-06	-1.607948e-06	-6.269796e-11	-1.190927e+01	-2.757223e+00
1.230000e-06	-1.584446e-06	-6.288411e-11	-1.173520e+01	-2.767929e+00
1.240000e-06	-1.560832e-06	-6.896301e-11	-1.156030e+01	-2.790159e+00
1.250000e-06	-1.537107e-06	-7.755657e-11	-1.138458e+01	-2.820544e+00
1.260000e-06	-1.513281e-06	-8.241032e-11	-1.120811e+01	-2.854496e+00
1.270000e-06	-1.489367e-06	-8.046636e-11	-1.103100e+01	-2.886760e+00
1.280000e-06	-1.465355e-06	-7.516261e-11	-1.085315e+01	-2.912064e+00
1.290000e-06	-1.441239e-06	-6.955254e-11	-1.067454e+01	-2.925758e+00
1.300000e-06	-1.417033e-06	-6.870771e-11	-1.049526e+01	-2.924353e+00
1.310000e-06	-1.392739e-06	-6.909712e-11	-1.031532e+01	-2.905882e+00
1.320000e-06	-1.368345e-06	-6.833160e-11	-1.013464e+01	-2.870037e+00
1.330000e-06	-1.343819e-06	-6.986594e-11	-9.952995e+00	-2.818078e+00
1.340000e-06	-1.319168e-06	-7.359778e-11	-9.770413e+00	-2.752526e+00
1.350000e-06	-1.294400e-06	-7.484415e-11	-9.586969e+00	-2.676717e+00
1.360000e-06	-1.269515e-06	-7.088386e-11	-9.402660e+00	-2.594279e+00
1.370000e-06	-1.244547e-06	-6.432838e-11	-9.217733e+00	-2.508642e+00
1.380000e-06	-1.219526e-06	-5.853694e-11	-9.032414e+00	-2.422637e+00
1.390000e-06	-1.194445e-06	-5.613147e-11	-8.846655e+00	-2.338267e+00
1.400000e-06	-1.169281e-06	-5.529688e-11	-8.660279e+00	-2.256656e+00
1.410000e-06	-1.144021e-06	-5.520422e-11	-8.473192e+00	-2.178194e+00
1.420000e-06	-1.118668e-06	-5.554665e-11	-8.285412e+00	-2.102812e+00
1.430000e-06	-1.093239e-06	-5.771697e-11	-8.097070e+00	-2.030349e+00
1.440000e-06	-1.067749e-06	-5.947449e-11	-7.908279e+00	-1.960906e+00
1.450000e-06	-1.042186e-06	-5.660132e-11	-7.718953e+00	-1.895130e+00
1.460000e-06	-1.016544e-06	-5.039386e-11	-7.529035e+00	-1.834348e+00
1.470000e-06	-9.908320e-07	-4.586190e-11	-7.338596e+00	-1.780531e+00
1.480000e-06	-9.650706e-07	-4.221034e-11	-7.147794e+00	-1.736060e+00
1.490000e-06	-9.392635e-07	-3.938081e-11	-6.956654e+00	-1.703363e+00
1.500000e-06	-9.133916e-07	-4.083901e-11	-6.765034e+00	-1.684437e+00
1.510000e-06	-8.874584e-07	-4.704701e-11	-6.572959e+00	-1.680391e+00
1.520000e-06	-8.614755e-07	-5.319450e-11	-6.380517e+00	-1.691044e+00
1.530000e-06	-8.354289e-07	-5.594710e-11	-6.187603e+00	-1.714700e+00
1.540000e-06	-8.092993e-07	-5.372104e-11	-5.994074e+00	-1.748130e+00
1.550000e-06	-7.831020e-07	-5.022581e-11	-5.800044e+00	-1.786785e+00
1.560000e-06	-7.568148e-07	-4.840931e-11	-5.605348e+00	-1.825237e+00
1.570000e-06	-7.304217e-07	-4.539553e-11	-5.409867e+00	-1.857774e+00
1.580000e-06	-7.039680e-07	-4.454330e-11	-5.213938e+00	-1.879084e+00
1.590000e-06	-6.774704e-07	-4.651838e-11	-5.017683e+00	-1.884918e+00
1.600000e-06	-6.509405e-07	-5.119626e-11	-4.821190e+00	-1.872635e+00
1.610000e-06	-6.243815e-07	-5.489934e-11	-4.624480e+00	-1.841547e+00
1.620000e-06	-5.978001e-07	-5.432996e-11	-4.427606e+00	-1.793013e+00
1.630000e-06	-5.712040e-07	-5.002052e-11	-4.230622e+00	-1.730251e+00
1.640000e-06	-5.445782e-07	-4.523450e-11	-4.033418e+00	-1.657910e+00
1.650000e-06	-5.179148e-07	-4.074112e-11	-3.835935e+00	-1.581458e+00
1.660000e-06	-4.912221e-07	-3.718043e-11	-3.638236e+00	-1.506470e+00
1.670000e-06	-4.645061e-07	-3.551341e-11	-3.440364e+00	-1.437931e+00
1.680000e-06	-4.377467e-07	-3.707172e-11	-3.242171e+00	-1.379648e+00
1.690000e-06	-4.109425e-07	-4.159614e-11	-3.043645e+00	-1.333857e+00
1.700000e-06	-3.840994e-07	-4.489613e-11	-2.844832e+00	-1.301076e+00
1.710000e-06	-3.572269e-07	-4.307114e-11	-2.645800e+00	-1.280207e+00
1.720000e-06	-3.303231e-07	-3.637355e-11	-2.446538e+00	-1.268875e+00
1.730000e-06	-3.033940e-07	-3.014242e-11	-2.247087e+00	-1.263924e+00
1.740000e-06	-2.764499e-07	-2.865106e-11	-2.047526e+00	-1.261995e+00
1.750000e-06	-2.494947e-07	-3.246599e-11	-1.847882e+00	-1.260079e+00
1.760000e-06	-2.225404e-07	-3.637023e-11	-1.648246e+00	-1.255958e+00
1.770000e-06	-1.955802e-07	-4.056824e-11	-1.448564e+00	-1.248481e+00
1.780000e-06	-1.686025e-07	-4.224115e-11	-1.248754e+00	-1.237610e+00
1.790000e-06	-1.416040e-07	-4.040913e-11	-1.048790e+00	-1.224269e+00
1.800000e-06	-1.145983e-07	-3.725328e-11	-8.487721e-01	-1.210014e+00
1.810000e-06	-8.759285e-08	-3.293199e-11	-6.487563e-01	-1.196603e+00
1.820000e-06	-6.057739e-08	-2.816354e-11	-4.486663e-01	-1.185544e+00
1.830000e-06	-3.354550e-08	-2.774888e-11	-2.484547e-01	-1.177714e+00
1.840000e-06	-6.500616e-09	-3.291276e-11	-4.814680e-02	-1.173104e+00
1.850000e-06	2.055421e-08	-3.757745e-11	1.522347e-01	-1.170768e+00
1.860000e-06	4.761100e-08	-3.996729e-11	3.526308e-01	-1.168950e+00
1.870000e-06	7.464695e-08	-4.021329e-11	5.528725e-01	-1.165390e+00
1.880000e-06	1.016549e-07	-3.929005e-11	7.529066e-01	-1.157750e+00
1.890000e-06	1.286496e-07	-3.624484e-11	9.528429e-01	-1.144065e+00
1.900000e-06	1.556379e-07	-3.064245e-11	1.152732e+00	-1.123155e+00
1.910000e-06	1.826078e-07	-2.548805e-11	1.352484e+00	-1.094901e+00
1.920000e-06	2.095650e-07	-2.614386e-11	1.552143e+00	-1.060344e+00
1.930000e-06	2.365087e-07	-3.076188e-11	1.751701e+00	-1.021563e+00
1.940000e-06	2.634402e-07	-3.379222e-11	1.951169e+00	-9.813683e-01
1.950000e-06	2.903751e-07	-3.513349e-11	2.150663e+00	-9.428324e-01
1.960000e-06	3.172960e-07	-3.586427e-11	2.350053e+00	-9.087588e-01
1.970000e-06	3.441733e-07	-3.452791e-11	2.549119e+00	-8.811629e-01
1.980000e-06	3.710253e-07	-3.224811e-11	2.747999e+00	-8.608658e-01
1.990000e-06	3.978654e-07	-2.876773e-11	2.946789e+00	-8.472724e-01
2.000000e-06	4.246623e-07	-2.342431e-11	3.145261e+00	-8.383813e-01
2.010000e-06	4.514135e-07	-2.056111e-11	3.343394e+00	-8.310326e-01
2.020000e-06	4.781201e-07	-2.363308e-11	3.541196e+00	-8.213618e-01
2.030000e-06	5.047966e-07	-2.899568e-11	3.738775e+00	-8.053907e-01
2.040000e-06	5.314549e-07	-3.284430e-11	3.936220e+00	-7.796617e-01
2.050000e-06	5.580860e-07	-3.456701e-11	4.133463e+00	-7.418117e-01
2.060000e-06	5.846926e-07	-3.200938e-11	4.330525e+00	-6.909900e-01
2.070000e-06	6.112744e-07	-2.756993e-11	4.527403e+00	-6.280467e-01
2.080000e-06	6.378252e-07	-2.247040e-11	4.724052e+00	-5.554558e-01
2.090000e-06	6.643465e-07	-1.817317e-11	4.920482e+00	-4.769786e-01
2.100000e-06	6.908350e-07	-1.706770e-11	5.116668e+00	-3.971170e-01
2.110000e-06	7.172782e-07	-1.885531e-11	5.312520e+00	-3.204408e-01
2.120000e-06	7.436582e-07	-2.083703e-11	5.507903e+00	-2.508959e-01
2.130000e-06	7.699339e-07	-2.048118e-11	5.702514e+00	-1.912041e-01
2.140000e-06	7.961100e-07	-2.038335e-11	5.896388e+00	-1.424545e-01
2.150000e-06	8.222061e-07	-2.288156e-11	6.089668e+00	-1.039530e-01
2.160000e-06	8.482252e-07	-2.321981e-11	6.282379e+00	-7.335966e-02
2.170000e-06	8.741611e-07	-1.789247e-11	6.474473e+00	-4.709324e-02
2.180000e-06	9.000136e-07	-1.229701e-11	6.665950e+00	-2.094220e-02
2.190000e-06	9.258208e-07	-1.045691e-11	6.857090e+00	9.216082e-03
2.200000e-06	9.516006e-07	-1.122765e-11	7.048029e+00	4.670312e-02
2.210000e-06	9.773427e-07	-1.094718e-11	7.238687e+00	9.345069e-02
2.220000e-06	1.003031e-06	-1.028279e-11	7.428948e+00	1.496336e-01
2.230000e-06	1.028648e-06	-1.107482e-11	7.618679e+00	2.135877e-01
2.240000e-06	1.054193e-06	-1.222433e-11	7.807879e+00	2.820314e-01
2.250000e-06	1.079664e-06	-1.088979e-11	7.996533e+00	3.505608e-01
2.260000e-06	1.105069e-06	-6.634520e-12	8.184694e+00	4.143447e-01
2.270000e-06	1.130417e-06	-2.294078e-12	8.372432e+00	4.689109e-01
2.280000e-06	1.155682e-06	7.742616e-13	8.559560e+00	5.109020e-01
2.290000e-06	1.180849e-06	3.662379e-12	8.745959e+00	5.386785e-01
2.300000e-06	1.205932e-06	6.077507e-12	8.931735e+00	5.526737e-01
2.310000e-06	1.230956e-06	6.984677e-12	9.117074e+00	5.554365e-01
2.320000e-06	1.255916e-06	7.517057e-12	9.301941e+00	5.513523e-01
2.330000e-06	1.280809e-06	5.033345e-12	9.486309e+00	5.460773e-01
2.340000e-06	1.305610e-06	1.030830e-13	9.670002e+00	5.457668e-01
2.350000e-06	1.330266e-06	-1.297693e-12	9.852611e+00	5.562117e-01
2.360000e-06	1.354752e-06	1.809337e-12	1.003397e+01	5.820094e-01
2.370000e-06	1.379097e-06	6.865980e-12	1.021428e+01	6.258918e-01
2.380000e-06	1.403352e-06	1.187950e-11	1.039392e+01	6.883099e-01
2.390000e-06	1.427553e-06	1.566414e-11	1.057317e+01	7.673346e-01
2.400000e-06	1.451685e-06	1.806801e-11	1.075190e+01	8.588874e-01
2.410000e-06	1.475723e-06	1.760707e-11	1.092994e+01	9.572660e-01
2.420000e-06	1.499642e-06	1.477788e-11	1.110709e+01	1.055885e+00
2.430000e-06	1.523454e-06	1.313781e-11	1.128346e+01	1.148126e+00
2.440000e-06	1.547170e-06	1.442460e-11	1.145911e+01	1.228172e+00
2.450000e-06	1.570764e-06	1.865013e-11	1.163386e+01	1.291712e+00
2.460000e-06	1.594234e-06	2.408505e-11	1.180769e+01	1.336415e+00
2.470000e-06	1.617585e-06	2.931263e-11	1.198064e+01	1.362130e+00
2.480000e-06	1.640798e-06	3.365686e-11	1.215257e+01	1.370768e+00
2.490000e-06	1.663837e-06	3.521727e-11	1.232321e+01	1.365928e+00
2.500000e-06	1.686686e-06	3.063673e-11	1.249244e+01	1.352304e+00
2.510000e-06	1.709383e-06	2.268680e-11	1.266054e+01	1.334990e+00
2.520000e-06	1.731993e-06	1.869005e-11	1.282801e+01	1.318773e+00
2.530000e-06	1.754523e-06	1.888888e-11	1.299487e+01	1.307515e+00
2.540000e-06	1.776945e-06	2.087110e-11	1.316094e+01	1.303726e+00
2.550000e-06	1.799237e-06	2.355779e-11	1.332605e+01	1.308343e+00
2.560000e-06	1.821405e-06	2.643998e-11	1.349024e+01	1.320769e+00
2.570000e-06	1.843460e-06	2.815581e-11	1.365358e+01	1.339117e+00
2.580000e-06	1.865396e-06	2.737463e-11	1.381605e+01	1.360624e+00
2.590000e-06	1.887229e-06	2.351790e-11	1.397776e+01	1.382161e+00
2.600000e-06	1.908961e-06	1.960742e-11	1.413872e+01	1.400750e+00
2.610000e-06	1.930550e-06	1.842081e-11	1.429861e+01	1.414010e+00
2.620000e-06	1.951941e-06	1.901891e-11	1.445704e+01	1.420483e+00
2.630000e-06	1.973133e-06	1.940690e-11	1.461401e+01	1.419796e+00
2.640000e-06	1.994175e-06	2.101436e-11	1.476985e+01	1.412645e+00
2.650000e-06	2.015105e-06	2.433221e-11	1.492487e+01	1.400637e+00
2.660000e-06	2.035913e-06	2.673508e-11	1.507899e+01	1.386016e+00
2.670000e-06	2.056588e-06	2.775026e-11	1.523212e+01	1.371330e+00
2.680000e-06	2.077118e-06	2.709795e-11	1.538417e+01	1.359095e+00
2.690000e-06	2.097485e-06	2.565133e-11	1.553502e+01	1.351512e+00
2.700000e-06	2.117708e-06	2.398061e-11	1.568481e+01	1.350261e+00
2.710000e-06	2.137808e-06	2.329150e-11	1.583367e+01	1.356395e+00
2.720000e-06	2.157733e-06	2.374480e-11	1.598125e+01	1.370332e+00
2.730000e-06	2.177433e-06	2.557841e-11	1.612716e+01	1.391931e+00
2.740000e-06	2.196947e-06	2.853881e-11	1.627169e+01	1.420606e+00
2.750000e-06	2.216321e-06	3.149791e-11	1.641518e+01	1.455472e+00
2.760000e-06	2.235548e-06	3.352911e-11	1.655758e+01	1.495464e+00
2.770000e-06	2.254633e-06	3.143115e-11	1.669893e+01	1.539435e+00
2.780000e-06	2.273580e-06	2.667743e-11	1.683927e+01	1.586208e+00
2.790000e-06	2.292374e-06	2.419660e-11	1.697847e+01	1.634592e+00
2.800000e-06	2.311039e-06	2.378533e-11	1.711671e+01	1.683383e+00
2.810000e-06	2.329580e-06	2.400193e-11	1.725403e+01	1.731355e+00
2.820000e-06	2.347934e-06	2.429530e-11	1.738997e+01	1.777283e+00
2.830000e-06	2.366047e-06	2.609952e-11	1.752412e+01	1.819988e+00
2.840000e-06	2.383952e-06	3.206214e-11	1.765673e+01	1.858432e+00
2.850000e-06	2.401713e-06	3.757123e-11	1.778829e+01	1.891833e+00
2.860000e-06	2.419330e-06	3.844724e-11	1.791877e+01	1.919795e+00
2.870000e-06	2.436777e-06	3.525978e-11	1.804799e+01	1.942416e+00
2.880000e-06	2.454057e-06	3.343181e-11	1.817597e+01	1.960348e+00
2.890000e-06	2.471187e-06	3.434905e-11	1.830284e+01	1.974789e+00
2.900000e-06	2.488191e-06	3.521912e-11	1.842878e+01	1.987375e+00
