# Temperatura_=_20.0
# Concentracion g/m^3_=_10000.0
# C_Vs_to_Am_M_A/Vsm_=_65563218390.804596
# pendiente_HvsI_1/m_=_3716.3
# ordenada_HvsI_A/m_=_1297.0
# frecuencia_Hz_=_135259.90378668878

Tiempo_(s)	Campo_(V.s)	Magnetizacion_(V.s)	Campo_(kA/m)	Magnetizacion_(A/m)
0.000000e+00	-3.186187e-06	-7.019059e-09	-2.355171e+01	-4.561237e+02
1.000000e-08	-3.186213e-06	-7.023024e-09	-2.355191e+01	-4.562062e+02
2.000000e-08	-3.186056e-06	-7.023496e-09	-2.355074e+01	-4.562744e+02
3.000000e-08	-3.185718e-06	-7.020610e-09	-2.354825e+01	-4.563328e+02
4.000000e-08	-3.185110e-06	-7.019698e-09	-2.354375e+01	-4.563852e+02
5.000000e-08	-3.184213e-06	-7.017208e-09	-2.353713e+01	-4.564348e+02
6.000000e-08	-3.183079e-06	-7.001818e-09	-2.352874e+01	-4.564835e+02
7.000000e-08	-3.181597e-06	-6.993051e-09	-2.351779e+01	-4.565317e+02
8.000000e-08	-3.179688e-06	-7.022734e-09	-2.350367e+01	-4.565787e+02
9.000000e-08	-3.177682e-06	-7.093007e-09	-2.348884e+01	-4.566221e+02
1.000000e-07	-3.175631e-06	-7.138887e-09	-2.347369e+01	-4.566587e+02
1.100000e-07	-3.173295e-06	-6.934191e-09	-2.345642e+01	-4.566847e+02
1.200000e-07	-3.170926e-06	-6.927041e-09	-2.343890e+01	-4.566962e+02
1.300000e-07	-3.168296e-06	-7.050745e-09	-2.341947e+01	-4.566897e+02
1.400000e-07	-3.165160e-06	-7.008039e-09	-2.339629e+01	-4.566627e+02
1.500000e-07	-3.161799e-06	-6.945065e-09	-2.337144e+01	-4.566136e+02
1.600000e-07	-3.158327e-06	-6.956852e-09	-2.334578e+01	-4.565420e+02
1.700000e-07	-3.154641e-06	-7.053015e-09	-2.331853e+01	-4.564488e+02
1.800000e-07	-3.150687e-06	-7.017630e-09	-2.328931e+01	-4.563354e+02
1.900000e-07	-3.146476e-06	-7.080350e-09	-2.325818e+01	-4.562036e+02
2.000000e-07	-3.142018e-06	-7.028079e-09	-2.322523e+01	-4.560551e+02
2.100000e-07	-3.137404e-06	-7.022984e-09	-2.319112e+01	-4.558907e+02
2.200000e-07	-3.132630e-06	-7.026881e-09	-2.315583e+01	-4.557105e+02
2.300000e-07	-3.127589e-06	-7.066784e-09	-2.311857e+01	-4.555132e+02
2.400000e-07	-3.122276e-06	-7.009730e-09	-2.307930e+01	-4.552962e+02
2.500000e-07	-3.116790e-06	-6.993213e-09	-2.303875e+01	-4.550563e+02
2.600000e-07	-3.111066e-06	-6.990383e-09	-2.299644e+01	-4.547892e+02
2.700000e-07	-3.105085e-06	-7.030517e-09	-2.295223e+01	-4.544911e+02
2.800000e-07	-3.098895e-06	-6.997123e-09	-2.290647e+01	-4.541584e+02
2.900000e-07	-3.092537e-06	-6.955049e-09	-2.285947e+01	-4.537888e+02
3.000000e-07	-3.085899e-06	-6.983112e-09	-2.281040e+01	-4.533815e+02
3.100000e-07	-3.079041e-06	-6.972504e-09	-2.275971e+01	-4.529372e+02
3.200000e-07	-3.072059e-06	-6.996826e-09	-2.270810e+01	-4.524585e+02
3.300000e-07	-3.064901e-06	-6.964303e-09	-2.265519e+01	-4.519491e+02
3.400000e-07	-3.057434e-06	-6.948101e-09	-2.259999e+01	-4.514135e+02
3.500000e-07	-3.049694e-06	-6.867781e-09	-2.254278e+01	-4.508567e+02
3.600000e-07	-3.041765e-06	-6.940622e-09	-2.248417e+01	-4.502829e+02
3.700000e-07	-3.033605e-06	-6.954016e-09	-2.242385e+01	-4.496954e+02
3.800000e-07	-3.025172e-06	-6.916603e-09	-2.236152e+01	-4.490959e+02
3.900000e-07	-3.016539e-06	-6.845664e-09	-2.229770e+01	-4.484846e+02
4.000000e-07	-3.007732e-06	-6.914656e-09	-2.223260e+01	-4.478599e+02
4.100000e-07	-2.998677e-06	-6.915079e-09	-2.216568e+01	-4.472191e+02
4.200000e-07	-2.989391e-06	-6.857828e-09	-2.209703e+01	-4.465584e+02
4.300000e-07	-2.979896e-06	-6.810113e-09	-2.202685e+01	-4.458741e+02
4.400000e-07	-2.970235e-06	-6.843389e-09	-2.195544e+01	-4.451628e+02
4.500000e-07	-2.960367e-06	-6.846518e-09	-2.188249e+01	-4.444224e+02
4.600000e-07	-2.950231e-06	-6.819929e-09	-2.180757e+01	-4.436520e+02
4.700000e-07	-2.939765e-06	-6.792686e-09	-2.173020e+01	-4.428524e+02
4.800000e-07	-2.929015e-06	-6.759746e-09	-2.165075e+01	-4.420258e+02
4.900000e-07	-2.918056e-06	-6.764441e-09	-2.156974e+01	-4.411757e+02
5.000000e-07	-2.906900e-06	-6.771656e-09	-2.148728e+01	-4.403061e+02
5.100000e-07	-2.895541e-06	-6.745185e-09	-2.140331e+01	-4.394211e+02
5.200000e-07	-2.883993e-06	-6.685701e-09	-2.131795e+01	-4.385241e+02
5.300000e-07	-2.872202e-06	-6.705271e-09	-2.123079e+01	-4.376176e+02
5.400000e-07	-2.860156e-06	-6.715395e-09	-2.114175e+01	-4.367026e+02
5.500000e-07	-2.847927e-06	-6.686494e-09	-2.105136e+01	-4.357788e+02
5.600000e-07	-2.835530e-06	-6.637450e-09	-2.095972e+01	-4.348445e+02
5.700000e-07	-2.822955e-06	-6.644601e-09	-2.086677e+01	-4.338975e+02
5.800000e-07	-2.810196e-06	-6.644541e-09	-2.077246e+01	-4.329351e+02
5.900000e-07	-2.797258e-06	-6.629562e-09	-2.067682e+01	-4.319549e+02
6.000000e-07	-2.784121e-06	-6.586764e-09	-2.057971e+01	-4.309553e+02
6.100000e-07	-2.770720e-06	-6.561642e-09	-2.048065e+01	-4.299360e+02
6.200000e-07	-2.757076e-06	-6.559155e-09	-2.037980e+01	-4.288976e+02
6.300000e-07	-2.743273e-06	-6.562468e-09	-2.027777e+01	-4.278420e+02
6.400000e-07	-2.729295e-06	-6.530311e-09	-2.017445e+01	-4.267716e+02
6.500000e-07	-2.715106e-06	-6.494499e-09	-2.006957e+01	-4.256892e+02
6.600000e-07	-2.700728e-06	-6.488307e-09	-1.996329e+01	-4.245968e+02
6.700000e-07	-2.686204e-06	-6.482704e-09	-1.985593e+01	-4.234957e+02
6.800000e-07	-2.671504e-06	-6.455016e-09	-1.974727e+01	-4.223852e+02
6.900000e-07	-2.656552e-06	-6.418552e-09	-1.963675e+01	-4.212634e+02
7.000000e-07	-2.641343e-06	-6.406126e-09	-1.952433e+01	-4.201265e+02
7.100000e-07	-2.625949e-06	-6.407310e-09	-1.941054e+01	-4.189694e+02
7.200000e-07	-2.610383e-06	-6.402319e-09	-1.929548e+01	-4.177867e+02
7.300000e-07	-2.594596e-06	-6.368639e-09	-1.917878e+01	-4.165730e+02
7.400000e-07	-2.578554e-06	-6.335807e-09	-1.906020e+01	-4.153238e+02
7.500000e-07	-2.562280e-06	-6.319173e-09	-1.893991e+01	-4.140366e+02
7.600000e-07	-2.545828e-06	-6.302349e-09	-1.881830e+01	-4.127110e+02
7.700000e-07	-2.529196e-06	-6.265225e-09	-1.869535e+01	-4.113489e+02
7.800000e-07	-2.512361e-06	-6.234894e-09	-1.857092e+01	-4.099548e+02
7.900000e-07	-2.495376e-06	-6.224894e-09	-1.844537e+01	-4.085346e+02
8.000000e-07	-2.478304e-06	-6.222882e-09	-1.831918e+01	-4.070953e+02
8.100000e-07	-2.461100e-06	-6.203887e-09	-1.819200e+01	-4.056438e+02
8.200000e-07	-2.443702e-06	-6.168806e-09	-1.806340e+01	-4.041859e+02
8.300000e-07	-2.426140e-06	-6.138319e-09	-1.793359e+01	-4.027257e+02
8.400000e-07	-2.408440e-06	-6.118900e-09	-1.780275e+01	-4.012645e+02
8.500000e-07	-2.390615e-06	-6.095932e-09	-1.767099e+01	-3.998012e+02
8.600000e-07	-2.372612e-06	-6.060723e-09	-1.753792e+01	-3.983318e+02
8.700000e-07	-2.354361e-06	-6.033841e-09	-1.740301e+01	-3.968504e+02
8.800000e-07	-2.335897e-06	-6.018773e-09	-1.726652e+01	-3.953500e+02
8.900000e-07	-2.317282e-06	-6.004229e-09	-1.712892e+01	-3.938233e+02
9.000000e-07	-2.298517e-06	-5.976039e-09	-1.699022e+01	-3.922641e+02
9.100000e-07	-2.279594e-06	-5.940117e-09	-1.685034e+01	-3.906682e+02
9.200000e-07	-2.260516e-06	-5.911824e-09	-1.670932e+01	-3.890336e+02
9.300000e-07	-2.241275e-06	-5.890697e-09	-1.656709e+01	-3.873614e+02
9.400000e-07	-2.221896e-06	-5.859627e-09	-1.642385e+01	-3.856553e+02
9.500000e-07	-2.202377e-06	-5.819895e-09	-1.627957e+01	-3.839213e+02
9.600000e-07	-2.182662e-06	-5.791200e-09	-1.613384e+01	-3.821662e+02
9.700000e-07	-2.162749e-06	-5.774006e-09	-1.598665e+01	-3.803973e+02
9.800000e-07	-2.142668e-06	-5.752399e-09	-1.583822e+01	-3.786210e+02
9.900000e-07	-2.122454e-06	-5.717267e-09	-1.568879e+01	-3.768417e+02
1.000000e-06	-2.102114e-06	-5.681819e-09	-1.553844e+01	-3.750613e+02
1.010000e-06	-2.081626e-06	-5.656437e-09	-1.538700e+01	-3.732789e+02
1.020000e-06	-2.060991e-06	-5.636063e-09	-1.523447e+01	-3.714908e+02
1.030000e-06	-2.040197e-06	-5.604983e-09	-1.508077e+01	-3.696914e+02
1.040000e-06	-2.019261e-06	-5.568916e-09	-1.492601e+01	-3.678736e+02
1.050000e-06	-1.998210e-06	-5.540242e-09	-1.477040e+01	-3.660302e+02
1.060000e-06	-1.977021e-06	-5.518998e-09	-1.461378e+01	-3.641545e+02
1.070000e-06	-1.955648e-06	-5.490281e-09	-1.445579e+01	-3.622419e+02
1.080000e-06	-1.934093e-06	-5.452464e-09	-1.429647e+01	-3.602899e+02
1.090000e-06	-1.912398e-06	-5.415800e-09	-1.413609e+01	-3.582985e+02
1.100000e-06	-1.890598e-06	-5.386433e-09	-1.397496e+01	-3.562705e+02
1.110000e-06	-1.868696e-06	-5.356886e-09	-1.381306e+01	-3.542104e+02
1.120000e-06	-1.846661e-06	-5.321677e-09	-1.365018e+01	-3.521238e+02
1.130000e-06	-1.824495e-06	-5.286531e-09	-1.348633e+01	-3.500169e+02
1.140000e-06	-1.802208e-06	-5.257613e-09	-1.332159e+01	-3.478949e+02
1.150000e-06	-1.779785e-06	-5.230689e-09	-1.315585e+01	-3.457617e+02
1.160000e-06	-1.757228e-06	-5.195173e-09	-1.298911e+01	-3.436191e+02
1.170000e-06	-1.734575e-06	-5.154995e-09	-1.282166e+01	-3.414667e+02
1.180000e-06	-1.711793e-06	-5.117426e-09	-1.265326e+01	-3.393021e+02
1.190000e-06	-1.688826e-06	-5.086398e-09	-1.248350e+01	-3.371215e+02
1.200000e-06	-1.665677e-06	-5.055277e-09	-1.231238e+01	-3.349201e+02
1.210000e-06	-1.642379e-06	-5.020005e-09	-1.214017e+01	-3.326932e+02
1.220000e-06	-1.618980e-06	-4.985012e-09	-1.196721e+01	-3.304370e+02
1.230000e-06	-1.595490e-06	-4.953139e-09	-1.179357e+01	-3.281491e+02
1.240000e-06	-1.571887e-06	-4.916783e-09	-1.161910e+01	-3.258289e+02
1.250000e-06	-1.548161e-06	-4.876027e-09	-1.144372e+01	-3.234777e+02
1.260000e-06	-1.524328e-06	-4.835368e-09	-1.126756e+01	-3.210985e+02
1.270000e-06	-1.500392e-06	-4.801212e-09	-1.109062e+01	-3.186951e+02
1.280000e-06	-1.476362e-06	-4.769460e-09	-1.091300e+01	-3.162719e+02
1.290000e-06	-1.452243e-06	-4.734980e-09	-1.073471e+01	-3.138327e+02
1.300000e-06	-1.428028e-06	-4.696595e-09	-1.055572e+01	-3.113803e+02
1.310000e-06	-1.403728e-06	-4.659629e-09	-1.037610e+01	-3.089155e+02
1.320000e-06	-1.379318e-06	-4.627585e-09	-1.019567e+01	-3.064377e+02
1.330000e-06	-1.354765e-06	-4.594289e-09	-1.001417e+01	-3.039442e+02
1.340000e-06	-1.330078e-06	-4.556113e-09	-9.831695e+00	-3.014308e+02
1.350000e-06	-1.305258e-06	-4.516462e-09	-9.648227e+00	-2.988925e+02
1.360000e-06	-1.280328e-06	-4.480349e-09	-9.463951e+00	-2.963243e+02
1.370000e-06	-1.255333e-06	-4.444320e-09	-9.279193e+00	-2.937217e+02
1.380000e-06	-1.230285e-06	-4.404317e-09	-9.094046e+00	-2.910812e+02
1.390000e-06	-1.205167e-06	-4.360298e-09	-8.908376e+00	-2.884015e+02
1.400000e-06	-1.179973e-06	-4.318760e-09	-8.722143e+00	-2.856826e+02
1.410000e-06	-1.154696e-06	-4.279898e-09	-8.535304e+00	-2.829267e+02
1.420000e-06	-1.129332e-06	-4.239541e-09	-8.347816e+00	-2.801370e+02
1.430000e-06	-1.103902e-06	-4.196399e-09	-8.159841e+00	-2.773177e+02
1.440000e-06	-1.078402e-06	-4.152589e-09	-7.971352e+00	-2.744730e+02
1.450000e-06	-1.052820e-06	-4.110055e-09	-7.782255e+00	-2.716068e+02
1.460000e-06	-1.027164e-06	-4.070101e-09	-7.592612e+00	-2.687216e+02
1.470000e-06	-1.001440e-06	-4.027758e-09	-7.402463e+00	-2.658189e+02
1.480000e-06	-9.756475e-07	-3.983764e-09	-7.211809e+00	-2.628983e+02
1.490000e-06	-9.498006e-07	-3.939721e-09	-7.020753e+00	-2.599583e+02
1.500000e-06	-9.239140e-07	-3.894417e-09	-6.829404e+00	-2.569964e+02
1.510000e-06	-8.979788e-07	-3.846908e-09	-6.637695e+00	-2.540094e+02
1.520000e-06	-8.719694e-07	-3.799935e-09	-6.445439e+00	-2.509943e+02
1.530000e-06	-8.458877e-07	-3.751067e-09	-6.252648e+00	-2.479485e+02
1.540000e-06	-8.197347e-07	-3.700151e-09	-6.059330e+00	-2.448702e+02
1.550000e-06	-7.934882e-07	-3.649077e-09	-5.865320e+00	-2.417588e+02
1.560000e-06	-7.671439e-07	-3.597827e-09	-5.670588e+00	-2.386145e+02
1.570000e-06	-7.407255e-07	-3.549937e-09	-5.475308e+00	-2.354383e+02
1.580000e-06	-7.142523e-07	-3.503475e-09	-5.279623e+00	-2.322316e+02
1.590000e-06	-6.877111e-07	-3.455855e-09	-5.083435e+00	-2.289959e+02
1.600000e-06	-6.611287e-07	-3.405693e-09	-4.886943e+00	-2.257320e+02
1.610000e-06	-6.345332e-07	-3.355905e-09	-4.690354e+00	-2.224402e+02
1.620000e-06	-6.079151e-07	-3.307464e-09	-4.493598e+00	-2.191196e+02
1.630000e-06	-5.812785e-07	-3.258733e-09	-4.296705e+00	-2.157687e+02
1.640000e-06	-5.546174e-07	-3.204383e-09	-4.099631e+00	-2.123851e+02
1.650000e-06	-5.279227e-07	-3.148955e-09	-3.902309e+00	-2.089663e+02
1.660000e-06	-5.012055e-07	-3.096343e-09	-3.704820e+00	-2.055096e+02
1.670000e-06	-4.744664e-07	-3.043818e-09	-3.507169e+00	-2.020131e+02
1.680000e-06	-4.476835e-07	-2.987524e-09	-3.309195e+00	-1.984758e+02
1.690000e-06	-4.208545e-07	-2.932325e-09	-3.110880e+00	-1.948978e+02
1.700000e-06	-3.939733e-07	-2.879388e-09	-2.912179e+00	-1.912802e+02
1.710000e-06	-3.670447e-07	-2.826932e-09	-2.713127e+00	-1.876252e+02
1.720000e-06	-3.400885e-07	-2.774188e-09	-2.513873e+00	-1.839358e+02
1.730000e-06	-3.131028e-07	-2.720633e-09	-2.314399e+00	-1.802151e+02
1.740000e-06	-2.860953e-07	-2.666789e-09	-2.114765e+00	-1.764658e+02
1.750000e-06	-2.590919e-07	-2.609156e-09	-1.915160e+00	-1.726902e+02
1.760000e-06	-2.320848e-07	-2.549405e-09	-1.715529e+00	-1.688892e+02
1.770000e-06	-2.050605e-07	-2.488188e-09	-1.515770e+00	-1.650627e+02
1.780000e-06	-1.780279e-07	-2.428558e-09	-1.315950e+00	-1.612094e+02
1.790000e-06	-1.509719e-07	-2.369656e-09	-1.115957e+00	-1.573272e+02
1.800000e-06	-1.238992e-07	-2.311833e-09	-9.158403e-01	-1.534131e+02
1.810000e-06	-9.683734e-08	-2.254196e-09	-7.158040e-01	-1.494641e+02
1.820000e-06	-6.977160e-08	-2.197101e-09	-5.157390e-01	-1.454777e+02
1.830000e-06	-4.268148e-08	-2.138181e-09	-3.154937e-01	-1.414519e+02
1.840000e-06	-1.558596e-08	-2.075239e-09	-1.152085e-01	-1.373855e+02
1.850000e-06	1.150821e-08	-2.009354e-09	8.506663e-02	-1.332786e+02
1.860000e-06	3.860179e-08	-1.944321e-09	2.853374e-01	-1.291320e+02
1.870000e-06	6.568447e-08	-1.880116e-09	4.855276e-01	-1.249470e+02
1.880000e-06	9.275588e-08	-1.815458e-09	6.856346e-01	-1.207255e+02
1.890000e-06	1.198219e-07	-1.751101e-09	8.857016e-01	-1.164689e+02
1.900000e-06	1.468692e-07	-1.688797e-09	1.085631e+00	-1.121783e+02
1.910000e-06	1.738955e-07	-1.628442e-09	1.285404e+00	-1.078542e+02
1.920000e-06	2.009098e-07	-1.564596e-09	1.485089e+00	-1.034962e+02
1.930000e-06	2.279124e-07	-1.497277e-09	1.684687e+00	-9.910329e+01
1.940000e-06	2.549173e-07	-1.429139e-09	1.884302e+00	-9.467407e+01
1.950000e-06	2.819145e-07	-1.360021e-09	2.083860e+00	-9.020715e+01
1.960000e-06	3.088919e-07	-1.288910e-09	2.283273e+00	-8.570153e+01
1.970000e-06	3.358534e-07	-1.218181e-09	2.482567e+00	-8.115695e+01
1.980000e-06	3.627833e-07	-1.147046e-09	2.681628e+00	-7.657416e+01
1.990000e-06	3.896787e-07	-1.077389e-09	2.880434e+00	-7.195497e+01
2.000000e-06	4.165469e-07	-1.008904e-09	3.079039e+00	-6.730214e+01
2.010000e-06	4.433721e-07	-9.394235e-10	3.277326e+00	-6.261903e+01
2.020000e-06	4.701648e-07	-8.683347e-10	3.475372e+00	-5.790920e+01
2.030000e-06	4.969233e-07	-7.949248e-10	3.673166e+00	-5.317582e+01
2.040000e-06	5.236219e-07	-7.189003e-10	3.870517e+00	-4.842119e+01
2.050000e-06	5.502913e-07	-6.417593e-10	4.067653e+00	-4.364637e+01
2.060000e-06	5.769571e-07	-5.673740e-10	4.264762e+00	-3.885089e+01
2.070000e-06	6.036002e-07	-4.953076e-10	4.461702e+00	-3.403285e+01
2.080000e-06	6.302123e-07	-4.220725e-10	4.658415e+00	-2.918917e+01
2.090000e-06	6.567869e-07	-3.482034e-10	4.854849e+00	-2.431604e+01
2.100000e-06	6.833259e-07	-2.749972e-10	5.051020e+00	-1.940958e+01
2.110000e-06	7.098309e-07	-1.997911e-10	5.246941e+00	-1.446648e+01
2.120000e-06	7.362873e-07	-1.206028e-10	5.442501e+00	-9.484674e+00
2.130000e-06	7.626832e-07	-4.060049e-11	5.637615e+00	-4.463749e+00
2.140000e-06	7.889925e-07	3.825228e-11	5.832089e+00	5.948152e-01
2.150000e-06	8.152128e-07	1.183166e-10	6.025904e+00	5.687710e+00
2.160000e-06	8.413411e-07	1.992815e-10	6.219040e+00	1.081015e+01
2.170000e-06	8.673671e-07	2.797464e-10	6.411420e+00	1.595645e+01
2.180000e-06	8.933130e-07	3.594207e-10	6.603207e+00	2.112078e+01
2.190000e-06	9.191951e-07	4.382925e-10	6.794522e+00	2.629789e+01
2.200000e-06	9.450206e-07	5.155359e-10	6.985420e+00	3.148385e+01
2.210000e-06	9.708054e-07	5.929071e-10	7.176017e+00	3.667652e+01
2.220000e-06	9.965530e-07	6.727315e-10	7.366339e+00	4.187576e+01
2.230000e-06	1.022246e-06	7.536770e-10	7.556259e+00	4.708331e+01
2.240000e-06	1.047865e-06	8.351086e-10	7.745627e+00	5.230244e+01
2.250000e-06	1.073393e-06	9.168609e-10	7.934324e+00	5.753717e+01
2.260000e-06	1.098854e-06	9.981826e-10	8.122526e+00	6.279156e+01
2.270000e-06	1.124260e-06	1.078166e-09	8.310322e+00	6.806876e+01
2.280000e-06	1.149585e-06	1.157893e-09	8.497526e+00	7.337028e+01
2.290000e-06	1.174822e-06	1.237699e-09	8.684069e+00	7.869550e+01
2.300000e-06	1.199972e-06	1.319421e-09	8.869974e+00	8.404135e+01
2.310000e-06	1.225041e-06	1.402839e-09	9.055281e+00	8.940252e+01
2.320000e-06	1.250056e-06	1.485988e-09	9.240184e+00	9.477183e+01
2.330000e-06	1.275031e-06	1.569602e-09	9.424798e+00	1.001410e+02
2.340000e-06	1.299930e-06	1.655206e-09	9.608843e+00	1.055016e+02
2.350000e-06	1.324719e-06	1.742249e-09	9.792085e+00	1.108459e+02
2.360000e-06	1.349373e-06	1.823171e-09	9.974319e+00	1.161678e+02
2.370000e-06	1.373861e-06	1.897496e-09	1.015533e+01	1.214633e+02
2.380000e-06	1.398218e-06	1.970923e-09	1.033537e+01	1.267310e+02
2.390000e-06	1.422476e-06	2.048606e-09	1.051468e+01	1.319720e+02
2.400000e-06	1.446651e-06	2.130128e-09	1.069338e+01	1.371895e+02
2.410000e-06	1.470759e-06	2.215161e-09	1.087158e+01	1.423881e+02
2.420000e-06	1.494761e-06	2.301695e-09	1.104900e+01	1.475730e+02
2.430000e-06	1.518642e-06	2.385891e-09	1.122552e+01	1.527488e+02
2.440000e-06	1.542424e-06	2.465742e-09	1.140132e+01	1.579190e+02
2.450000e-06	1.566091e-06	2.541006e-09	1.157626e+01	1.630852e+02
2.460000e-06	1.589641e-06	2.614233e-09	1.175033e+01	1.682466e+02
2.470000e-06	1.613089e-06	2.688632e-09	1.192366e+01	1.734000e+02
2.480000e-06	1.636428e-06	2.766390e-09	1.209617e+01	1.785400e+02
2.490000e-06	1.659620e-06	2.845669e-09	1.226761e+01	1.836597e+02
2.500000e-06	1.682632e-06	2.927291e-09	1.243771e+01	1.887511e+02
2.510000e-06	1.705463e-06	3.010548e-09	1.260647e+01	1.938065e+02
2.520000e-06	1.728145e-06	3.092345e-09	1.277413e+01	1.988186e+02
2.530000e-06	1.750721e-06	3.167605e-09	1.294101e+01	2.037819e+02
2.540000e-06	1.773218e-06	3.237651e-09	1.310731e+01	2.086924e+02
2.550000e-06	1.795620e-06	3.305660e-09	1.327290e+01	2.135483e+02
2.560000e-06	1.817894e-06	3.374444e-09	1.343754e+01	2.183496e+02
2.570000e-06	1.840031e-06	3.446345e-09	1.360118e+01	2.230981e+02
2.580000e-06	1.862034e-06	3.519092e-09	1.376382e+01	2.277965e+02
2.590000e-06	1.883924e-06	3.591757e-09	1.392562e+01	2.324479e+02
2.600000e-06	1.905729e-06	3.664068e-09	1.408680e+01	2.370554e+02
2.610000e-06	1.927428e-06	3.736972e-09	1.424720e+01	2.416214e+02
2.620000e-06	1.948972e-06	3.809579e-09	1.440645e+01	2.461473e+02
2.630000e-06	1.970303e-06	3.878487e-09	1.456412e+01	2.506332e+02
2.640000e-06	1.991421e-06	3.944308e-09	1.472022e+01	2.550781e+02
2.650000e-06	2.012409e-06	4.008464e-09	1.487536e+01	2.594802e+02
2.660000e-06	2.033285e-06	4.072605e-09	1.502968e+01	2.638366e+02
2.670000e-06	2.054033e-06	4.135705e-09	1.518304e+01	2.681444e+02
2.680000e-06	2.074647e-06	4.197110e-09	1.533541e+01	2.724006e+02
2.690000e-06	2.095102e-06	4.259507e-09	1.548661e+01	2.766026e+02
2.700000e-06	2.115402e-06	4.324258e-09	1.563667e+01	2.807483e+02
2.710000e-06	2.135584e-06	4.388442e-09	1.578585e+01	2.848360e+02
2.720000e-06	2.155626e-06	4.449972e-09	1.593400e+01	2.888649e+02
2.730000e-06	2.175452e-06	4.511951e-09	1.608054e+01	2.928345e+02
2.740000e-06	2.195051e-06	4.573240e-09	1.622541e+01	2.967447e+02
2.750000e-06	2.214498e-06	4.629274e-09	1.636917e+01	3.005955e+02
2.760000e-06	2.233828e-06	4.679132e-09	1.651205e+01	3.043871e+02
2.770000e-06	2.253001e-06	4.729276e-09	1.665378e+01	3.081194e+02
2.780000e-06	2.272018e-06	4.783209e-09	1.679435e+01	3.117924e+02
2.790000e-06	2.290909e-06	4.841448e-09	1.693398e+01	3.154060e+02
2.800000e-06	2.309653e-06	4.898641e-09	1.707253e+01	3.189601e+02
2.810000e-06	2.328259e-06	4.953783e-09	1.721006e+01	3.224548e+02
2.820000e-06	2.346736e-06	5.007095e-09	1.734665e+01	3.258904e+02
2.830000e-06	2.365011e-06	5.054098e-09	1.748173e+01	3.292676e+02
2.840000e-06	2.383029e-06	5.094291e-09	1.761491e+01	3.325872e+02
2.850000e-06	2.400847e-06	5.130812e-09	1.774662e+01	3.358503e+02
2.860000e-06	2.418525e-06	5.170449e-09	1.787730e+01	3.390583e+02
2.870000e-06	2.436057e-06	5.217118e-09	1.800689e+01	3.422121e+02
2.880000e-06	2.453424e-06	5.268828e-09	1.813526e+01	3.453127e+02
2.890000e-06	2.470611e-06	5.318492e-09	1.826231e+01	3.483607e+02
2.900000e-06	2.487654e-06	5.363824e-09	1.838828e+01	3.513561e+02
