# Temperatura_=_20.0
# Concentracion g/m^3_=_10000.0
# C_Vs_to_Am_M_A/Vsm_=_65563218390.804596
# pendiente_HvsI_1/m_=_3716.3
# ordenada_HvsI_A/m_=_1297.0
# frecuencia_Hz_=_135262.5067030411

Tiempo_(s)	Campo_(V.s)	Magnetizacion_(V.s)	Campo_(kA/m)	Magnetizacion_(A/m)
0.000000e+00	-3.195013e-06	-7.015854e-09	-2.355201e+01	-4.567618e+02
1.000000e-08	-3.194992e-06	-7.021336e-09	-2.355186e+01	-4.568607e+02
2.000000e-08	-3.194768e-06	-7.023041e-09	-2.355021e+01	-4.569431e+02
3.000000e-08	-3.194351e-06	-7.021427e-09	-2.354713e+01	-4.570139e+02
4.000000e-08	-3.193653e-06	-7.020810e-09	-2.354199e+01	-4.570760e+02
5.000000e-08	-3.192681e-06	-7.015048e-09	-2.353482e+01	-4.571310e+02
6.000000e-08	-3.191464e-06	-6.999471e-09	-2.352585e+01	-4.571780e+02
7.000000e-08	-3.189867e-06	-6.991699e-09	-2.351408e+01	-4.572141e+02
8.000000e-08	-3.187913e-06	-7.003394e-09	-2.349968e+01	-4.572343e+02
9.000000e-08	-3.185909e-06	-7.067482e-09	-2.348490e+01	-4.572329e+02
1.000000e-07	-3.183756e-06	-7.114869e-09	-2.346903e+01	-4.572039e+02
1.100000e-07	-3.181365e-06	-6.959494e-09	-2.345141e+01	-4.571422e+02
1.200000e-07	-3.178935e-06	-6.994992e-09	-2.343349e+01	-4.570444e+02
1.300000e-07	-3.176149e-06	-7.064535e-09	-2.341296e+01	-4.569099e+02
1.400000e-07	-3.172932e-06	-7.022305e-09	-2.338924e+01	-4.567413e+02
1.500000e-07	-3.169520e-06	-6.979753e-09	-2.336409e+01	-4.565441e+02
1.600000e-07	-3.165973e-06	-6.965943e-09	-2.333794e+01	-4.563264e+02
1.700000e-07	-3.162198e-06	-7.005407e-09	-2.331012e+01	-4.560984e+02
1.800000e-07	-3.158175e-06	-6.969836e-09	-2.328046e+01	-4.558704e+02
1.900000e-07	-3.153891e-06	-7.009186e-09	-2.324889e+01	-4.556521e+02
2.000000e-07	-3.149381e-06	-6.956794e-09	-2.321564e+01	-4.554511e+02
2.100000e-07	-3.144714e-06	-6.960679e-09	-2.318123e+01	-4.552715e+02
2.200000e-07	-3.139844e-06	-6.957995e-09	-2.314533e+01	-4.551133e+02
2.300000e-07	-3.134698e-06	-6.997561e-09	-2.310740e+01	-4.549723e+02
2.400000e-07	-3.129304e-06	-6.952387e-09	-2.306764e+01	-4.548401e+02
2.500000e-07	-3.123726e-06	-6.962127e-09	-2.302652e+01	-4.547053e+02
2.600000e-07	-3.117896e-06	-6.956525e-09	-2.298355e+01	-4.545544e+02
2.700000e-07	-3.111844e-06	-6.972037e-09	-2.293893e+01	-4.543736e+02
2.800000e-07	-3.105598e-06	-6.947876e-09	-2.289289e+01	-4.541505e+02
2.900000e-07	-3.099131e-06	-6.925104e-09	-2.284522e+01	-4.538754e+02
3.000000e-07	-3.092383e-06	-6.942300e-09	-2.279548e+01	-4.535422e+02
3.100000e-07	-3.085448e-06	-6.940810e-09	-2.274436e+01	-4.531494e+02
3.200000e-07	-3.078385e-06	-6.950645e-09	-2.269229e+01	-4.527000e+02
3.300000e-07	-3.071121e-06	-6.914580e-09	-2.263874e+01	-4.522008e+02
3.400000e-07	-3.063541e-06	-6.906508e-09	-2.258287e+01	-4.516613e+02
3.500000e-07	-3.055737e-06	-6.870422e-09	-2.252534e+01	-4.510926e+02
3.600000e-07	-3.047747e-06	-6.909150e-09	-2.246645e+01	-4.505053e+02
3.700000e-07	-3.039493e-06	-6.891413e-09	-2.240560e+01	-4.499088e+02
3.800000e-07	-3.030953e-06	-6.875694e-09	-2.234265e+01	-4.493092e+02
3.900000e-07	-3.022235e-06	-6.840872e-09	-2.227838e+01	-4.487096e+02
4.000000e-07	-3.013339e-06	-6.869883e-09	-2.221281e+01	-4.481088e+02
4.100000e-07	-3.004197e-06	-6.849684e-09	-2.214541e+01	-4.475027e+02
4.200000e-07	-2.994816e-06	-6.826399e-09	-2.207626e+01	-4.468844e+02
4.300000e-07	-2.985235e-06	-6.802244e-09	-2.200563e+01	-4.462456e+02
4.400000e-07	-2.975482e-06	-6.819523e-09	-2.193374e+01	-4.455781e+02
4.500000e-07	-2.965504e-06	-6.808357e-09	-2.186019e+01	-4.448748e+02
4.600000e-07	-2.955251e-06	-6.788775e-09	-2.178461e+01	-4.441309e+02
4.700000e-07	-2.944697e-06	-6.759891e-09	-2.170681e+01	-4.433447e+02
4.800000e-07	-2.933878e-06	-6.742616e-09	-2.162706e+01	-4.425176e+02
4.900000e-07	-2.922851e-06	-6.739911e-09	-2.154577e+01	-4.416538e+02
5.000000e-07	-2.911647e-06	-6.735923e-09	-2.146318e+01	-4.407600e+02
5.100000e-07	-2.900225e-06	-6.716047e-09	-2.137898e+01	-4.398440e+02
5.200000e-07	-2.888572e-06	-6.693507e-09	-2.129309e+01	-4.389137e+02
5.300000e-07	-2.876663e-06	-6.701397e-09	-2.120530e+01	-4.379762e+02
5.400000e-07	-2.864520e-06	-6.688021e-09	-2.111579e+01	-4.370366e+02
5.500000e-07	-2.852193e-06	-6.658248e-09	-2.102492e+01	-4.360980e+02
5.600000e-07	-2.839686e-06	-6.626178e-09	-2.093272e+01	-4.351607e+02
5.700000e-07	-2.826992e-06	-6.623895e-09	-2.083915e+01	-4.342229e+02
5.800000e-07	-2.814139e-06	-6.611504e-09	-2.074441e+01	-4.332811e+02
5.900000e-07	-2.801130e-06	-6.600910e-09	-2.064850e+01	-4.323310e+02
6.000000e-07	-2.787887e-06	-6.576069e-09	-2.055088e+01	-4.313680e+02
6.100000e-07	-2.774351e-06	-6.565303e-09	-2.045111e+01	-4.303883e+02
6.200000e-07	-2.760587e-06	-6.554964e-09	-2.034965e+01	-4.293893e+02
6.300000e-07	-2.746655e-06	-6.546365e-09	-2.024695e+01	-4.283699e+02
6.400000e-07	-2.732543e-06	-6.515102e-09	-2.014292e+01	-4.273304e+02
6.500000e-07	-2.718251e-06	-6.489555e-09	-2.003757e+01	-4.262721e+02
6.600000e-07	-2.703794e-06	-6.472576e-09	-1.993099e+01	-4.251971e+02
6.700000e-07	-2.689178e-06	-6.459597e-09	-1.982326e+01	-4.241071e+02
6.800000e-07	-2.674364e-06	-6.437702e-09	-1.971405e+01	-4.230030e+02
6.900000e-07	-2.659306e-06	-6.422075e-09	-1.960305e+01	-4.218845e+02
7.000000e-07	-2.644002e-06	-6.413725e-09	-1.949024e+01	-4.207499e+02
7.100000e-07	-2.628502e-06	-6.402419e-09	-1.937598e+01	-4.195960e+02
7.200000e-07	-2.612816e-06	-6.381574e-09	-1.926035e+01	-4.184187e+02
7.300000e-07	-2.596906e-06	-6.349681e-09	-1.914307e+01	-4.172132e+02
7.400000e-07	-2.580760e-06	-6.320238e-09	-1.902405e+01	-4.159752e+02
7.500000e-07	-2.564399e-06	-6.301096e-09	-1.890345e+01	-4.147015e+02
7.600000e-07	-2.547861e-06	-6.285171e-09	-1.878154e+01	-4.133903e+02
7.700000e-07	-2.531137e-06	-6.260677e-09	-1.865826e+01	-4.120421e+02
7.800000e-07	-2.514226e-06	-6.241726e-09	-1.853360e+01	-4.106593e+02
7.900000e-07	-2.497181e-06	-6.228780e-09	-1.840795e+01	-4.092461e+02
8.000000e-07	-2.480017e-06	-6.215866e-09	-1.828143e+01	-4.078080e+02
8.100000e-07	-2.462705e-06	-6.189095e-09	-1.815381e+01	-4.063509e+02
8.200000e-07	-2.445212e-06	-6.157623e-09	-1.802486e+01	-4.048805e+02
8.300000e-07	-2.427552e-06	-6.128174e-09	-1.789468e+01	-4.034008e+02
8.400000e-07	-2.409764e-06	-6.108405e-09	-1.776356e+01	-4.019145e+02
8.500000e-07	-2.391840e-06	-6.085925e-09	-1.763143e+01	-4.004218e+02
8.600000e-07	-2.373686e-06	-6.062369e-09	-1.749761e+01	-3.989208e+02
8.700000e-07	-2.355283e-06	-6.039492e-09	-1.736195e+01	-3.974078e+02
8.800000e-07	-2.336717e-06	-6.020530e-09	-1.722509e+01	-3.958778e+02
8.900000e-07	-2.318016e-06	-5.996795e-09	-1.708724e+01	-3.943256e+02
9.000000e-07	-2.299161e-06	-5.965585e-09	-1.694825e+01	-3.927464e+02
9.100000e-07	-2.280145e-06	-5.930547e-09	-1.680807e+01	-3.911371e+02
9.200000e-07	-2.260974e-06	-5.902229e-09	-1.666676e+01	-3.894961e+02
9.300000e-07	-2.241656e-06	-5.880619e-09	-1.652435e+01	-3.878243e+02
9.400000e-07	-2.222210e-06	-5.855812e-09	-1.638100e+01	-3.861245e+02
9.500000e-07	-2.202604e-06	-5.827304e-09	-1.623648e+01	-3.844014e+02
9.600000e-07	-2.182800e-06	-5.803841e-09	-1.609049e+01	-3.826604e+02
9.700000e-07	-2.162808e-06	-5.783280e-09	-1.594312e+01	-3.809071e+02
9.800000e-07	-2.142653e-06	-5.752377e-09	-1.579455e+01	-3.791463e+02
9.900000e-07	-2.122352e-06	-5.714495e-09	-1.564490e+01	-3.773811e+02
1.000000e-06	-2.101883e-06	-5.679787e-09	-1.549402e+01	-3.756125e+02
1.010000e-06	-2.081267e-06	-5.654787e-09	-1.534204e+01	-3.738392e+02
1.020000e-06	-2.060519e-06	-5.631625e-09	-1.518910e+01	-3.720576e+02
1.030000e-06	-2.039632e-06	-5.605445e-09	-1.503513e+01	-3.702624e+02
1.040000e-06	-2.018636e-06	-5.578239e-09	-1.488036e+01	-3.684475e+02
1.050000e-06	-1.997518e-06	-5.553893e-09	-1.472469e+01	-3.666065e+02
1.060000e-06	-1.976225e-06	-5.527276e-09	-1.456773e+01	-3.647339e+02
1.070000e-06	-1.954741e-06	-5.493470e-09	-1.440936e+01	-3.628259e+02
1.080000e-06	-1.933077e-06	-5.454496e-09	-1.424966e+01	-3.608803e+02
1.090000e-06	-1.911285e-06	-5.418837e-09	-1.408902e+01	-3.588975e+02
1.100000e-06	-1.889386e-06	-5.389838e-09	-1.392759e+01	-3.568796e+02
1.110000e-06	-1.867368e-06	-5.360460e-09	-1.376529e+01	-3.548304e+02
1.120000e-06	-1.845225e-06	-5.328934e-09	-1.360206e+01	-3.527542e+02
1.130000e-06	-1.822954e-06	-5.299544e-09	-1.343789e+01	-3.506556e+02
1.140000e-06	-1.800562e-06	-5.272923e-09	-1.327283e+01	-3.485382e+02
1.150000e-06	-1.778047e-06	-5.241451e-09	-1.310686e+01	-3.464044e+02
1.160000e-06	-1.755425e-06	-5.200240e-09	-1.294010e+01	-3.442547e+02
1.170000e-06	-1.732682e-06	-5.157777e-09	-1.277245e+01	-3.420879e+02
1.180000e-06	-1.709782e-06	-5.121859e-09	-1.260364e+01	-3.399012e+02
1.190000e-06	-1.686694e-06	-5.091054e-09	-1.243345e+01	-3.376908e+02
1.200000e-06	-1.663441e-06	-5.058360e-09	-1.226204e+01	-3.354525e+02
1.210000e-06	-1.640059e-06	-5.025988e-09	-1.208968e+01	-3.331826e+02
1.220000e-06	-1.616554e-06	-4.997649e-09	-1.191641e+01	-3.308784e+02
1.230000e-06	-1.592926e-06	-4.967944e-09	-1.174224e+01	-3.285386e+02
1.240000e-06	-1.569207e-06	-4.929873e-09	-1.156740e+01	-3.261638e+02
1.250000e-06	-1.545397e-06	-4.885715e-09	-1.139188e+01	-3.237562e+02
1.260000e-06	-1.521454e-06	-4.841776e-09	-1.121539e+01	-3.213195e+02
1.270000e-06	-1.497409e-06	-4.802563e-09	-1.103814e+01	-3.188579e+02
1.280000e-06	-1.473290e-06	-4.764246e-09	-1.086034e+01	-3.163758e+02
1.290000e-06	-1.449078e-06	-4.726086e-09	-1.068187e+01	-3.138771e+02
1.300000e-06	-1.424782e-06	-4.687890e-09	-1.050277e+01	-3.113644e+02
1.310000e-06	-1.400379e-06	-4.653243e-09	-1.032289e+01	-3.088385e+02
1.320000e-06	-1.375826e-06	-4.622608e-09	-1.014189e+01	-3.062989e+02
1.330000e-06	-1.351134e-06	-4.586385e-09	-9.959877e+00	-3.037432e+02
1.340000e-06	-1.326331e-06	-4.544190e-09	-9.777035e+00	-3.011680e+02
1.350000e-06	-1.301417e-06	-4.500548e-09	-9.593382e+00	-2.985690e+02
1.360000e-06	-1.276438e-06	-4.459702e-09	-9.409252e+00	-2.959424e+02
1.370000e-06	-1.251402e-06	-4.420515e-09	-9.224698e+00	-2.932846e+02
1.380000e-06	-1.226275e-06	-4.379961e-09	-9.039475e+00	-2.905936e+02
1.390000e-06	-1.201069e-06	-4.339418e-09	-8.853671e+00	-2.878686e+02
1.400000e-06	-1.175796e-06	-4.301847e-09	-8.667369e+00	-2.851105e+02
1.410000e-06	-1.150436e-06	-4.262941e-09	-8.480432e+00	-2.823217e+02
1.420000e-06	-1.124981e-06	-4.219837e-09	-8.292789e+00	-2.795055e+02
1.430000e-06	-1.099446e-06	-4.174992e-09	-8.104555e+00	-2.766656e+02
1.440000e-06	-1.073846e-06	-4.131315e-09	-7.915846e+00	-2.738057e+02
1.450000e-06	-1.048187e-06	-4.088402e-09	-7.726701e+00	-2.709289e+02
1.460000e-06	-1.022458e-06	-4.045577e-09	-7.537039e+00	-2.680370e+02
1.470000e-06	-9.966689e-07	-4.001877e-09	-7.346937e+00	-2.651307e+02
1.480000e-06	-9.708322e-07	-3.959013e-09	-7.156482e+00	-2.622093e+02
1.490000e-06	-9.449364e-07	-3.916189e-09	-6.965591e+00	-2.592708e+02
1.500000e-06	-9.189963e-07	-3.869040e-09	-6.774374e+00	-2.563127e+02
1.510000e-06	-8.929893e-07	-3.817488e-09	-6.582664e+00	-2.533317e+02
1.520000e-06	-8.668797e-07	-3.769577e-09	-6.390197e+00	-2.503248e+02
1.530000e-06	-8.406968e-07	-3.726013e-09	-6.197190e+00	-2.472895e+02
1.540000e-06	-8.144203e-07	-3.682210e-09	-6.003493e+00	-2.442239e+02
1.550000e-06	-7.880481e-07	-3.634539e-09	-5.809090e+00	-2.411268e+02
1.560000e-06	-7.616108e-07	-3.583929e-09	-5.614208e+00	-2.379979e+02
1.570000e-06	-7.351066e-07	-3.533755e-09	-5.418832e+00	-2.348375e+02
1.580000e-06	-7.085616e-07	-3.480546e-09	-5.223157e+00	-2.316459e+02
1.590000e-06	-6.819861e-07	-3.428381e-09	-5.027255e+00	-2.284234e+02
1.600000e-06	-6.553766e-07	-3.377848e-09	-4.831103e+00	-2.251701e+02
1.610000e-06	-6.287326e-07	-3.329459e-09	-4.634698e+00	-2.218852e+02
1.620000e-06	-6.020476e-07	-3.283841e-09	-4.437989e+00	-2.185676e+02
1.630000e-06	-5.753149e-07	-3.236794e-09	-4.240929e+00	-2.152153e+02
1.640000e-06	-5.485548e-07	-3.184414e-09	-4.043668e+00	-2.118261e+02
1.650000e-06	-5.217778e-07	-3.128241e-09	-3.846281e+00	-2.083980e+02
1.660000e-06	-4.949665e-07	-3.074154e-09	-3.648642e+00	-2.049289e+02
1.670000e-06	-4.681234e-07	-3.020171e-09	-3.450768e+00	-2.014178e+02
1.680000e-06	-4.412379e-07	-2.965083e-09	-3.252582e+00	-1.978642e+02
1.690000e-06	-4.143139e-07	-2.911588e-09	-3.054112e+00	-1.942688e+02
1.700000e-06	-3.873656e-07	-2.859404e-09	-2.855463e+00	-1.906330e+02
1.710000e-06	-3.603597e-07	-2.806624e-09	-2.656389e+00	-1.869592e+02
1.720000e-06	-3.333114e-07	-2.753919e-09	-2.457002e+00	-1.832499e+02
1.730000e-06	-3.062463e-07	-2.699040e-09	-2.257492e+00	-1.795080e+02
1.740000e-06	-2.791534e-07	-2.641769e-09	-2.057777e+00	-1.757357e+02
1.750000e-06	-2.520541e-07	-2.583265e-09	-1.858015e+00	-1.719347e+02
1.760000e-06	-2.249447e-07	-2.523013e-09	-1.658178e+00	-1.681061e+02
1.770000e-06	-1.978227e-07	-2.459992e-09	-1.458249e+00	-1.642496e+02
1.780000e-06	-1.706964e-07	-2.397877e-09	-1.258287e+00	-1.603646e+02
1.790000e-06	-1.435522e-07	-2.339919e-09	-1.058194e+00	-1.564495e+02
1.800000e-06	-1.163958e-07	-2.283999e-09	-8.580108e-01	-1.525025e+02
1.810000e-06	-8.924965e-08	-2.227044e-09	-6.579031e-01	-1.485218e+02
1.820000e-06	-6.210170e-08	-2.169730e-09	-4.577822e-01	-1.445061e+02
1.830000e-06	-3.494621e-08	-2.111925e-09	-2.576057e-01	-1.404543e+02
1.840000e-06	-7.782501e-09	-2.049120e-09	-5.736865e-02	-1.363662e+02
1.850000e-06	1.940311e-08	-1.983612e-09	1.430299e-01	-1.322419e+02
1.860000e-06	4.659491e-08	-1.918960e-09	3.434740e-01	-1.280823e+02
1.870000e-06	7.376726e-08	-1.856108e-09	5.437748e-01	-1.238885e+02
1.880000e-06	1.009124e-07	-1.792938e-09	7.438751e-01	-1.196615e+02
1.890000e-06	1.280394e-07	-1.727820e-09	9.438411e-01	-1.154021e+02
1.900000e-06	1.551534e-07	-1.663807e-09	1.143712e+00	-1.111108e+02
1.910000e-06	1.822553e-07	-1.602502e-09	1.343493e+00	-1.067878e+02
1.920000e-06	2.093624e-07	-1.537615e-09	1.543313e+00	-1.024326e+02
1.930000e-06	2.364601e-07	-1.467142e-09	1.743064e+00	-9.804466e+01
1.940000e-06	2.635126e-07	-1.397205e-09	1.942481e+00	-9.362331e+01
1.950000e-06	2.905537e-07	-1.328514e-09	2.141814e+00	-8.916812e+01
1.960000e-06	3.175843e-07	-1.259675e-09	2.341070e+00	-8.467908e+01
1.970000e-06	3.445940e-07	-1.190294e-09	2.540172e+00	-8.015674e+01
1.980000e-06	3.715801e-07	-1.120076e-09	2.739100e+00	-7.560224e+01
1.990000e-06	3.985255e-07	-1.052766e-09	2.937727e+00	-7.101717e+01
2.000000e-06	4.254409e-07	-9.871107e-10	3.136134e+00	-6.640338e+01
2.010000e-06	4.523370e-07	-9.180059e-10	3.334399e+00	-6.176269e+01
2.020000e-06	4.792067e-07	-8.449667e-10	3.532469e+00	-5.709648e+01
2.030000e-06	5.060178e-07	-7.713336e-10	3.730107e+00	-5.240545e+01
2.040000e-06	5.327796e-07	-6.977870e-10	3.927380e+00	-4.768939e+01
2.050000e-06	5.595177e-07	-6.222524e-10	4.124481e+00	-4.294709e+01
2.060000e-06	5.862322e-07	-5.479394e-10	4.321406e+00	-3.817647e+01
2.070000e-06	6.129126e-07	-4.766835e-10	4.518081e+00	-3.337484e+01
2.080000e-06	6.395459e-07	-4.045750e-10	4.714408e+00	-2.853933e+01
2.090000e-06	6.661439e-07	-3.291460e-10	4.910475e+00	-2.366735e+01
2.100000e-06	6.927210e-07	-2.516550e-10	5.106387e+00	-1.875710e+01
2.110000e-06	7.192767e-07	-1.756569e-10	5.302142e+00	-1.380801e+01
2.120000e-06	7.457798e-07	-1.012441e-10	5.497510e+00	-8.820948e+00
2.130000e-06	7.722051e-07	-2.563546e-11	5.692304e+00	-3.798316e+00
2.140000e-06	7.985653e-07	5.196044e-11	5.886618e+00	1.256127e+00
2.150000e-06	8.248438e-07	1.318490e-10	6.080329e+00	6.337656e+00
2.160000e-06	8.510334e-07	2.108988e-10	6.273386e+00	1.144113e+01
2.170000e-06	8.771409e-07	2.877401e-10	6.465837e+00	1.656163e+01
2.180000e-06	9.031589e-07	3.656135e-10	6.657629e+00	2.169507e+01
2.190000e-06	9.290876e-07	4.456051e-10	6.848762e+00	2.683879e+01
2.200000e-06	9.549517e-07	5.249298e-10	7.039419e+00	3.199178e+01
2.210000e-06	9.807679e-07	6.021204e-10	7.229723e+00	3.715489e+01
2.220000e-06	1.006532e-06	6.797764e-10	7.419639e+00	4.233057e+01
2.230000e-06	1.032246e-06	7.604105e-10	7.609194e+00	4.752243e+01
2.240000e-06	1.057899e-06	8.425133e-10	7.798294e+00	5.273465e+01
2.250000e-06	1.083489e-06	9.226184e-10	7.986930e+00	5.797121e+01
2.260000e-06	1.109010e-06	1.000006e-09	8.175061e+00	6.323514e+01
2.270000e-06	1.134439e-06	1.078103e-09	8.362510e+00	6.852787e+01
2.280000e-06	1.159788e-06	1.159723e-09	8.549365e+00	7.384881e+01
2.290000e-06	1.185056e-06	1.242236e-09	8.735633e+00	7.919515e+01
2.300000e-06	1.210238e-06	1.323220e-09	8.921261e+00	8.456198e+01
2.310000e-06	1.235353e-06	1.404206e-09	9.106393e+00	8.994267e+01
2.320000e-06	1.260410e-06	1.486768e-09	9.291103e+00	9.532948e+01
2.330000e-06	1.285405e-06	1.569809e-09	9.475349e+00	1.007143e+02
2.340000e-06	1.310324e-06	1.654684e-09	9.659041e+00	1.060894e+02
2.350000e-06	1.335145e-06	1.738644e-09	9.842007e+00	1.114482e+02
2.360000e-06	1.359835e-06	1.820003e-09	1.002401e+01	1.167858e+02
2.370000e-06	1.384370e-06	1.901460e-09	1.020487e+01	1.220990e+02
2.380000e-06	1.408752e-06	1.980771e-09	1.038460e+01	1.273867e+02
2.390000e-06	1.433034e-06	2.059567e-09	1.056360e+01	1.326496e+02
2.400000e-06	1.457254e-06	2.138466e-09	1.074214e+01	1.378895e+02
2.410000e-06	1.481391e-06	2.217948e-09	1.092006e+01	1.431090e+02
2.420000e-06	1.505432e-06	2.298603e-09	1.109728e+01	1.483105e+02
2.430000e-06	1.529369e-06	2.377437e-09	1.127373e+01	1.534962e+02
2.440000e-06	1.553189e-06	2.453717e-09	1.144932e+01	1.586671e+02
2.450000e-06	1.576891e-06	2.528406e-09	1.162404e+01	1.638230e+02
2.460000e-06	1.600478e-06	2.604264e-09	1.179791e+01	1.689623e+02
2.470000e-06	1.623949e-06	2.681222e-09	1.197093e+01	1.740822e+02
2.480000e-06	1.647304e-06	2.758801e-09	1.214309e+01	1.791790e+02
2.490000e-06	1.670543e-06	2.837084e-09	1.231439e+01	1.842484e+02
2.500000e-06	1.693613e-06	2.916267e-09	1.248446e+01	1.892861e+02
2.510000e-06	1.716485e-06	2.995233e-09	1.265306e+01	1.942881e+02
2.520000e-06	1.739199e-06	3.071522e-09	1.282049e+01	1.992509e+02
2.530000e-06	1.761806e-06	3.144139e-09	1.298714e+01	2.041719e+02
2.540000e-06	1.784326e-06	3.214788e-09	1.315315e+01	2.090494e+02
2.550000e-06	1.806743e-06	3.285559e-09	1.331839e+01	2.138823e+02
2.560000e-06	1.829043e-06	3.356779e-09	1.348278e+01	2.186702e+02
2.570000e-06	1.851211e-06	3.430111e-09	1.364619e+01	2.234129e+02
2.580000e-06	1.873244e-06	3.504501e-09	1.380860e+01	2.281104e+02
2.590000e-06	1.895160e-06	3.578555e-09	1.397016e+01	2.327625e+02
2.600000e-06	1.916970e-06	3.649689e-09	1.413093e+01	2.373688e+02
2.610000e-06	1.938686e-06	3.716583e-09	1.429101e+01	2.419287e+02
2.620000e-06	1.960239e-06	3.781792e-09	1.444988e+01	2.464410e+02
2.630000e-06	1.981577e-06	3.847443e-09	1.460718e+01	2.509047e+02
2.640000e-06	2.002737e-06	3.911766e-09	1.476316e+01	2.553186e+02
2.650000e-06	2.023762e-06	3.974770e-09	1.491815e+01	2.596818e+02
2.660000e-06	2.044671e-06	4.039857e-09	1.507228e+01	2.639932e+02
2.670000e-06	2.065451e-06	4.106606e-09	1.522546e+01	2.682522e+02
2.680000e-06	2.086084e-06	4.172354e-09	1.537755e+01	2.724583e+02
2.690000e-06	2.106554e-06	4.236543e-09	1.552845e+01	2.766110e+02
2.700000e-06	2.126899e-06	4.298254e-09	1.567842e+01	2.807099e+02
2.710000e-06	2.147129e-06	4.357092e-09	1.582754e+01	2.847544e+02
2.720000e-06	2.167187e-06	4.417501e-09	1.597540e+01	2.887435e+02
2.730000e-06	2.187042e-06	4.475258e-09	1.612177e+01	2.926761e+02
2.740000e-06	2.206696e-06	4.528913e-09	1.626664e+01	2.965510e+02
2.750000e-06	2.226171e-06	4.581473e-09	1.641020e+01	3.003667e+02
2.760000e-06	2.245509e-06	4.634545e-09	1.655275e+01	3.041219e+02
2.770000e-06	2.264701e-06	4.690376e-09	1.669423e+01	3.078156e+02
2.780000e-06	2.283725e-06	4.746955e-09	1.683446e+01	3.114473e+02
2.790000e-06	2.302605e-06	4.804622e-09	1.697364e+01	3.150172e+02
2.800000e-06	2.321355e-06	4.861731e-09	1.711185e+01	3.185260e+02
2.810000e-06	2.339975e-06	4.916386e-09	1.724911e+01	3.219753e+02
2.820000e-06	2.358424e-06	4.965180e-09	1.738510e+01	3.253670e+02
2.830000e-06	2.376650e-06	5.006560e-09	1.751945e+01	3.287031e+02
2.840000e-06	2.394669e-06	5.045732e-09	1.765228e+01	3.319858e+02
2.850000e-06	2.412518e-06	5.087444e-09	1.778386e+01	3.352166e+02
2.860000e-06	2.430224e-06	5.131824e-09	1.791437e+01	3.383964e+02
2.870000e-06	2.447766e-06	5.180380e-09	1.804369e+01	3.415256e+02
2.880000e-06	2.465118e-06	5.233479e-09	1.817159e+01	3.446033e+02
2.890000e-06	2.482300e-06	5.284090e-09	1.829825e+01	3.476283e+02
2.900000e-06	2.499353e-06	5.327633e-09	1.842396e+01	3.505990e+02
