# Temperatura_=_20.0
# Concentracion g/m^3_=_10000.0
# C_Vs_to_Am_M_A/Vsm_=_65563218390.804596
# pendiente_HvsI_1/m_=_3716.3
# ordenada_HvsI_A/m_=_1297.0
# frecuencia_Hz_=_135260.16752366212

Tiempo_(s)	Campo_(V.s)	Magnetizacion_(V.s)	Campo_(kA/m)	Magnetizacion_(A/m)
0.000000e+00	-3.190289e-06	-7.028011e-09	-2.355338e+01	-4.559907e+02
1.000000e-08	-3.190256e-06	-7.033944e-09	-2.355313e+01	-4.560842e+02
2.000000e-08	-3.190023e-06	-7.034689e-09	-2.355142e+01	-4.561651e+02
3.000000e-08	-3.189592e-06	-7.035257e-09	-2.354823e+01	-4.562360e+02
4.000000e-08	-3.188898e-06	-7.039518e-09	-2.354311e+01	-4.562980e+02
5.000000e-08	-3.187958e-06	-7.038331e-09	-2.353617e+01	-4.563506e+02
6.000000e-08	-3.186766e-06	-7.026314e-09	-2.352737e+01	-4.563923e+02
7.000000e-08	-3.185160e-06	-7.029584e-09	-2.351551e+01	-4.564205e+02
8.000000e-08	-3.183175e-06	-7.057021e-09	-2.350086e+01	-4.564320e+02
9.000000e-08	-3.181198e-06	-7.091281e-09	-2.348626e+01	-4.564238e+02
1.000000e-07	-3.178997e-06	-7.078555e-09	-2.347001e+01	-4.563935e+02
1.100000e-07	-3.176583e-06	-6.926596e-09	-2.345219e+01	-4.563402e+02
1.200000e-07	-3.174208e-06	-7.031944e-09	-2.343466e+01	-4.562642e+02
1.300000e-07	-3.171410e-06	-7.050884e-09	-2.341400e+01	-4.561679e+02
1.400000e-07	-3.168214e-06	-7.005336e-09	-2.339041e+01	-4.560551e+02
1.500000e-07	-3.164836e-06	-6.976960e-09	-2.336546e+01	-4.559306e+02
1.600000e-07	-3.161291e-06	-7.006035e-09	-2.333930e+01	-4.557998e+02
1.700000e-07	-3.157509e-06	-7.009719e-09	-2.331137e+01	-4.556678e+02
1.800000e-07	-3.153497e-06	-6.991744e-09	-2.328175e+01	-4.555383e+02
1.900000e-07	-3.149209e-06	-7.016989e-09	-2.325010e+01	-4.554132e+02
2.000000e-07	-3.144702e-06	-6.984229e-09	-2.321682e+01	-4.552922e+02
2.100000e-07	-3.140039e-06	-6.998903e-09	-2.318239e+01	-4.551720e+02
2.200000e-07	-3.135212e-06	-7.009315e-09	-2.314675e+01	-4.550470e+02
2.300000e-07	-3.130100e-06	-6.996051e-09	-2.310901e+01	-4.549097e+02
2.400000e-07	-3.124732e-06	-6.943221e-09	-2.306938e+01	-4.547511e+02
2.500000e-07	-3.119169e-06	-6.965727e-09	-2.302831e+01	-4.545621e+02
2.600000e-07	-3.113344e-06	-6.968560e-09	-2.298531e+01	-4.543343e+02
2.700000e-07	-3.107293e-06	-6.987401e-09	-2.294063e+01	-4.540611e+02
2.800000e-07	-3.101075e-06	-6.927613e-09	-2.289472e+01	-4.537381e+02
2.900000e-07	-3.094626e-06	-6.933943e-09	-2.284711e+01	-4.533641e+02
3.000000e-07	-3.087879e-06	-6.915885e-09	-2.279730e+01	-4.529407e+02
3.100000e-07	-3.080966e-06	-6.944069e-09	-2.274626e+01	-4.524723e+02
3.200000e-07	-3.073931e-06	-6.935771e-09	-2.269433e+01	-4.519652e+02
3.300000e-07	-3.066685e-06	-6.916327e-09	-2.264083e+01	-4.514268e+02
3.400000e-07	-3.059112e-06	-6.857287e-09	-2.258492e+01	-4.508648e+02
3.500000e-07	-3.051328e-06	-6.870942e-09	-2.252745e+01	-4.502859e+02
3.600000e-07	-3.043349e-06	-6.911289e-09	-2.246855e+01	-4.496953e+02
3.700000e-07	-3.035118e-06	-6.883634e-09	-2.240778e+01	-4.490958e+02
3.800000e-07	-3.026584e-06	-6.828379e-09	-2.234478e+01	-4.484883e+02
3.900000e-07	-3.017883e-06	-6.833877e-09	-2.228053e+01	-4.478712e+02
4.000000e-07	-3.009000e-06	-6.868722e-09	-2.221495e+01	-4.472413e+02
4.100000e-07	-2.999885e-06	-6.823680e-09	-2.214765e+01	-4.465946e+02
4.200000e-07	-2.990543e-06	-6.785652e-09	-2.207869e+01	-4.459269e+02
4.300000e-07	-2.981013e-06	-6.777859e-09	-2.200833e+01	-4.452346e+02
4.400000e-07	-2.971280e-06	-6.803702e-09	-2.193647e+01	-4.445154e+02
4.500000e-07	-2.961346e-06	-6.782619e-09	-2.186313e+01	-4.437688e+02
4.600000e-07	-2.951134e-06	-6.766376e-09	-2.178773e+01	-4.429958e+02
4.700000e-07	-2.940590e-06	-6.724719e-09	-2.170989e+01	-4.421991e+02
4.800000e-07	-2.929804e-06	-6.715227e-09	-2.163026e+01	-4.413823e+02
4.900000e-07	-2.918812e-06	-6.712422e-09	-2.154911e+01	-4.405495e+02
5.000000e-07	-2.907617e-06	-6.704598e-09	-2.146646e+01	-4.397043e+02
5.100000e-07	-2.896213e-06	-6.657074e-09	-2.138227e+01	-4.388494e+02
5.200000e-07	-2.884615e-06	-6.653314e-09	-2.129664e+01	-4.379859e+02
5.300000e-07	-2.872770e-06	-6.675969e-09	-2.120919e+01	-4.371135e+02
5.400000e-07	-2.860688e-06	-6.663204e-09	-2.111999e+01	-4.362300e+02
5.500000e-07	-2.848424e-06	-6.621418e-09	-2.102945e+01	-4.353322e+02
5.600000e-07	-2.835975e-06	-6.602950e-09	-2.093754e+01	-4.344163e+02
5.700000e-07	-2.823319e-06	-6.603636e-09	-2.084410e+01	-4.334784e+02
5.800000e-07	-2.810494e-06	-6.587536e-09	-2.074941e+01	-4.325151e+02
5.900000e-07	-2.797505e-06	-6.562535e-09	-2.065352e+01	-4.315247e+02
6.000000e-07	-2.784291e-06	-6.530865e-09	-2.055597e+01	-4.305066e+02
6.100000e-07	-2.770779e-06	-6.524625e-09	-2.045621e+01	-4.294620e+02
6.200000e-07	-2.757036e-06	-6.526789e-09	-2.035475e+01	-4.283935e+02
6.300000e-07	-2.743139e-06	-6.514426e-09	-2.025214e+01	-4.273045e+02
6.400000e-07	-2.729068e-06	-6.474315e-09	-2.014826e+01	-4.261987e+02
6.500000e-07	-2.714787e-06	-6.457236e-09	-2.004283e+01	-4.250794e+02
6.600000e-07	-2.700312e-06	-6.452089e-09	-1.993596e+01	-4.239486e+02
6.700000e-07	-2.685708e-06	-6.435454e-09	-1.982814e+01	-4.228070e+02
6.800000e-07	-2.670932e-06	-6.400095e-09	-1.971905e+01	-4.216536e+02
6.900000e-07	-2.655870e-06	-6.379454e-09	-1.960785e+01	-4.204856e+02
7.000000e-07	-2.640567e-06	-6.373497e-09	-1.949487e+01	-4.192993e+02
7.100000e-07	-2.625101e-06	-6.367588e-09	-1.938069e+01	-4.180903e+02
7.200000e-07	-2.609465e-06	-6.343466e-09	-1.926525e+01	-4.168545e+02
7.300000e-07	-2.593611e-06	-6.311776e-09	-1.914820e+01	-4.155886e+02
7.400000e-07	-2.577485e-06	-6.295913e-09	-1.902915e+01	-4.142912e+02
7.500000e-07	-2.561134e-06	-6.286813e-09	-1.890843e+01	-4.129626e+02
7.600000e-07	-2.544613e-06	-6.263506e-09	-1.878646e+01	-4.116054e+02
7.700000e-07	-2.527898e-06	-6.228374e-09	-1.866306e+01	-4.102238e+02
7.800000e-07	-2.511001e-06	-6.206667e-09	-1.853831e+01	-4.088236e+02
7.900000e-07	-2.493986e-06	-6.195804e-09	-1.841269e+01	-4.074106e+02
8.000000e-07	-2.476860e-06	-6.181054e-09	-1.828625e+01	-4.059906e+02
8.100000e-07	-2.459577e-06	-6.151289e-09	-1.815865e+01	-4.045678e+02
8.200000e-07	-2.442108e-06	-6.123063e-09	-1.802968e+01	-4.031446e+02
8.300000e-07	-2.424466e-06	-6.104460e-09	-1.789943e+01	-4.017210e+02
8.400000e-07	-2.406686e-06	-6.088266e-09	-1.776817e+01	-4.002945e+02
8.500000e-07	-2.388788e-06	-6.062922e-09	-1.763603e+01	-3.988605e+02
8.600000e-07	-2.370691e-06	-6.034910e-09	-1.750242e+01	-3.974132e+02
8.700000e-07	-2.352341e-06	-6.017206e-09	-1.736695e+01	-3.959457e+02
8.800000e-07	-2.333807e-06	-6.001623e-09	-1.723011e+01	-3.944519e+02
8.900000e-07	-2.315136e-06	-5.975968e-09	-1.709227e+01	-3.929267e+02
9.000000e-07	-2.296308e-06	-5.939224e-09	-1.695326e+01	-3.913670e+02
9.100000e-07	-2.277313e-06	-5.906039e-09	-1.681303e+01	-3.897721e+02
9.200000e-07	-2.258158e-06	-5.884213e-09	-1.667161e+01	-3.881439e+02
9.300000e-07	-2.238858e-06	-5.861294e-09	-1.652912e+01	-3.864863e+02
9.400000e-07	-2.219439e-06	-5.829596e-09	-1.638575e+01	-3.848047e+02
9.500000e-07	-2.199862e-06	-5.799114e-09	-1.624122e+01	-3.831053e+02
9.600000e-07	-2.180069e-06	-5.777905e-09	-1.609509e+01	-3.813940e+02
9.700000e-07	-2.160086e-06	-5.758221e-09	-1.594756e+01	-3.796754e+02
9.800000e-07	-2.139959e-06	-5.726338e-09	-1.579897e+01	-3.779524e+02
9.900000e-07	-2.119718e-06	-5.686814e-09	-1.564953e+01	-3.762256e+02
1.000000e-06	-2.099336e-06	-5.654523e-09	-1.549905e+01	-3.744932e+02
1.010000e-06	-2.078787e-06	-5.629819e-09	-1.534734e+01	-3.727515e+02
1.020000e-06	-2.058080e-06	-5.604344e-09	-1.519446e+01	-3.709951e+02
1.030000e-06	-2.037215e-06	-5.575036e-09	-1.504043e+01	-3.692180e+02
1.040000e-06	-2.016239e-06	-5.548443e-09	-1.488556e+01	-3.674142e+02
1.050000e-06	-1.995145e-06	-5.526328e-09	-1.472982e+01	-3.655788e+02
1.060000e-06	-1.973875e-06	-5.498553e-09	-1.457279e+01	-3.637082e+02
1.070000e-06	-1.952400e-06	-5.459329e-09	-1.441425e+01	-3.618008e+02
1.080000e-06	-1.930759e-06	-5.418793e-09	-1.425447e+01	-3.598566e+02
1.090000e-06	-1.909005e-06	-5.386471e-09	-1.409387e+01	-3.578777e+02
1.100000e-06	-1.887153e-06	-5.358873e-09	-1.393254e+01	-3.558668e+02
1.110000e-06	-1.865185e-06	-5.327778e-09	-1.377035e+01	-3.538275e+02
1.120000e-06	-1.843082e-06	-5.294150e-09	-1.360717e+01	-3.517630e+02
1.130000e-06	-1.820841e-06	-5.263478e-09	-1.344297e+01	-3.496758e+02
1.140000e-06	-1.798472e-06	-5.235478e-09	-1.327782e+01	-3.475673e+02
1.150000e-06	-1.775995e-06	-5.202146e-09	-1.311188e+01	-3.454376e+02
1.160000e-06	-1.753426e-06	-5.161858e-09	-1.294525e+01	-3.432855e+02
1.170000e-06	-1.730742e-06	-5.123850e-09	-1.277779e+01	-3.411090e+02
1.180000e-06	-1.707885e-06	-5.090782e-09	-1.260904e+01	-3.389057e+02
1.190000e-06	-1.684838e-06	-5.058281e-09	-1.243888e+01	-3.366736e+02
1.200000e-06	-1.661629e-06	-5.023074e-09	-1.226753e+01	-3.344110e+02
1.210000e-06	-1.638292e-06	-4.988336e-09	-1.209524e+01	-3.321179e+02
1.220000e-06	-1.614850e-06	-4.957814e-09	-1.192217e+01	-3.297952e+02
1.230000e-06	-1.591294e-06	-4.924984e-09	-1.174826e+01	-3.274451e+02
1.240000e-06	-1.567626e-06	-4.884914e-09	-1.157352e+01	-3.250711e+02
1.250000e-06	-1.543865e-06	-4.842331e-09	-1.139810e+01	-3.226768e+02
1.260000e-06	-1.519996e-06	-4.803673e-09	-1.122188e+01	-3.202660e+02
1.270000e-06	-1.495993e-06	-4.769296e-09	-1.104467e+01	-3.178416e+02
1.280000e-06	-1.471872e-06	-4.735521e-09	-1.086659e+01	-3.154056e+02
1.290000e-06	-1.447685e-06	-4.701340e-09	-1.068802e+01	-3.129582e+02
1.300000e-06	-1.423448e-06	-4.666102e-09	-1.050908e+01	-3.104981e+02
1.310000e-06	-1.399111e-06	-4.632502e-09	-1.032941e+01	-3.080227e+02
1.320000e-06	-1.374630e-06	-4.598490e-09	-1.014867e+01	-3.055283e+02
1.330000e-06	-1.349988e-06	-4.560483e-09	-9.966741e+00	-3.030107e+02
1.340000e-06	-1.325207e-06	-4.520171e-09	-9.783782e+00	-3.004659e+02
1.350000e-06	-1.300319e-06	-4.481625e-09	-9.600039e+00	-2.978905e+02
1.360000e-06	-1.275356e-06	-4.444470e-09	-9.415745e+00	-2.952824e+02
1.370000e-06	-1.250343e-06	-4.407517e-09	-9.231075e+00	-2.926409e+02
1.380000e-06	-1.225254e-06	-4.370115e-09	-9.045846e+00	-2.899667e+02
1.390000e-06	-1.200076e-06	-4.331238e-09	-8.859963e+00	-2.872620e+02
1.400000e-06	-1.174812e-06	-4.292987e-09	-8.673440e+00	-2.845294e+02
1.410000e-06	-1.149461e-06	-4.252577e-09	-8.486279e+00	-2.817723e+02
1.420000e-06	-1.124033e-06	-4.210773e-09	-8.298548e+00	-2.789935e+02
1.430000e-06	-1.098535e-06	-4.170531e-09	-8.110300e+00	-2.761952e+02
1.440000e-06	-1.072959e-06	-4.129555e-09	-7.921477e+00	-2.733786e+02
1.450000e-06	-1.047318e-06	-4.087924e-09	-7.732174e+00	-2.705435e+02
1.460000e-06	-1.021611e-06	-4.046488e-09	-7.542384e+00	-2.676889e+02
1.470000e-06	-9.958469e-07	-4.005005e-09	-7.352174e+00	-2.648126e+02
1.480000e-06	-9.700376e-07	-3.961799e-09	-7.161628e+00	-2.619122e+02
1.490000e-06	-9.441669e-07	-3.914815e-09	-6.970629e+00	-2.589854e+02
1.500000e-06	-9.182355e-07	-3.866139e-09	-6.779182e+00	-2.560302e+02
1.510000e-06	-8.922343e-07	-3.818090e-09	-6.587219e+00	-2.530456e+02
1.520000e-06	-8.661642e-07	-3.773025e-09	-6.394748e+00	-2.500315e+02
1.530000e-06	-8.400193e-07	-3.725620e-09	-6.201725e+00	-2.469890e+02
1.540000e-06	-8.137660e-07	-3.676032e-09	-6.007901e+00	-2.439195e+02
1.550000e-06	-7.874136e-07	-3.626697e-09	-5.813345e+00	-2.408249e+02
1.560000e-06	-7.609911e-07	-3.577553e-09	-5.618272e+00	-2.377067e+02
1.570000e-06	-7.345072e-07	-3.530798e-09	-5.422746e+00	-2.345660e+02
1.580000e-06	-7.079624e-07	-3.484444e-09	-5.226770e+00	-2.314024e+02
1.590000e-06	-6.813801e-07	-3.437110e-09	-5.030517e+00	-2.282145e+02
1.600000e-06	-6.547874e-07	-3.387156e-09	-4.834188e+00	-2.249995e+02
1.610000e-06	-6.281662e-07	-3.336718e-09	-4.637648e+00	-2.217537e+02
1.620000e-06	-6.015077e-07	-3.287716e-09	-4.440832e+00	-2.184728e+02
1.630000e-06	-5.748295e-07	-3.238713e-09	-4.243872e+00	-2.151524e+02
1.640000e-06	-5.481363e-07	-3.186245e-09	-4.046800e+00	-2.117890e+02
1.650000e-06	-5.214086e-07	-3.134516e-09	-3.849474e+00	-2.083801e+02
1.660000e-06	-4.946385e-07	-3.084760e-09	-3.651835e+00	-2.049249e+02
1.670000e-06	-4.678379e-07	-3.032915e-09	-3.453970e+00	-2.014243e+02
1.680000e-06	-4.410184e-07	-2.978226e-09	-3.255967e+00	-1.978808e+02
1.690000e-06	-4.141528e-07	-2.923625e-09	-3.057622e+00	-1.942981e+02
1.700000e-06	-3.872415e-07	-2.868565e-09	-2.858940e+00	-1.906808e+02
1.710000e-06	-3.603053e-07	-2.812105e-09	-2.660075e+00	-1.870332e+02
1.720000e-06	-3.333277e-07	-2.756632e-09	-2.460904e+00	-1.833590e+02
1.730000e-06	-3.063175e-07	-2.700845e-09	-2.261492e+00	-1.796606e+02
1.740000e-06	-2.792964e-07	-2.644556e-09	-2.061999e+00	-1.759388e+02
1.750000e-06	-2.522648e-07	-2.588078e-09	-1.862429e+00	-1.721924e+02
1.760000e-06	-2.252169e-07	-2.531650e-09	-1.662739e+00	-1.684187e+02
1.770000e-06	-1.981699e-07	-2.474097e-09	-1.463056e+00	-1.646137e+02
1.780000e-06	-1.711193e-07	-2.415952e-09	-1.263345e+00	-1.607728e+02
1.790000e-06	-1.440367e-07	-2.356595e-09	-1.063399e+00	-1.568917e+02
1.800000e-06	-1.169385e-07	-2.296255e-09	-8.633379e-01	-1.529666e+02
1.810000e-06	-8.983863e-08	-2.234155e-09	-6.632639e-01	-1.489953e+02
1.820000e-06	-6.273366e-08	-2.172880e-09	-4.631523e-01	-1.449772e+02
1.830000e-06	-3.562461e-08	-2.111920e-09	-2.630106e-01	-1.409134e+02
1.840000e-06	-8.497843e-09	-2.049549e-09	-6.273818e-02	-1.368066e+02
1.850000e-06	1.864317e-08	-1.987958e-09	1.376395e-01	-1.326604e+02
1.860000e-06	4.577917e-08	-1.926251e-09	3.379801e-01	-1.284787e+02
1.870000e-06	7.290644e-08	-1.864475e-09	5.382562e-01	-1.242654e+02
1.880000e-06	1.000144e-07	-1.801380e-09	7.383896e-01	-1.200231e+02
1.890000e-06	1.270964e-07	-1.736003e-09	9.383316e-01	-1.157531e+02
1.900000e-06	1.541763e-07	-1.669059e-09	1.138258e+00	-1.114551e+02
1.910000e-06	1.812499e-07	-1.601556e-09	1.338138e+00	-1.071271e+02
1.920000e-06	2.083092e-07	-1.534370e-09	1.537912e+00	-1.027661e+02
1.930000e-06	2.353553e-07	-1.469097e-09	1.737589e+00	-9.836848e+01
1.940000e-06	2.623753e-07	-1.405026e-09	1.937074e+00	-9.393060e+01
1.950000e-06	2.893769e-07	-1.339420e-09	2.136422e+00	-8.944983e+01
1.960000e-06	3.163636e-07	-1.271524e-09	2.335660e+00	-8.492497e+01
1.970000e-06	3.433252e-07	-1.202202e-09	2.534713e+00	-8.035666e+01
1.980000e-06	3.702701e-07	-1.129709e-09	2.733643e+00	-7.574751e+01
1.990000e-06	3.971978e-07	-1.055029e-09	2.932446e+00	-7.110182e+01
2.000000e-06	4.240837e-07	-9.838863e-10	3.130940e+00	-6.642510e+01
2.010000e-06	4.509250e-07	-9.175224e-10	3.329105e+00	-6.172331e+01
2.020000e-06	4.777355e-07	-8.510962e-10	3.527043e+00	-5.700203e+01
2.030000e-06	5.044937e-07	-7.790467e-10	3.724594e+00	-5.226566e+01
2.040000e-06	5.312055e-07	-7.005784e-10	3.921803e+00	-4.751671e+01
2.050000e-06	5.578978e-07	-6.245398e-10	4.118868e+00	-4.275548e+01
2.060000e-06	5.845582e-07	-5.558482e-10	4.315697e+00	-3.797995e+01
2.070000e-06	6.111964e-07	-4.865334e-10	4.512363e+00	-3.318608e+01
2.080000e-06	6.378178e-07	-4.119745e-10	4.708904e+00	-2.836843e+01
2.090000e-06	6.644012e-07	-3.372295e-10	4.905165e+00	-2.352093e+01
2.100000e-06	6.909500e-07	-2.662305e-10	5.101170e+00	-1.863785e+01
2.110000e-06	7.174693e-07	-1.924662e-10	5.296958e+00	-1.371464e+01
2.120000e-06	7.439481e-07	-1.132023e-10	5.492447e+00	-8.748676e+00
2.130000e-06	7.703642e-07	-3.361868e-11	5.687472e+00	-3.739663e+00
2.140000e-06	7.966969e-07	4.262432e-11	5.881883e+00	1.310251e+00
2.150000e-06	8.229299e-07	1.197194e-10	6.075556e+00	6.396749e+00
2.160000e-06	8.490598e-07	2.019494e-10	6.268469e+00	1.151391e+01
2.170000e-06	8.750992e-07	2.846712e-10	6.460713e+00	1.665503e+01
2.180000e-06	9.010394e-07	3.640445e-10	6.652226e+00	2.181347e+01
2.190000e-06	9.269041e-07	4.393322e-10	6.843181e+00	2.698354e+01
2.200000e-06	9.527243e-07	5.161693e-10	7.033807e+00	3.216121e+01
2.210000e-06	9.784980e-07	5.978527e-10	7.224090e+00	3.734447e+01
2.220000e-06	1.004243e-06	6.788055e-10	7.414163e+00	4.253344e+01
2.230000e-06	1.029952e-06	7.580802e-10	7.603968e+00	4.773012e+01
2.240000e-06	1.055593e-06	8.381885e-10	7.793272e+00	5.293785e+01
2.250000e-06	1.081159e-06	9.210973e-10	7.982017e+00	5.816052e+01
2.260000e-06	1.106639e-06	1.003581e-09	8.170135e+00	6.340177e+01
2.270000e-06	1.132034e-06	1.082593e-09	8.357620e+00	6.866416e+01
2.280000e-06	1.157352e-06	1.161652e-09	8.544539e+00	7.394857e+01
2.290000e-06	1.182589e-06	1.243556e-09	8.730863e+00	7.925381e+01
2.300000e-06	1.207730e-06	1.328571e-09	8.916474e+00	8.457661e+01
2.310000e-06	1.232798e-06	1.412076e-09	9.101547e+00	8.991183e+01
2.320000e-06	1.257817e-06	1.491926e-09	9.286253e+00	9.525303e+01
2.330000e-06	1.282781e-06	1.572327e-09	9.470563e+00	1.005932e+02
2.340000e-06	1.307678e-06	1.657852e-09	9.654371e+00	1.059255e+02
2.350000e-06	1.332460e-06	1.745094e-09	9.837336e+00	1.112442e+02
2.360000e-06	1.357081e-06	1.826523e-09	1.001911e+01	1.165448e+02
2.370000e-06	1.381534e-06	1.903908e-09	1.019964e+01	1.218252e+02
2.380000e-06	1.405870e-06	1.981560e-09	1.037930e+01	1.270847e+02
2.390000e-06	1.430126e-06	2.061405e-09	1.055839e+01	1.323246e+02
2.400000e-06	1.454304e-06	2.141664e-09	1.073689e+01	1.375473e+02
2.410000e-06	1.478405e-06	2.222627e-09	1.091482e+01	1.427559e+02
2.420000e-06	1.502403e-06	2.306867e-09	1.109200e+01	1.479530e+02
2.430000e-06	1.526280e-06	2.391233e-09	1.126828e+01	1.531405e+02
2.440000e-06	1.550061e-06	2.472221e-09	1.144385e+01	1.583189e+02
2.450000e-06	1.573748e-06	2.548854e-09	1.161872e+01	1.634869e+02
2.460000e-06	1.597310e-06	2.624110e-09	1.179268e+01	1.686414e+02
2.470000e-06	1.620753e-06	2.700369e-09	1.196576e+01	1.737778e+02
2.480000e-06	1.644084e-06	2.776675e-09	1.213800e+01	1.788902e+02
2.490000e-06	1.667254e-06	2.853047e-09	1.230906e+01	1.839722e+02
2.500000e-06	1.690246e-06	2.933353e-09	1.247881e+01	1.890176e+02
2.510000e-06	1.713081e-06	3.014273e-09	1.264740e+01	1.940206e+02
2.520000e-06	1.735778e-06	3.090193e-09	1.281496e+01	1.989769e+02
2.530000e-06	1.758373e-06	3.161815e-09	1.298178e+01	2.038836e+02
2.540000e-06	1.780890e-06	3.231529e-09	1.314801e+01	2.087395e+02
2.550000e-06	1.803274e-06	3.300142e-09	1.331328e+01	2.135449e+02
2.560000e-06	1.825514e-06	3.370306e-09	1.347747e+01	2.183013e+02
2.570000e-06	1.847628e-06	3.442794e-09	1.364073e+01	2.230111e+02
2.580000e-06	1.869605e-06	3.515444e-09	1.380299e+01	2.276767e+02
2.590000e-06	1.891478e-06	3.588714e-09	1.396447e+01	2.323006e+02
2.600000e-06	1.913287e-06	3.659832e-09	1.412548e+01	2.368844e+02
2.610000e-06	1.934983e-06	3.727666e-09	1.428566e+01	2.414288e+02
2.620000e-06	1.956524e-06	3.793917e-09	1.444470e+01	2.459335e+02
2.630000e-06	1.977856e-06	3.860777e-09	1.460219e+01	2.503971e+02
2.640000e-06	1.998975e-06	3.926218e-09	1.475810e+01	2.548172e+02
2.650000e-06	2.019961e-06	3.988012e-09	1.491304e+01	2.591908e+02
2.660000e-06	2.040842e-06	4.047308e-09	1.506720e+01	2.635149e+02
2.670000e-06	2.061595e-06	4.108420e-09	1.522042e+01	2.677861e+02
2.680000e-06	2.082191e-06	4.172233e-09	1.537247e+01	2.720017e+02
2.690000e-06	2.102626e-06	4.236662e-09	1.552334e+01	2.761594e+02
2.700000e-06	2.122930e-06	4.300538e-09	1.567324e+01	2.802576e+02
2.710000e-06	2.143116e-06	4.362607e-09	1.582227e+01	2.842957e+02
2.720000e-06	2.163132e-06	4.423813e-09	1.597005e+01	2.882734e+02
2.730000e-06	2.182938e-06	4.480362e-09	1.611627e+01	2.921913e+02
2.740000e-06	2.202538e-06	4.531590e-09	1.626097e+01	2.960502e+02
2.750000e-06	2.221987e-06	4.582664e-09	1.640457e+01	2.998514e+02
2.760000e-06	2.241301e-06	4.636156e-09	1.654715e+01	3.035959e+02
2.770000e-06	2.260455e-06	4.692937e-09	1.668857e+01	3.072850e+02
2.780000e-06	2.279465e-06	4.749851e-09	1.682891e+01	3.109197e+02
2.790000e-06	2.298324e-06	4.804523e-09	1.696815e+01	3.145007e+02
2.800000e-06	2.317027e-06	4.858385e-09	1.710623e+01	3.180286e+02
2.810000e-06	2.335620e-06	4.912002e-09	1.724350e+01	3.215037e+02
2.820000e-06	2.354065e-06	4.962903e-09	1.737968e+01	3.249260e+02
2.830000e-06	2.372256e-06	5.008842e-09	1.751398e+01	3.282954e+02
2.840000e-06	2.390216e-06	5.051060e-09	1.764657e+01	3.316114e+02
2.850000e-06	2.408019e-06	5.092423e-09	1.777801e+01	3.348734e+02
2.860000e-06	2.425665e-06	5.135995e-09	1.790828e+01	3.380807e+02
2.870000e-06	2.443164e-06	5.184854e-09	1.803748e+01	3.412324e+02
2.880000e-06	2.460508e-06	5.234054e-09	1.816553e+01	3.443277e+02
2.890000e-06	2.477676e-06	5.278354e-09	1.829227e+01	3.473658e+02
2.900000e-06	2.494713e-06	5.321067e-09	1.841806e+01	3.503461e+02
