# Temperatura_=_20.0
# Concentracion g/m^3_=_10000.0
# C_Vs_to_Am_M_A/Vsm_=_65563218390.804596
# pendiente_HvsI_1/m_=_3716.3
# ordenada_HvsI_A/m_=_1297.0
# frecuencia_Hz_=_135260.62828087292

Tiempo_(s)	Campo_(V.s)	Magnetizacion_(V.s)	Campo_(kA/m)	Magnetizacion_(A/m)
0.000000e+00	-3.188835e-06	-7.062663e-09	-2.355308e+01	-4.570307e+02
1.000000e-08	-3.188844e-06	-7.063078e-09	-2.355315e+01	-4.570793e+02
2.000000e-08	-3.188641e-06	-7.062865e-09	-2.355165e+01	-4.571163e+02
3.000000e-08	-3.188242e-06	-7.062178e-09	-2.354870e+01	-4.571520e+02
4.000000e-08	-3.187591e-06	-7.063288e-09	-2.354390e+01	-4.571954e+02
5.000000e-08	-3.186660e-06	-7.062025e-09	-2.353701e+01	-4.572520e+02
6.000000e-08	-3.185483e-06	-7.047808e-09	-2.352832e+01	-4.573231e+02
7.000000e-08	-3.183930e-06	-7.041062e-09	-2.351686e+01	-4.574048e+02
8.000000e-08	-3.181975e-06	-7.063783e-09	-2.350242e+01	-4.574882e+02
9.000000e-08	-3.179974e-06	-7.120823e-09	-2.348763e+01	-4.575605e+02
1.000000e-07	-3.177855e-06	-7.165326e-09	-2.347198e+01	-4.576064e+02
1.100000e-07	-3.175464e-06	-6.972740e-09	-2.345432e+01	-4.576099e+02
1.200000e-07	-3.173077e-06	-7.010859e-09	-2.343669e+01	-4.575570e+02
1.300000e-07	-3.170358e-06	-7.096415e-09	-2.341661e+01	-4.574373e+02
1.400000e-07	-3.167160e-06	-7.050780e-09	-2.339299e+01	-4.572459e+02
1.500000e-07	-3.163783e-06	-7.001092e-09	-2.336805e+01	-4.569844e+02
1.600000e-07	-3.160278e-06	-6.997385e-09	-2.334216e+01	-4.566611e+02
1.700000e-07	-3.156518e-06	-7.059284e-09	-2.331438e+01	-4.562900e+02
1.800000e-07	-3.152510e-06	-7.011171e-09	-2.328478e+01	-4.558896e+02
1.900000e-07	-3.148262e-06	-7.052748e-09	-2.325340e+01	-4.554801e+02
2.000000e-07	-3.143775e-06	-6.989340e-09	-2.322026e+01	-4.550815e+02
2.100000e-07	-3.139140e-06	-6.992365e-09	-2.318603e+01	-4.547104e+02
2.200000e-07	-3.134341e-06	-6.990379e-09	-2.315059e+01	-4.543786e+02
2.300000e-07	-3.129254e-06	-7.026535e-09	-2.311301e+01	-4.540909e+02
2.400000e-07	-3.123892e-06	-6.960420e-09	-2.307341e+01	-4.538448e+02
2.500000e-07	-3.118359e-06	-6.963869e-09	-2.303254e+01	-4.536310e+02
2.600000e-07	-3.112560e-06	-6.952046e-09	-2.298971e+01	-4.534342e+02
2.700000e-07	-3.106512e-06	-6.987954e-09	-2.294504e+01	-4.532356e+02
2.800000e-07	-3.100297e-06	-6.945700e-09	-2.289913e+01	-4.530151e+02
2.900000e-07	-3.093901e-06	-6.912735e-09	-2.285189e+01	-4.527536e+02
3.000000e-07	-3.087185e-06	-6.940136e-09	-2.280229e+01	-4.524358e+02
3.100000e-07	-3.080279e-06	-6.931499e-09	-2.275127e+01	-4.520515e+02
3.200000e-07	-3.073264e-06	-6.934624e-09	-2.269946e+01	-4.515968e+02
3.300000e-07	-3.066038e-06	-6.900590e-09	-2.264609e+01	-4.510744e+02
3.400000e-07	-3.058499e-06	-6.887775e-09	-2.259041e+01	-4.504923e+02
3.500000e-07	-3.050722e-06	-6.829394e-09	-2.253296e+01	-4.498628e+02
3.600000e-07	-3.042763e-06	-6.892592e-09	-2.247418e+01	-4.492004e+02
3.700000e-07	-3.034575e-06	-6.895086e-09	-2.241370e+01	-4.485198e+02
3.800000e-07	-3.026102e-06	-6.867321e-09	-2.235112e+01	-4.478338e+02
3.900000e-07	-3.017434e-06	-6.809638e-09	-2.228709e+01	-4.471515e+02
4.000000e-07	-3.008573e-06	-6.857623e-09	-2.222165e+01	-4.464782e+02
4.100000e-07	-2.999448e-06	-6.838789e-09	-2.215425e+01	-4.458140e+02
4.200000e-07	-2.990105e-06	-6.793566e-09	-2.208524e+01	-4.451554e+02
4.300000e-07	-2.980588e-06	-6.756956e-09	-2.201495e+01	-4.444954e+02
4.400000e-07	-2.970873e-06	-6.788672e-09	-2.194319e+01	-4.438257e+02
4.500000e-07	-2.960925e-06	-6.779762e-09	-2.186972e+01	-4.431375e+02
4.600000e-07	-2.950727e-06	-6.758768e-09	-2.179439e+01	-4.424235e+02
4.700000e-07	-2.940196e-06	-6.737215e-09	-2.171661e+01	-4.416789e+02
4.800000e-07	-2.929396e-06	-6.717530e-09	-2.163684e+01	-4.409016e+02
4.900000e-07	-2.918404e-06	-6.712130e-09	-2.155565e+01	-4.400926e+02
5.000000e-07	-2.907235e-06	-6.709292e-09	-2.147316e+01	-4.392555e+02
5.100000e-07	-2.895860e-06	-6.684743e-09	-2.138914e+01	-4.383954e+02
5.200000e-07	-2.884271e-06	-6.646809e-09	-2.130354e+01	-4.375182e+02
5.300000e-07	-2.872429e-06	-6.660765e-09	-2.121607e+01	-4.366289e+02
5.400000e-07	-2.860364e-06	-6.661664e-09	-2.112696e+01	-4.357314e+02
5.500000e-07	-2.848126e-06	-6.636117e-09	-2.103657e+01	-4.348273e+02
5.600000e-07	-2.835699e-06	-6.599027e-09	-2.094478e+01	-4.339159e+02
5.700000e-07	-2.823081e-06	-6.599728e-09	-2.085159e+01	-4.329945e+02
5.800000e-07	-2.810303e-06	-6.589703e-09	-2.075720e+01	-4.320592e+02
5.900000e-07	-2.797342e-06	-6.573289e-09	-2.066147e+01	-4.311054e+02
6.000000e-07	-2.784161e-06	-6.535487e-09	-2.056411e+01	-4.301287e+02
6.100000e-07	-2.770707e-06	-6.516862e-09	-2.046474e+01	-4.291260e+02
6.200000e-07	-2.757012e-06	-6.511144e-09	-2.036359e+01	-4.280959e+02
6.300000e-07	-2.743157e-06	-6.512149e-09	-2.026125e+01	-4.270387e+02
6.400000e-07	-2.729108e-06	-6.482149e-09	-2.015749e+01	-4.259564e+02
6.500000e-07	-2.714855e-06	-6.451794e-09	-2.005221e+01	-4.248522e+02
6.600000e-07	-2.700427e-06	-6.434886e-09	-1.994565e+01	-4.237295e+02
6.700000e-07	-2.685845e-06	-6.425249e-09	-1.983794e+01	-4.225916e+02
6.800000e-07	-2.671090e-06	-6.401966e-09	-1.972896e+01	-4.214404e+02
6.900000e-07	-2.656069e-06	-6.374382e-09	-1.961802e+01	-4.202761e+02
7.000000e-07	-2.640778e-06	-6.356578e-09	-1.950507e+01	-4.190971e+02
7.100000e-07	-2.625313e-06	-6.350156e-09	-1.939085e+01	-4.179002e+02
7.200000e-07	-2.609684e-06	-6.336855e-09	-1.927541e+01	-4.166812e+02
7.300000e-07	-2.593841e-06	-6.303865e-09	-1.915839e+01	-4.154355e+02
7.400000e-07	-2.577768e-06	-6.274643e-09	-1.903968e+01	-4.141591e+02
7.500000e-07	-2.561469e-06	-6.262395e-09	-1.891929e+01	-4.128496e+02
7.600000e-07	-2.544965e-06	-6.251839e-09	-1.879739e+01	-4.115067e+02
7.700000e-07	-2.528277e-06	-6.223519e-09	-1.867413e+01	-4.101324e+02
7.800000e-07	-2.511400e-06	-6.197381e-09	-1.854948e+01	-4.087307e+02
7.900000e-07	-2.494388e-06	-6.179069e-09	-1.842382e+01	-4.073077e+02
8.000000e-07	-2.477271e-06	-6.166823e-09	-1.829739e+01	-4.058698e+02
8.100000e-07	-2.459990e-06	-6.144762e-09	-1.816976e+01	-4.044234e+02
8.200000e-07	-2.442526e-06	-6.114647e-09	-1.804077e+01	-4.029733e+02
8.300000e-07	-2.424902e-06	-6.087652e-09	-1.791059e+01	-4.015220e+02
8.400000e-07	-2.407156e-06	-6.072460e-09	-1.777952e+01	-4.000694e+02
8.500000e-07	-2.389287e-06	-6.054551e-09	-1.764754e+01	-3.986122e+02
8.600000e-07	-2.371215e-06	-6.028463e-09	-1.751405e+01	-3.971447e+02
8.700000e-07	-2.352887e-06	-6.000128e-09	-1.737868e+01	-3.956596e+02
8.800000e-07	-2.334357e-06	-5.978802e-09	-1.724182e+01	-3.941489e+02
8.900000e-07	-2.315708e-06	-5.957866e-09	-1.710407e+01	-3.926055e+02
9.000000e-07	-2.296922e-06	-5.926963e-09	-1.696532e+01	-3.910245e+02
9.100000e-07	-2.277952e-06	-5.890070e-09	-1.682520e+01	-3.894037e+02
9.200000e-07	-2.258819e-06	-5.864783e-09	-1.668388e+01	-3.877447e+02
9.300000e-07	-2.239551e-06	-5.847338e-09	-1.654157e+01	-3.860523e+02
9.400000e-07	-2.220148e-06	-5.822546e-09	-1.639826e+01	-3.843342e+02
9.500000e-07	-2.200573e-06	-5.790302e-09	-1.625367e+01	-3.826000e+02
9.600000e-07	-2.180787e-06	-5.764939e-09	-1.610753e+01	-3.808595e+02
9.700000e-07	-2.160802e-06	-5.744119e-09	-1.595992e+01	-3.791213e+02
9.800000e-07	-2.140670e-06	-5.714744e-09	-1.581122e+01	-3.773917e+02
9.900000e-07	-2.120438e-06	-5.676668e-09	-1.566178e+01	-3.756733e+02
1.000000e-06	-2.100080e-06	-5.641229e-09	-1.551142e+01	-3.739646e+02
1.010000e-06	-2.079559e-06	-5.616291e-09	-1.535985e+01	-3.722599e+02
1.020000e-06	-2.058858e-06	-5.594683e-09	-1.520695e+01	-3.705504e+02
1.030000e-06	-2.037995e-06	-5.567837e-09	-1.505285e+01	-3.688250e+02
1.040000e-06	-2.017025e-06	-5.538465e-09	-1.489797e+01	-3.670718e+02
1.050000e-06	-1.995949e-06	-5.514030e-09	-1.474230e+01	-3.652800e+02
1.060000e-06	-1.974723e-06	-5.489300e-09	-1.458552e+01	-3.634410e+02
1.070000e-06	-1.953314e-06	-5.457429e-09	-1.442739e+01	-3.615498e+02
1.080000e-06	-1.931717e-06	-5.417688e-09	-1.426787e+01	-3.596054e+02
1.090000e-06	-1.909980e-06	-5.379399e-09	-1.410732e+01	-3.576106e+02
1.100000e-06	-1.888143e-06	-5.349470e-09	-1.394603e+01	-3.555716e+02
1.110000e-06	-1.866188e-06	-5.321370e-09	-1.378386e+01	-3.534970e+02
1.120000e-06	-1.844098e-06	-5.288632e-09	-1.362071e+01	-3.513959e+02
1.130000e-06	-1.821875e-06	-5.255888e-09	-1.345656e+01	-3.492768e+02
1.140000e-06	-1.799523e-06	-5.227600e-09	-1.329147e+01	-3.471461e+02
1.150000e-06	-1.777057e-06	-5.198108e-09	-1.312554e+01	-3.450070e+02
1.160000e-06	-1.754495e-06	-5.161544e-09	-1.295889e+01	-3.428594e+02
1.170000e-06	-1.731821e-06	-5.122061e-09	-1.279142e+01	-3.406996e+02
1.180000e-06	-1.708984e-06	-5.086624e-09	-1.262274e+01	-3.385214e+02
1.190000e-06	-1.685958e-06	-5.053343e-09	-1.245267e+01	-3.363170e+02
1.200000e-06	-1.662767e-06	-5.017908e-09	-1.228138e+01	-3.340781e+02
1.210000e-06	-1.639436e-06	-4.982437e-09	-1.210906e+01	-3.317981e+02
1.220000e-06	-1.615989e-06	-4.950104e-09	-1.193587e+01	-3.294724e+02
1.230000e-06	-1.592439e-06	-4.917253e-09	-1.176193e+01	-3.270999e+02
1.240000e-06	-1.568788e-06	-4.877389e-09	-1.158724e+01	-3.246829e+02
1.250000e-06	-1.545031e-06	-4.834968e-09	-1.141177e+01	-3.222271e+02
1.260000e-06	-1.521139e-06	-4.793338e-09	-1.123530e+01	-3.197407e+02
1.270000e-06	-1.497140e-06	-4.756954e-09	-1.105804e+01	-3.172334e+02
1.280000e-06	-1.473071e-06	-4.720986e-09	-1.088026e+01	-3.147147e+02
1.290000e-06	-1.448919e-06	-4.684319e-09	-1.070188e+01	-3.121929e+02
1.300000e-06	-1.424674e-06	-4.645922e-09	-1.052279e+01	-3.096740e+02
1.310000e-06	-1.400334e-06	-4.609129e-09	-1.034302e+01	-3.071606e+02
1.320000e-06	-1.375881e-06	-4.574821e-09	-1.016241e+01	-3.046518e+02
1.330000e-06	-1.351281e-06	-4.537247e-09	-9.980707e+00	-3.021435e+02
1.340000e-06	-1.326524e-06	-4.497873e-09	-9.797854e+00	-2.996290e+02
1.350000e-06	-1.301648e-06	-4.460955e-09	-9.614114e+00	-2.971004e+02
1.360000e-06	-1.276697e-06	-4.425672e-09	-9.429823e+00	-2.945492e+02
1.370000e-06	-1.251689e-06	-4.387556e-09	-9.245110e+00	-2.919680e+02
1.380000e-06	-1.226620e-06	-4.349083e-09	-9.059947e+00	-2.893511e+02
1.390000e-06	-1.201479e-06	-4.309283e-09	-8.874255e+00	-2.866956e+02
1.400000e-06	-1.176258e-06	-4.271629e-09	-8.687972e+00	-2.840010e+02
1.410000e-06	-1.150950e-06	-4.231830e-09	-8.501039e+00	-2.812695e+02
1.420000e-06	-1.125553e-06	-4.191367e-09	-8.313459e+00	-2.785050e+02
1.430000e-06	-1.100077e-06	-4.152623e-09	-8.125285e+00	-2.757123e+02
1.440000e-06	-1.074521e-06	-4.113655e-09	-7.936527e+00	-2.728963e+02
1.450000e-06	-1.048878e-06	-4.073599e-09	-7.747126e+00	-2.700612e+02
1.460000e-06	-1.023180e-06	-4.031857e-09	-7.557322e+00	-2.672093e+02
1.470000e-06	-9.974366e-07	-3.988424e-09	-7.367175e+00	-2.643411e+02
1.480000e-06	-9.716344e-07	-3.945213e-09	-7.176598e+00	-2.614552e+02
1.490000e-06	-9.457870e-07	-3.899357e-09	-6.985685e+00	-2.585486e+02
1.500000e-06	-9.199045e-07	-3.849157e-09	-6.794515e+00	-2.556173e+02
1.510000e-06	-8.939563e-07	-3.800356e-09	-6.602858e+00	-2.526569e+02
1.520000e-06	-8.679269e-07	-3.758111e-09	-6.410603e+00	-2.496640e+02
1.530000e-06	-8.418171e-07	-3.714816e-09	-6.217753e+00	-2.466358e+02
1.540000e-06	-8.155958e-07	-3.667896e-09	-6.024080e+00	-2.435715e+02
1.550000e-06	-7.892664e-07	-3.619661e-09	-5.829607e+00	-2.404716e+02
1.560000e-06	-7.628668e-07	-3.569409e-09	-5.634617e+00	-2.373382e+02
1.570000e-06	-7.364169e-07	-3.518016e-09	-5.439255e+00	-2.341743e+02
1.580000e-06	-7.099037e-07	-3.465738e-09	-5.243426e+00	-2.309829e+02
1.590000e-06	-6.833346e-07	-3.419396e-09	-5.047184e+00	-2.277668e+02
1.600000e-06	-6.567465e-07	-3.376070e-09	-4.850801e+00	-2.245275e+02
1.610000e-06	-6.301368e-07	-3.330067e-09	-4.654259e+00	-2.212650e+02
1.620000e-06	-6.035070e-07	-3.280199e-09	-4.457568e+00	-2.179777e+02
1.630000e-06	-5.768496e-07	-3.230456e-09	-4.260674e+00	-2.146622e+02
1.640000e-06	-5.501538e-07	-3.177382e-09	-4.063496e+00	-2.113143e+02
1.650000e-06	-5.234250e-07	-3.120765e-09	-3.866074e+00	-2.079291e+02
1.660000e-06	-4.966537e-07	-3.064575e-09	-3.668338e+00	-2.045021e+02
1.670000e-06	-4.698596e-07	-3.012286e-09	-3.470434e+00	-2.010299e+02
1.680000e-06	-4.430574e-07	-2.963614e-09	-3.272470e+00	-1.975103e+02
1.690000e-06	-4.162125e-07	-2.915295e-09	-3.074191e+00	-1.939436e+02
1.700000e-06	-3.893141e-07	-2.863336e-09	-2.875516e+00	-1.903315e+02
1.710000e-06	-3.623854e-07	-2.807377e-09	-2.676618e+00	-1.866776e+02
1.720000e-06	-3.354155e-07	-2.752172e-09	-2.477415e+00	-1.829866e+02
1.730000e-06	-3.084113e-07	-2.695873e-09	-2.277960e+00	-1.792636e+02
1.740000e-06	-2.813946e-07	-2.636775e-09	-2.078411e+00	-1.755132e+02
1.750000e-06	-2.543808e-07	-2.577007e-09	-1.878884e+00	-1.717389e+02
1.760000e-06	-2.273599e-07	-2.520000e-09	-1.679305e+00	-1.679428e+02
1.770000e-06	-2.003211e-07	-2.463777e-09	-1.479594e+00	-1.641247e+02
1.780000e-06	-1.732681e-07	-2.407873e-09	-1.279777e+00	-1.602828e+02
1.790000e-06	-1.462009e-07	-2.350244e-09	-1.079856e+00	-1.564137e+02
1.800000e-06	-1.191386e-07	-2.289382e-09	-8.799705e-01	-1.525128e+02
1.810000e-06	-9.204306e-08	-2.228570e-09	-6.798400e-01	-1.485753e+02
1.820000e-06	-6.490712e-08	-2.169730e-09	-4.794110e-01	-1.445966e+02
1.830000e-06	-3.777308e-08	-2.110135e-09	-2.789961e-01	-1.405733e+02
1.840000e-06	-1.066187e-08	-2.047969e-09	-7.874973e-02	-1.365031e+02
1.850000e-06	1.643476e-08	-1.984433e-09	1.213890e-01	-1.323857e+02
1.860000e-06	4.354385e-08	-1.920048e-09	3.216196e-01	-1.282219e+02
1.870000e-06	7.065065e-08	-1.856561e-09	5.218334e-01	-1.240141e+02
1.880000e-06	9.774723e-08	-1.793721e-09	7.219717e-01	-1.197653e+02
1.890000e-06	1.248293e-07	-1.728295e-09	9.220026e-01	-1.154789e+02
1.900000e-06	1.518923e-07	-1.661600e-09	1.121893e+00	-1.111579e+02
1.910000e-06	1.789450e-07	-1.597650e-09	1.321707e+00	-1.068047e+02
1.920000e-06	2.059745e-07	-1.532420e-09	1.521350e+00	-1.024205e+02
1.930000e-06	2.329829e-07	-1.462762e-09	1.720837e+00	-9.800563e+01
1.940000e-06	2.599832e-07	-1.391006e-09	1.920264e+00	-9.355953e+01
1.950000e-06	2.869699e-07	-1.320125e-09	2.119591e+00	-8.908099e+01
1.960000e-06	3.139367e-07	-1.252629e-09	2.318770e+00	-8.456865e+01
1.970000e-06	3.408853e-07	-1.185291e-09	2.517816e+00	-8.002139e+01
1.980000e-06	3.678202e-07	-1.114148e-09	2.716760e+00	-7.543867e+01
1.990000e-06	3.947328e-07	-1.042244e-09	2.915540e+00	-7.082073e+01
2.000000e-06	4.216217e-07	-9.738060e-10	3.114144e+00	-6.616867e+01
2.010000e-06	4.484831e-07	-9.072241e-10	3.312545e+00	-6.148429e+01
2.020000e-06	4.753042e-07	-8.354355e-10	3.510649e+00	-5.676978e+01
2.030000e-06	5.020702e-07	-7.593118e-10	3.708345e+00	-5.202738e+01
2.040000e-06	5.287714e-07	-6.844011e-10	3.905563e+00	-4.725896e+01
2.050000e-06	5.554442e-07	-6.111319e-10	4.102571e+00	-4.246568e+01
2.060000e-06	5.820968e-07	-5.390522e-10	4.299430e+00	-3.764779e+01
2.070000e-06	6.087157e-07	-4.659496e-10	4.496040e+00	-3.280459e+01
2.080000e-06	6.353170e-07	-3.927339e-10	4.692520e+00	-2.793452e+01
2.090000e-06	6.618932e-07	-3.214129e-10	4.888815e+00	-2.303555e+01
2.100000e-06	6.884344e-07	-2.485284e-10	5.084851e+00	-1.810552e+01
2.110000e-06	7.149483e-07	-1.704638e-10	5.280686e+00	-1.314264e+01
2.120000e-06	7.414460e-07	-8.965977e-11	5.476401e+00	-8.145868e+00
2.130000e-06	7.678807e-07	-1.096684e-11	5.671650e+00	-3.115246e+00
2.140000e-06	7.941890e-07	6.323394e-11	5.865966e+00	1.947990e+00
2.150000e-06	8.203921e-07	1.384164e-10	6.059505e+00	7.041468e+00
2.160000e-06	8.465265e-07	2.170690e-10	6.252537e+00	1.216193e+01
2.170000e-06	8.725775e-07	2.954166e-10	6.444952e+00	1.730564e+01
2.180000e-06	8.985425e-07	3.729129e-10	6.636733e+00	2.246883e+01
2.190000e-06	9.244463e-07	4.505752e-10	6.828061e+00	2.764821e+01
2.200000e-06	9.502878e-07	5.302584e-10	7.018929e+00	3.284137e+01
2.210000e-06	9.760681e-07	6.103464e-10	7.209345e+00	3.804698e+01
2.220000e-06	1.001804e-06	6.891605e-10	7.399432e+00	4.326488e+01
2.230000e-06	1.027491e-06	7.663290e-10	7.589163e+00	4.849590e+01
2.240000e-06	1.053117e-06	8.450023e-10	7.778439e+00	5.374154e+01
2.250000e-06	1.078674e-06	9.256222e-10	7.967207e+00	5.900350e+01
2.260000e-06	1.104145e-06	1.006146e-09	8.155339e+00	6.428316e+01
2.270000e-06	1.129532e-06	1.086729e-09	8.342846e+00	6.958110e+01
2.280000e-06	1.154853e-06	1.168937e-09	8.529870e+00	7.489672e+01
2.290000e-06	1.180098e-06	1.251982e-09	8.716330e+00	8.022807e+01
2.300000e-06	1.205246e-06	1.333429e-09	8.902077e+00	8.557183e+01
2.310000e-06	1.230304e-06	1.413665e-09	9.087156e+00	9.092357e+01
2.320000e-06	1.255308e-06	1.491943e-09	9.271844e+00	9.627809e+01
2.330000e-06	1.280277e-06	1.571839e-09	9.456263e+00	1.016300e+02
2.340000e-06	1.305173e-06	1.656568e-09	9.640150e+00	1.069741e+02
2.350000e-06	1.329963e-06	1.742450e-09	9.823250e+00	1.123060e+02
2.360000e-06	1.354619e-06	1.825571e-09	1.000536e+01	1.176227e+02
2.370000e-06	1.379111e-06	1.906509e-09	1.018626e+01	1.229221e+02
2.380000e-06	1.403453e-06	1.987264e-09	1.036606e+01	1.282038e+02
2.390000e-06	1.427704e-06	2.067743e-09	1.054518e+01	1.334683e+02
2.400000e-06	1.451883e-06	2.144703e-09	1.072376e+01	1.387168e+02
2.410000e-06	1.475978e-06	2.221936e-09	1.090173e+01	1.439510e+02
2.420000e-06	1.499970e-06	2.304677e-09	1.107894e+01	1.491720e+02
2.430000e-06	1.523856e-06	2.388851e-09	1.125537e+01	1.543806e+02
2.440000e-06	1.547652e-06	2.470198e-09	1.143112e+01	1.595763e+02
2.450000e-06	1.571339e-06	2.549906e-09	1.160608e+01	1.647578e+02
2.460000e-06	1.594898e-06	2.626853e-09	1.178009e+01	1.699222e+02
2.470000e-06	1.618345e-06	2.700643e-09	1.195327e+01	1.750660e+02
2.480000e-06	1.641698e-06	2.775358e-09	1.212576e+01	1.801847e+02
2.490000e-06	1.664896e-06	2.852222e-09	1.229711e+01	1.852737e+02
2.500000e-06	1.687892e-06	2.933365e-09	1.246696e+01	1.903284e+02
2.510000e-06	1.710712e-06	3.016276e-09	1.263551e+01	1.953445e+02
2.520000e-06	1.733399e-06	3.096088e-09	1.280307e+01	2.003187e+02
2.530000e-06	1.755991e-06	3.171316e-09	1.296994e+01	2.052484e+02
2.540000e-06	1.778481e-06	3.241272e-09	1.313606e+01	2.101318e+02
2.550000e-06	1.800845e-06	3.309569e-09	1.330123e+01	2.149681e+02
2.560000e-06	1.823080e-06	3.378005e-09	1.346547e+01	2.197573e+02
2.570000e-06	1.845197e-06	3.448734e-09	1.362882e+01	2.244996e+02
2.580000e-06	1.867186e-06	3.522574e-09	1.379124e+01	2.291955e+02
2.590000e-06	1.889062e-06	3.598056e-09	1.395281e+01	2.338458e+02
2.600000e-06	1.910860e-06	3.671759e-09	1.411382e+01	2.384509e+02
2.610000e-06	1.932559e-06	3.740756e-09	1.427409e+01	2.430109e+02
2.620000e-06	1.954088e-06	3.806803e-09	1.443311e+01	2.475259e+02
2.630000e-06	1.975408e-06	3.871405e-09	1.459058e+01	2.519954e+02
2.640000e-06	1.996552e-06	3.934330e-09	1.474675e+01	2.564186e+02
2.650000e-06	2.017570e-06	3.995130e-09	1.490199e+01	2.607945e+02
2.660000e-06	2.038466e-06	4.056504e-09	1.505633e+01	2.651218e+02
2.670000e-06	2.059202e-06	4.122252e-09	1.520949e+01	2.693988e+02
2.680000e-06	2.079777e-06	4.189649e-09	1.536146e+01	2.736237e+02
2.690000e-06	2.100222e-06	4.255130e-09	1.551247e+01	2.777943e+02
2.700000e-06	2.120532e-06	4.317045e-09	1.566248e+01	2.819086e+02
2.710000e-06	2.140723e-06	4.373839e-09	1.581162e+01	2.859643e+02
2.720000e-06	2.160765e-06	4.428052e-09	1.595965e+01	2.899592e+02
2.730000e-06	2.180588e-06	4.483151e-09	1.610606e+01	2.938914e+02
2.740000e-06	2.200196e-06	4.538708e-09	1.625089e+01	2.977598e+02
2.750000e-06	2.219637e-06	4.592172e-09	1.639448e+01	3.015636e+02
2.760000e-06	2.238949e-06	4.644619e-09	1.653712e+01	3.053031e+02
2.770000e-06	2.258122e-06	4.700307e-09	1.667873e+01	3.089794e+02
2.780000e-06	2.277137e-06	4.759294e-09	1.681918e+01	3.125945e+02
2.790000e-06	2.295999e-06	4.816696e-09	1.695850e+01	3.161511e+02
2.800000e-06	2.314726e-06	4.868950e-09	1.709682e+01	3.196525e+02
2.810000e-06	2.333344e-06	4.919270e-09	1.723433e+01	3.231019e+02
2.820000e-06	2.351795e-06	4.969670e-09	1.737062e+01	3.265021e+02
2.830000e-06	2.370012e-06	5.016292e-09	1.750517e+01	3.298555e+02
2.840000e-06	2.387996e-06	5.056818e-09	1.763800e+01	3.331630e+02
2.850000e-06	2.405808e-06	5.096066e-09	1.776956e+01	3.364244e+02
2.860000e-06	2.423482e-06	5.138575e-09	1.790010e+01	3.396383e+02
2.870000e-06	2.440990e-06	5.187682e-09	1.802942e+01	3.428019e+02
2.880000e-06	2.458334e-06	5.238329e-09	1.815752e+01	3.459116e+02
2.890000e-06	2.475524e-06	5.284446e-09	1.828449e+01	3.489635e+02
2.900000e-06	2.492584e-06	5.328453e-09	1.841049e+01	3.519540e+02
