# Temperatura_=_20.0
# Concentracion g/m^3_=_10000.0
# C_Vs_to_Am_M_A/Vsm_=_65563218390.804596
# pendiente_HvsI_1/m_=_3716.3
# ordenada_HvsI_A/m_=_1297.0
# frecuencia_Hz_=_135259.49958343845

Tiempo_(s)	Campo_(V.s)	Magnetizacion_(V.s)	Campo_(kA/m)	Magnetizacion_(A/m)
0.000000e+00	-3.190765e-06	-7.005501e-09	-2.355325e+01	-4.546291e+02
1.000000e-08	-3.190773e-06	-7.009304e-09	-2.355330e+01	-4.547445e+02
2.000000e-08	-3.190592e-06	-7.008856e-09	-2.355197e+01	-4.548440e+02
3.000000e-08	-3.190233e-06	-7.008047e-09	-2.354932e+01	-4.549282e+02
4.000000e-08	-3.189607e-06	-7.010642e-09	-2.354470e+01	-4.549967e+02
5.000000e-08	-3.188706e-06	-7.007421e-09	-2.353805e+01	-4.550483e+02
6.000000e-08	-3.187562e-06	-6.985750e-09	-2.352961e+01	-4.550809e+02
7.000000e-08	-3.186031e-06	-6.973681e-09	-2.351830e+01	-4.550924e+02
8.000000e-08	-3.184057e-06	-7.005580e-09	-2.350373e+01	-4.550811e+02
9.000000e-08	-3.182054e-06	-7.077671e-09	-2.348894e+01	-4.550462e+02
1.000000e-07	-3.179984e-06	-7.124703e-09	-2.347367e+01	-4.549884e+02
1.100000e-07	-3.177593e-06	-6.859226e-09	-2.345601e+01	-4.549103e+02
1.200000e-07	-3.175217e-06	-6.907872e-09	-2.343847e+01	-4.548163e+02
1.300000e-07	-3.172525e-06	-7.028070e-09	-2.341860e+01	-4.547122e+02
1.400000e-07	-3.169306e-06	-6.960149e-09	-2.339485e+01	-4.546049e+02
1.500000e-07	-3.165876e-06	-6.886756e-09	-2.336953e+01	-4.545016e+02
1.600000e-07	-3.162342e-06	-6.905041e-09	-2.334344e+01	-4.544087e+02
1.700000e-07	-3.158591e-06	-7.008372e-09	-2.331575e+01	-4.543309e+02
1.800000e-07	-3.154612e-06	-6.972709e-09	-2.328638e+01	-4.542705e+02
1.900000e-07	-3.150381e-06	-7.042673e-09	-2.325514e+01	-4.542268e+02
2.000000e-07	-3.145908e-06	-6.974163e-09	-2.322213e+01	-4.541956e+02
2.100000e-07	-3.141296e-06	-6.979912e-09	-2.318808e+01	-4.541695e+02
2.200000e-07	-3.136478e-06	-6.988157e-09	-2.315252e+01	-4.541386e+02
2.300000e-07	-3.131376e-06	-7.034741e-09	-2.311486e+01	-4.540910e+02
2.400000e-07	-3.126016e-06	-6.972946e-09	-2.307529e+01	-4.540143e+02
2.500000e-07	-3.120496e-06	-6.987420e-09	-2.303454e+01	-4.538966e+02
2.600000e-07	-3.114732e-06	-6.975405e-09	-2.299200e+01	-4.537278e+02
2.700000e-07	-3.108710e-06	-7.019229e-09	-2.294755e+01	-4.535005e+02
2.800000e-07	-3.102491e-06	-6.967856e-09	-2.290163e+01	-4.532109e+02
2.900000e-07	-3.096103e-06	-6.944422e-09	-2.285448e+01	-4.528587e+02
3.000000e-07	-3.089408e-06	-6.960589e-09	-2.280506e+01	-4.524475e+02
3.100000e-07	-3.082504e-06	-6.966439e-09	-2.275410e+01	-4.519837e+02
3.200000e-07	-3.075461e-06	-6.988127e-09	-2.270211e+01	-4.514758e+02
3.300000e-07	-3.068239e-06	-6.953929e-09	-2.264880e+01	-4.509333e+02
3.400000e-07	-3.060717e-06	-6.927962e-09	-2.259328e+01	-4.503656e+02
3.500000e-07	-3.052964e-06	-6.863713e-09	-2.253605e+01	-4.497808e+02
3.600000e-07	-3.045040e-06	-6.936700e-09	-2.247755e+01	-4.491849e+02
3.700000e-07	-3.036862e-06	-6.928016e-09	-2.241718e+01	-4.485813e+02
3.800000e-07	-3.028366e-06	-6.891457e-09	-2.235447e+01	-4.479706e+02
3.900000e-07	-3.019668e-06	-6.837098e-09	-2.229026e+01	-4.473512e+02
4.000000e-07	-3.010819e-06	-6.909617e-09	-2.222494e+01	-4.467194e+02
4.100000e-07	-3.001720e-06	-6.891361e-09	-2.215778e+01	-4.460706e+02
4.200000e-07	-2.992380e-06	-6.847135e-09	-2.208883e+01	-4.454001e+02
4.300000e-07	-2.982849e-06	-6.804195e-09	-2.201847e+01	-4.447041e+02
4.400000e-07	-2.973145e-06	-6.840872e-09	-2.194684e+01	-4.439798e+02
4.500000e-07	-2.963232e-06	-6.831684e-09	-2.187367e+01	-4.432268e+02
4.600000e-07	-2.953065e-06	-6.811047e-09	-2.179862e+01	-4.424463e+02
4.700000e-07	-2.942552e-06	-6.773596e-09	-2.172102e+01	-4.416413e+02
4.800000e-07	-2.931772e-06	-6.751012e-09	-2.164144e+01	-4.408162e+02
4.900000e-07	-2.920803e-06	-6.756650e-09	-2.156047e+01	-4.399756e+02
5.000000e-07	-2.909646e-06	-6.765390e-09	-2.147812e+01	-4.391241e+02
5.100000e-07	-2.898289e-06	-6.736484e-09	-2.139428e+01	-4.382655e+02
5.200000e-07	-2.886718e-06	-6.697973e-09	-2.130887e+01	-4.374019e+02
5.300000e-07	-2.874868e-06	-6.722011e-09	-2.122139e+01	-4.365338e+02
5.400000e-07	-2.862795e-06	-6.719660e-09	-2.113228e+01	-4.356597e+02
5.500000e-07	-2.850556e-06	-6.682296e-09	-2.104193e+01	-4.347768e+02
5.600000e-07	-2.838148e-06	-6.638748e-09	-2.095034e+01	-4.338813e+02
5.700000e-07	-2.825530e-06	-6.646238e-09	-2.085720e+01	-4.329689e+02
5.800000e-07	-2.812733e-06	-6.640366e-09	-2.076273e+01	-4.320355e+02
5.900000e-07	-2.799779e-06	-6.629851e-09	-2.066711e+01	-4.310781e+02
6.000000e-07	-2.786596e-06	-6.591736e-09	-2.056980e+01	-4.300949e+02
6.100000e-07	-2.773125e-06	-6.572287e-09	-2.047036e+01	-4.290857e+02
6.200000e-07	-2.759418e-06	-6.567786e-09	-2.036918e+01	-4.280519e+02
6.300000e-07	-2.745554e-06	-6.570904e-09	-2.026684e+01	-4.269961e+02
6.400000e-07	-2.731525e-06	-6.533610e-09	-2.016328e+01	-4.259215e+02
6.500000e-07	-2.717295e-06	-6.502277e-09	-2.005824e+01	-4.248316e+02
6.600000e-07	-2.702851e-06	-6.494809e-09	-1.995162e+01	-4.237294e+02
6.700000e-07	-2.688263e-06	-6.489771e-09	-1.984393e+01	-4.226171e+02
6.800000e-07	-2.673519e-06	-6.459095e-09	-1.973509e+01	-4.214952e+02
6.900000e-07	-2.658493e-06	-6.428006e-09	-1.962418e+01	-4.203630e+02
7.000000e-07	-2.643192e-06	-6.413861e-09	-1.951123e+01	-4.192184e+02
7.100000e-07	-2.627726e-06	-6.410201e-09	-1.939707e+01	-4.180581e+02
7.200000e-07	-2.612089e-06	-6.397775e-09	-1.928164e+01	-4.168782e+02
7.300000e-07	-2.596225e-06	-6.364354e-09	-1.916454e+01	-4.156747e+02
7.400000e-07	-2.580109e-06	-6.333932e-09	-1.904557e+01	-4.144442e+02
7.500000e-07	-2.563795e-06	-6.323023e-09	-1.892514e+01	-4.131840e+02
7.600000e-07	-2.547311e-06	-6.312494e-09	-1.880347e+01	-4.118929e+02
7.700000e-07	-2.530625e-06	-6.274997e-09	-1.868030e+01	-4.105708e+02
7.800000e-07	-2.513759e-06	-6.240487e-09	-1.855580e+01	-4.092189e+02
7.900000e-07	-2.496768e-06	-6.223080e-09	-1.843038e+01	-4.078396e+02
8.000000e-07	-2.479657e-06	-6.214856e-09	-1.830407e+01	-4.064355e+02
8.100000e-07	-2.462379e-06	-6.191214e-09	-1.817653e+01	-4.050097e+02
8.200000e-07	-2.444914e-06	-6.159538e-09	-1.804761e+01	-4.035647e+02
8.300000e-07	-2.427276e-06	-6.135652e-09	-1.791741e+01	-4.021027e+02
8.400000e-07	-2.409513e-06	-6.124329e-09	-1.778629e+01	-4.006249e+02
8.500000e-07	-2.391654e-06	-6.103310e-09	-1.765446e+01	-3.991320e+02
8.600000e-07	-2.373586e-06	-6.068195e-09	-1.752108e+01	-3.976237e+02
8.700000e-07	-2.355232e-06	-6.033679e-09	-1.738560e+01	-3.960996e+02
8.800000e-07	-2.336691e-06	-6.012549e-09	-1.724873e+01	-3.945590e+02
8.900000e-07	-2.318024e-06	-5.993265e-09	-1.711094e+01	-3.930016e+02
9.000000e-07	-2.299203e-06	-5.962993e-09	-1.697201e+01	-3.914274e+02
9.100000e-07	-2.280228e-06	-5.927768e-09	-1.683194e+01	-3.898370e+02
9.200000e-07	-2.261094e-06	-5.904646e-09	-1.669070e+01	-3.882314e+02
9.300000e-07	-2.241809e-06	-5.890790e-09	-1.654835e+01	-3.866119e+02
9.400000e-07	-2.222412e-06	-5.866863e-09	-1.640516e+01	-3.849799e+02
9.500000e-07	-2.202884e-06	-5.831875e-09	-1.626101e+01	-3.833364e+02
9.600000e-07	-2.183145e-06	-5.803483e-09	-1.611531e+01	-3.816815e+02
9.700000e-07	-2.163174e-06	-5.782893e-09	-1.596788e+01	-3.800145e+02
9.800000e-07	-2.143038e-06	-5.755963e-09	-1.581925e+01	-3.783337e+02
9.900000e-07	-2.122784e-06	-5.718333e-09	-1.566974e+01	-3.766360e+02
1.000000e-06	-2.102393e-06	-5.683171e-09	-1.551922e+01	-3.749178e+02
1.010000e-06	-2.081853e-06	-5.660486e-09	-1.536760e+01	-3.731749e+02
1.020000e-06	-2.061155e-06	-5.641078e-09	-1.521481e+01	-3.714036e+02
1.030000e-06	-2.040297e-06	-5.612933e-09	-1.506084e+01	-3.696003e+02
1.040000e-06	-2.019327e-06	-5.581894e-09	-1.490605e+01	-3.677631e+02
1.050000e-06	-1.998249e-06	-5.559226e-09	-1.475046e+01	-3.658913e+02
1.060000e-06	-1.977002e-06	-5.537386e-09	-1.459362e+01	-3.639859e+02
1.070000e-06	-1.955538e-06	-5.505003e-09	-1.443518e+01	-3.620496e+02
1.080000e-06	-1.933886e-06	-5.463526e-09	-1.427535e+01	-3.600862e+02
1.090000e-06	-1.912122e-06	-5.425709e-09	-1.411470e+01	-3.581002e+02
1.100000e-06	-1.890278e-06	-5.396784e-09	-1.395345e+01	-3.560964e+02
1.110000e-06	-1.868331e-06	-5.366501e-09	-1.379144e+01	-3.540787e+02
1.120000e-06	-1.846242e-06	-5.331637e-09	-1.362839e+01	-3.520500e+02
1.130000e-06	-1.824023e-06	-5.300978e-09	-1.346438e+01	-3.500115e+02
1.140000e-06	-1.801676e-06	-5.276903e-09	-1.329942e+01	-3.479624e+02
1.150000e-06	-1.779200e-06	-5.249790e-09	-1.313351e+01	-3.459000e+02
1.160000e-06	-1.756615e-06	-5.214141e-09	-1.296680e+01	-3.438203e+02
1.170000e-06	-1.733917e-06	-5.174961e-09	-1.279924e+01	-3.417180e+02
1.180000e-06	-1.711071e-06	-5.139822e-09	-1.263060e+01	-3.395876e+02
1.190000e-06	-1.688063e-06	-5.106703e-09	-1.246076e+01	-3.374242e+02
1.200000e-06	-1.664882e-06	-5.071981e-09	-1.228965e+01	-3.352237e+02
1.210000e-06	-1.641555e-06	-5.037693e-09	-1.211746e+01	-3.329839e+02
1.220000e-06	-1.618132e-06	-5.004437e-09	-1.194455e+01	-3.307044e+02
1.230000e-06	-1.594596e-06	-4.971874e-09	-1.177082e+01	-3.283870e+02
1.240000e-06	-1.570935e-06	-4.934408e-09	-1.159616e+01	-3.260350e+02
1.250000e-06	-1.547157e-06	-4.895350e-09	-1.142064e+01	-3.236530e+02
1.260000e-06	-1.523266e-06	-4.855941e-09	-1.124428e+01	-3.212464e+02
1.270000e-06	-1.499248e-06	-4.819955e-09	-1.106699e+01	-3.188203e+02
1.280000e-06	-1.475129e-06	-4.783226e-09	-1.088895e+01	-3.163789e+02
1.290000e-06	-1.450954e-06	-4.745747e-09	-1.071049e+01	-3.139253e+02
1.300000e-06	-1.426714e-06	-4.705967e-09	-1.053157e+01	-3.114607e+02
1.310000e-06	-1.402360e-06	-4.666476e-09	-1.035179e+01	-3.089843e+02
1.320000e-06	-1.377883e-06	-4.630874e-09	-1.017111e+01	-3.064940e+02
1.330000e-06	-1.353273e-06	-4.593826e-09	-9.989447e+00	-3.039861e+02
1.340000e-06	-1.328509e-06	-4.555456e-09	-9.806649e+00	-3.014565e+02
1.350000e-06	-1.303639e-06	-4.518405e-09	-9.623061e+00	-2.989007e+02
1.360000e-06	-1.278678e-06	-4.483259e-09	-9.438806e+00	-2.963150e+02
1.370000e-06	-1.253651e-06	-4.446511e-09	-9.254067e+00	-2.936967e+02
1.380000e-06	-1.228583e-06	-4.407419e-09	-9.069024e+00	-2.910444e+02
1.390000e-06	-1.203438e-06	-4.363931e-09	-8.883407e+00	-2.883583e+02
1.400000e-06	-1.178208e-06	-4.321222e-09	-8.697169e+00	-2.856399e+02
1.410000e-06	-1.152884e-06	-4.280094e-09	-8.510233e+00	-2.828917e+02
1.420000e-06	-1.127460e-06	-4.239396e-09	-8.322560e+00	-2.801167e+02
1.430000e-06	-1.101962e-06	-4.198065e-09	-8.134348e+00	-2.773183e+02
1.440000e-06	-1.076401e-06	-4.156616e-09	-7.945661e+00	-2.744989e+02
1.450000e-06	-1.050769e-06	-4.115042e-09	-7.756453e+00	-2.716605e+02
1.460000e-06	-1.025044e-06	-4.074472e-09	-7.566564e+00	-2.688037e+02
1.470000e-06	-9.992569e-07	-4.030802e-09	-7.376208e+00	-2.659280e+02
1.480000e-06	-9.734387e-07	-3.983225e-09	-7.185626e+00	-2.630317e+02
1.490000e-06	-9.475809e-07	-3.933754e-09	-6.994752e+00	-2.601126e+02
1.500000e-06	-9.216597e-07	-3.885034e-09	-6.803409e+00	-2.571678e+02
1.510000e-06	-8.956697e-07	-3.837434e-09	-6.611559e+00	-2.541947e+02
1.520000e-06	-8.695930e-07	-3.792589e-09	-6.419068e+00	-2.511910e+02
1.530000e-06	-8.434295e-07	-3.746155e-09	-6.225938e+00	-2.481553e+02
1.540000e-06	-8.171863e-07	-3.698876e-09	-6.032218e+00	-2.450872e+02
1.550000e-06	-7.908444e-07	-3.650955e-09	-5.837771e+00	-2.419868e+02
1.560000e-06	-7.644444e-07	-3.597924e-09	-5.642894e+00	-2.388554e+02
1.570000e-06	-7.379868e-07	-3.544643e-09	-5.447592e+00	-2.356945e+02
1.580000e-06	-7.114620e-07	-3.493090e-09	-5.251794e+00	-2.325057e+02
1.590000e-06	-6.848983e-07	-3.446453e-09	-5.055709e+00	-2.292902e+02
1.600000e-06	-6.583059e-07	-3.400130e-09	-4.859412e+00	-2.260486e+02
1.610000e-06	-6.316892e-07	-3.351778e-09	-4.662936e+00	-2.227805e+02
1.620000e-06	-6.050398e-07	-3.301503e-09	-4.466218e+00	-2.194846e+02
1.630000e-06	-5.783567e-07	-3.253070e-09	-4.269252e+00	-2.161586e+02
1.640000e-06	-5.516514e-07	-3.203571e-09	-4.072122e+00	-2.127996e+02
1.650000e-06	-5.249159e-07	-3.150826e-09	-3.874768e+00	-2.094041e+02
1.660000e-06	-4.981456e-07	-3.096323e-09	-3.677158e+00	-2.059691e+02
1.670000e-06	-4.713469e-07	-3.042454e-09	-3.479338e+00	-2.024918e+02
1.680000e-06	-4.445102e-07	-2.989880e-09	-3.281238e+00	-1.989703e+02
1.690000e-06	-4.176259e-07	-2.937927e-09	-3.082786e+00	-1.954038e+02
1.700000e-06	-3.907068e-07	-2.884679e-09	-2.884078e+00	-1.917929e+02
1.710000e-06	-3.637437e-07	-2.828395e-09	-2.685044e+00	-1.881392e+02
1.720000e-06	-3.367374e-07	-2.775864e-09	-2.485692e+00	-1.844453e+02
1.730000e-06	-3.097256e-07	-2.724831e-09	-2.286299e+00	-1.807145e+02
1.740000e-06	-2.827078e-07	-2.669787e-09	-2.086862e+00	-1.769502e+02
1.750000e-06	-2.556752e-07	-2.610249e-09	-1.887316e+00	-1.731560e+02
1.760000e-06	-2.286189e-07	-2.549511e-09	-1.687595e+00	-1.693347e+02
1.770000e-06	-2.015429e-07	-2.487997e-09	-1.487728e+00	-1.654885e+02
1.780000e-06	-1.744620e-07	-2.426280e-09	-1.287825e+00	-1.616183e+02
1.790000e-06	-1.473761e-07	-2.365678e-09	-1.087885e+00	-1.577243e+02
1.800000e-06	-1.202801e-07	-2.309203e-09	-8.878709e-01	-1.538055e+02
1.810000e-06	-9.316178e-08	-2.254750e-09	-6.876917e-01	-1.498600e+02
1.820000e-06	-6.604064e-08	-2.201144e-09	-4.874917e-01	-1.458855e+02
1.830000e-06	-3.890893e-08	-2.146226e-09	-2.872138e-01	-1.418793e+02
1.840000e-06	-1.175562e-08	-2.085415e-09	-8.677641e-02	-1.378386e+02
1.850000e-06	1.538029e-08	-2.019732e-09	1.135326e-01	-1.337607e+02
1.860000e-06	4.250216e-08	-1.949258e-09	3.137379e-01	-1.296435e+02
1.870000e-06	6.963275e-08	-1.880674e-09	5.140076e-01	-1.254851e+02
1.880000e-06	9.676091e-08	-1.817286e-09	7.142593e-01	-1.212844e+02
1.890000e-06	1.238706e-07	-1.755000e-09	9.143750e-01	-1.170408e+02
1.900000e-06	1.509620e-07	-1.692438e-09	1.114355e+00	-1.127540e+02
1.910000e-06	1.780470e-07	-1.631608e-09	1.314288e+00	-1.084243e+02
1.920000e-06	2.051105e-07	-1.569308e-09	1.514063e+00	-1.040525e+02
1.930000e-06	2.321455e-07	-1.501197e-09	1.713627e+00	-9.963947e+01
1.940000e-06	2.591738e-07	-1.428894e-09	1.913142e+00	-9.518663e+01
1.950000e-06	2.861889e-07	-1.354755e-09	2.112559e+00	-9.069550e+01
1.960000e-06	3.131738e-07	-1.282018e-09	2.311753e+00	-8.616783e+01
1.970000e-06	3.401258e-07	-1.211501e-09	2.510705e+00	-8.160557e+01
1.980000e-06	3.670740e-07	-1.140642e-09	2.709628e+00	-7.701072e+01
1.990000e-06	3.940057e-07	-1.071067e-09	2.908430e+00	-7.238530e+01
2.000000e-06	4.208970e-07	-1.004339e-09	3.106932e+00	-6.773122e+01
2.010000e-06	4.477577e-07	-9.387230e-10	3.305210e+00	-6.305014e+01
2.020000e-06	4.745729e-07	-8.692367e-10	3.503151e+00	-5.834336e+01
2.030000e-06	5.013412e-07	-7.949413e-10	3.700747e+00	-5.361169e+01
2.040000e-06	5.280678e-07	-7.189284e-10	3.898034e+00	-4.885537e+01
2.050000e-06	5.547615e-07	-6.434108e-10	4.095080e+00	-4.407410e+01
2.060000e-06	5.814288e-07	-5.704652e-10	4.291929e+00	-3.926704e+01
2.070000e-06	6.080615e-07	-4.978067e-10	4.488523e+00	-3.443295e+01
2.080000e-06	6.346710e-07	-4.231542e-10	4.684947e+00	-2.957037e+01
2.090000e-06	6.612693e-07	-3.470933e-10	4.881287e+00	-2.467782e+01
2.100000e-06	6.878436e-07	-2.708546e-10	5.077451e+00	-1.975407e+01
2.110000e-06	7.143778e-07	-1.939763e-10	5.273317e+00	-1.479832e+01
2.120000e-06	7.408682e-07	-1.165255e-10	5.468862e+00	-9.810394e+00
2.130000e-06	7.672949e-07	-4.144253e-11	5.663935e+00	-4.790838e+00
2.140000e-06	7.936353e-07	3.326502e-11	5.858372e+00	2.590693e-01
2.150000e-06	8.198840e-07	1.132263e-10	6.052132e+00	5.337395e+00
2.160000e-06	8.460344e-07	1.953532e-10	6.245166e+00	1.044171e+01
2.170000e-06	8.720767e-07	2.741632e-10	6.437403e+00	1.556934e+01
2.180000e-06	8.980212e-07	3.531656e-10	6.628917e+00	2.071757e+01
2.190000e-06	9.239018e-07	4.329578e-10	6.819959e+00	2.588396e+01
2.200000e-06	9.497410e-07	5.124254e-10	7.010697e+00	3.106651e+01
2.210000e-06	9.755386e-07	5.913015e-10	7.201127e+00	3.626382e+01
2.220000e-06	1.001288e-06	6.679669e-10	7.391201e+00	4.147517e+01
2.230000e-06	1.026980e-06	7.464917e-10	7.580848e+00	4.670039e+01
2.240000e-06	1.052604e-06	8.280963e-10	7.770000e+00	5.193980e+01
2.250000e-06	1.078171e-06	9.084569e-10	7.958729e+00	5.719392e+01
2.260000e-06	1.103671e-06	9.856333e-10	8.146963e+00	6.246325e+01
2.270000e-06	1.129090e-06	1.064177e-09	8.334593e+00	6.774797e+01
2.280000e-06	1.154431e-06	1.145762e-09	8.521654e+00	7.304771e+01
2.290000e-06	1.179684e-06	1.227702e-09	8.708069e+00	7.836136e+01
2.300000e-06	1.204836e-06	1.309208e-09	8.893732e+00	8.368700e+01
2.310000e-06	1.229910e-06	1.392165e-09	9.078817e+00	8.902191e+01
2.320000e-06	1.254940e-06	1.475850e-09	9.263585e+00	9.436268e+01
2.330000e-06	1.279923e-06	1.556526e-09	9.448000e+00	9.970544e+01
2.340000e-06	1.304828e-06	1.634160e-09	9.631837e+00	1.050461e+02
2.350000e-06	1.329626e-06	1.710226e-09	9.814890e+00	1.103806e+02
2.360000e-06	1.354282e-06	1.788552e-09	9.996897e+00	1.157053e+02
2.370000e-06	1.378778e-06	1.870937e-09	1.017772e+01	1.210171e+02
2.380000e-06	1.403148e-06	1.954550e-09	1.035761e+01	1.263137e+02
2.390000e-06	1.427418e-06	2.037422e-09	1.053676e+01	1.315934e+02
2.400000e-06	1.451608e-06	2.119765e-09	1.071532e+01	1.368554e+02
2.410000e-06	1.475721e-06	2.202149e-09	1.089332e+01	1.420995e+02
2.420000e-06	1.499735e-06	2.282929e-09	1.107058e+01	1.473259e+02
2.430000e-06	1.523655e-06	2.358781e-09	1.124715e+01	1.525348e+02
2.440000e-06	1.547462e-06	2.433422e-09	1.142289e+01	1.577263e+02
2.450000e-06	1.571156e-06	2.513397e-09	1.159779e+01	1.629003e+02
2.460000e-06	1.594738e-06	2.596183e-09	1.177187e+01	1.680561e+02
2.470000e-06	1.618198e-06	2.675417e-09	1.194504e+01	1.731921e+02
2.480000e-06	1.641555e-06	2.750813e-09	1.211746e+01	1.783061e+02
2.490000e-06	1.664783e-06	2.826009e-09	1.228892e+01	1.833953e+02
2.500000e-06	1.687825e-06	2.903592e-09	1.245900e+01	1.884564e+02
2.510000e-06	1.710668e-06	2.982992e-09	1.262763e+01	1.934855e+02
2.520000e-06	1.733361e-06	3.059462e-09	1.279514e+01	1.984787e+02
2.530000e-06	1.755964e-06	3.133765e-09	1.296198e+01	2.034322e+02
2.540000e-06	1.778481e-06	3.208853e-09	1.312820e+01	2.083426e+02
2.550000e-06	1.800887e-06	3.283775e-09	1.329359e+01	2.132069e+02
2.560000e-06	1.823169e-06	3.356230e-09	1.345808e+01	2.180227e+02
2.570000e-06	1.845303e-06	3.426718e-09	1.362146e+01	2.227883e+02
2.580000e-06	1.867298e-06	3.498638e-09	1.378382e+01	2.275027e+02
2.590000e-06	1.889186e-06	3.571063e-09	1.394539e+01	2.321656e+02
2.600000e-06	1.910972e-06	3.640227e-09	1.410621e+01	2.367768e+02
2.610000e-06	1.932661e-06	3.707471e-09	1.426631e+01	2.413368e+02
2.620000e-06	1.954203e-06	3.777520e-09	1.442533e+01	2.458459e+02
2.630000e-06	1.975533e-06	3.849452e-09	1.458278e+01	2.503045e+02
2.640000e-06	1.996667e-06	3.917959e-09	1.473878e+01	2.547129e+02
2.650000e-06	2.017671e-06	3.982066e-09	1.489382e+01	2.590708e+02
2.660000e-06	2.038569e-06	4.044557e-09	1.504809e+01	2.633777e+02
2.670000e-06	2.059342e-06	4.106323e-09	1.520143e+01	2.676327e+02
2.680000e-06	2.079952e-06	4.167103e-09	1.535357e+01	2.718346e+02
2.690000e-06	2.100411e-06	4.227177e-09	1.550459e+01	2.759818e+02
2.700000e-06	2.120734e-06	4.289481e-09	1.565461e+01	2.800727e+02
2.710000e-06	2.140928e-06	4.353877e-09	1.580367e+01	2.841056e+02
2.720000e-06	2.160995e-06	4.418766e-09	1.595180e+01	2.880790e+02
2.730000e-06	2.180858e-06	4.481409e-09	1.609842e+01	2.919917e+02
2.740000e-06	2.200473e-06	4.538594e-09	1.624322e+01	2.958428e+02
2.750000e-06	2.219920e-06	4.590331e-09	1.638677e+01	2.996322e+02
2.760000e-06	2.239245e-06	4.640054e-09	1.652942e+01	3.033598e+02
2.770000e-06	2.258425e-06	4.693048e-09	1.667100e+01	3.070265e+02
2.780000e-06	2.277463e-06	4.749724e-09	1.681153e+01	3.106332e+02
2.790000e-06	2.296353e-06	4.806813e-09	1.695097e+01	3.141814e+02
2.800000e-06	2.315095e-06	4.861842e-09	1.708932e+01	3.176728e+02
2.810000e-06	2.333711e-06	4.915381e-09	1.722674e+01	3.211089e+02
2.820000e-06	2.352197e-06	4.964720e-09	1.736320e+01	3.244913e+02
2.830000e-06	2.370462e-06	5.008053e-09	1.749802e+01	3.278216e+02
2.840000e-06	2.388457e-06	5.048565e-09	1.763086e+01	3.311006e+02
2.850000e-06	2.406276e-06	5.089763e-09	1.776239e+01	3.343292e+02
2.860000e-06	2.423957e-06	5.134664e-09	1.789291e+01	3.375076e+02
2.870000e-06	2.441471e-06	5.184923e-09	1.802219e+01	3.406358e+02
2.880000e-06	2.458819e-06	5.234201e-09	1.815024e+01	3.437134e+02
2.890000e-06	2.476016e-06	5.277015e-09	1.827719e+01	3.467398e+02
2.900000e-06	2.493080e-06	5.318821e-09	1.840315e+01	3.497142e+02
