# Temperatura_=_20.0
# Concentracion g/m^3_=_10000.0
# C_Vs_to_Am_M_A/Vsm_=_65563218390.804596
# pendiente_HvsI_1/m_=_3716.3
# ordenada_HvsI_A/m_=_1297.0
# frecuencia_Hz_=_269487.2819410894

Tiempo_(s)	Campo_(V.s)	Magnetizacion_(V.s)	Campo_(kA/m)	Magnetizacion_(A/m)
0.000000e+00	-3.327003e-06	-7.377533e-09	-2.347807e+01	-4.820694e+02
1.000000e-08	-3.326246e-06	-7.378408e-09	-2.347272e+01	-4.820708e+02
2.000000e-08	-3.324396e-06	-7.375201e-09	-2.345967e+01	-4.819765e+02
3.000000e-08	-3.321290e-06	-7.371054e-09	-2.343775e+01	-4.818225e+02
4.000000e-08	-3.317292e-06	-7.368535e-09	-2.340953e+01	-4.816417e+02
5.000000e-08	-3.312539e-06	-7.361898e-09	-2.337600e+01	-4.814507e+02
6.000000e-08	-3.306981e-06	-7.339613e-09	-2.333677e+01	-4.812379e+02
7.000000e-08	-3.300516e-06	-7.329088e-09	-2.329115e+01	-4.809616e+02
8.000000e-08	-3.292988e-06	-7.397791e-09	-2.323803e+01	-4.805640e+02
9.000000e-08	-3.284379e-06	-7.454754e-09	-2.317728e+01	-4.799959e+02
1.000000e-07	-3.274579e-06	-7.303220e-09	-2.310812e+01	-4.792453e+02
1.100000e-07	-3.263671e-06	-7.155943e-09	-2.303114e+01	-4.783514e+02
1.200000e-07	-3.251912e-06	-7.301922e-09	-2.294816e+01	-4.773958e+02
1.300000e-07	-3.239184e-06	-7.457296e-09	-2.285834e+01	-4.764707e+02
1.400000e-07	-3.225530e-06	-7.218513e-09	-2.276199e+01	-4.756364e+02
1.500000e-07	-3.211155e-06	-7.160798e-09	-2.266055e+01	-4.748906e+02
1.600000e-07	-3.195526e-06	-7.416506e-09	-2.255025e+01	-4.741636e+02
1.700000e-07	-3.178452e-06	-7.326273e-09	-2.242977e+01	-4.733461e+02
1.800000e-07	-3.160709e-06	-7.126101e-09	-2.230456e+01	-4.723361e+02
1.900000e-07	-3.142445e-06	-7.265926e-09	-2.217567e+01	-4.710826e+02
2.000000e-07	-3.123206e-06	-7.282746e-09	-2.203990e+01	-4.696052e+02
2.100000e-07	-3.103107e-06	-7.034965e-09	-2.189807e+01	-4.679799e+02
2.200000e-07	-3.082426e-06	-7.158711e-09	-2.175213e+01	-4.662998e+02
2.300000e-07	-3.060959e-06	-7.275448e-09	-2.160064e+01	-4.646305e+02
2.400000e-07	-3.038631e-06	-7.032298e-09	-2.144308e+01	-4.629840e+02
2.500000e-07	-3.015438e-06	-6.991951e-09	-2.127941e+01	-4.613213e+02
2.600000e-07	-2.991392e-06	-7.119663e-09	-2.110972e+01	-4.595808e+02
2.700000e-07	-2.966663e-06	-7.017615e-09	-2.093521e+01	-4.577143e+02
2.800000e-07	-2.941071e-06	-6.960583e-09	-2.075461e+01	-4.557108e+02
2.900000e-07	-2.914217e-06	-6.959176e-09	-2.056511e+01	-4.535974e+02
3.000000e-07	-2.886322e-06	-6.906221e-09	-2.036826e+01	-4.514180e+02
3.100000e-07	-2.857791e-06	-6.927848e-09	-2.016692e+01	-4.492056e+02
3.200000e-07	-2.828517e-06	-6.882880e-09	-1.996034e+01	-4.469636e+02
3.300000e-07	-2.798366e-06	-6.757067e-09	-1.974757e+01	-4.446661e+02
3.400000e-07	-2.767413e-06	-6.757417e-09	-1.952914e+01	-4.422747e+02
3.500000e-07	-2.735736e-06	-6.770243e-09	-1.930560e+01	-4.397606e+02
3.600000e-07	-2.703464e-06	-6.689414e-09	-1.907786e+01	-4.371188e+02
3.700000e-07	-2.670590e-06	-6.670315e-09	-1.884588e+01	-4.343669e+02
3.800000e-07	-2.636771e-06	-6.598446e-09	-1.860722e+01	-4.315325e+02
3.900000e-07	-2.601758e-06	-6.534242e-09	-1.836014e+01	-4.286374e+02
4.000000e-07	-2.565825e-06	-6.552655e-09	-1.810657e+01	-4.256893e+02
4.100000e-07	-2.529354e-06	-6.492311e-09	-1.784920e+01	-4.226838e+02
4.200000e-07	-2.492314e-06	-6.388083e-09	-1.758782e+01	-4.196136e+02
4.300000e-07	-2.454538e-06	-6.373757e-09	-1.732124e+01	-4.164760e+02
4.400000e-07	-2.416030e-06	-6.357985e-09	-1.704949e+01	-4.132730e+02
4.500000e-07	-2.376803e-06	-6.282597e-09	-1.677268e+01	-4.100047e+02
4.600000e-07	-2.336966e-06	-6.224246e-09	-1.649155e+01	-4.066618e+02
4.700000e-07	-2.296777e-06	-6.161071e-09	-1.620794e+01	-4.032239e+02
4.800000e-07	-2.256190e-06	-6.111005e-09	-1.592153e+01	-3.996682e+02
4.900000e-07	-2.214778e-06	-6.074048e-09	-1.562929e+01	-3.959825e+02
5.000000e-07	-2.172349e-06	-6.014553e-09	-1.532988e+01	-3.921751e+02
5.100000e-07	-2.129065e-06	-5.928346e-09	-1.502443e+01	-3.882735e+02
5.200000e-07	-2.085175e-06	-5.868866e-09	-1.471471e+01	-3.843100e+02
5.300000e-07	-2.040863e-06	-5.830643e-09	-1.440201e+01	-3.803028e+02
5.400000e-07	-1.996098e-06	-5.767225e-09	-1.408611e+01	-3.762438e+02
5.500000e-07	-1.950758e-06	-5.683471e-09	-1.376615e+01	-3.721001e+02
5.600000e-07	-1.904876e-06	-5.605186e-09	-1.344237e+01	-3.678320e+02
5.700000e-07	-1.858519e-06	-5.560988e-09	-1.311524e+01	-3.634151e+02
5.800000e-07	-1.811622e-06	-5.505292e-09	-1.278430e+01	-3.588548e+02
5.900000e-07	-1.764134e-06	-5.415585e-09	-1.244918e+01	-3.541833e+02
6.000000e-07	-1.716197e-06	-5.327775e-09	-1.211090e+01	-3.494400e+02
6.100000e-07	-1.667905e-06	-5.269455e-09	-1.177011e+01	-3.446467e+02
6.200000e-07	-1.619170e-06	-5.206868e-09	-1.142619e+01	-3.397924e+02
6.300000e-07	-1.569798e-06	-5.120260e-09	-1.107778e+01	-3.348369e+02
6.400000e-07	-1.519648e-06	-5.029067e-09	-1.072388e+01	-3.297333e+02
6.500000e-07	-1.468687e-06	-4.946527e-09	-1.036426e+01	-3.244557e+02
6.600000e-07	-1.417033e-06	-4.876770e-09	-9.999752e+00	-3.190156e+02
6.700000e-07	-1.364965e-06	-4.797257e-09	-9.632313e+00	-3.134575e+02
6.800000e-07	-1.312524e-06	-4.703070e-09	-9.262245e+00	-3.078346e+02
6.900000e-07	-1.259630e-06	-4.607402e-09	-8.888985e+00	-3.021782e+02
7.000000e-07	-1.206382e-06	-4.529260e-09	-8.513223e+00	-2.964778e+02
7.100000e-07	-1.152828e-06	-4.450619e-09	-8.135298e+00	-2.906847e+02
7.200000e-07	-1.098951e-06	-4.350660e-09	-7.755102e+00	-2.847369e+02
7.300000e-07	-1.044840e-06	-4.243186e-09	-7.373250e+00	-2.785919e+02
7.400000e-07	-9.904366e-07	-4.147696e-09	-6.989334e+00	-2.722495e+02
7.500000e-07	-9.357056e-07	-4.060927e-09	-6.603107e+00	-2.657512e+02
7.600000e-07	-8.807202e-07	-3.958691e-09	-6.215085e+00	-2.591557e+02
7.700000e-07	-8.255445e-07	-3.844573e-09	-5.825720e+00	-2.525058e+02
7.800000e-07	-7.701432e-07	-3.736943e-09	-5.434763e+00	-2.458020e+02
7.900000e-07	-7.144494e-07	-3.641987e-09	-5.041742e+00	-2.390010e+02
8.000000e-07	-6.585325e-07	-3.539345e-09	-4.647146e+00	-2.320370e+02
8.100000e-07	-6.024719e-07	-3.418554e-09	-4.251537e+00	-2.248572e+02
8.200000e-07	-5.463268e-07	-3.295545e-09	-3.855331e+00	-2.174503e+02
8.300000e-07	-4.901395e-07	-3.183756e-09	-3.458827e+00	-2.098537e+02
8.400000e-07	-4.339518e-07	-3.076018e-09	-3.062320e+00	-2.021352e+02
8.500000e-07	-3.777610e-07	-2.952668e-09	-2.665792e+00	-1.943577e+02
8.600000e-07	-3.215093e-07	-2.822950e-09	-2.268834e+00	-1.865456e+02
8.700000e-07	-2.652156e-07	-2.701851e-09	-1.871579e+00	-1.786699e+02
8.800000e-07	-2.089214e-07	-2.588317e-09	-1.474321e+00	-1.706591e+02
8.900000e-07	-1.525939e-07	-2.465995e-09	-1.076828e+00	-1.624315e+02
9.000000e-07	-9.620762e-08	-2.329017e-09	-6.789200e-01	-1.539317e+02
9.100000e-07	-3.981274e-08	-2.188829e-09	-2.809514e-01	-1.451551e+02
9.200000e-07	1.655020e-08	-2.053364e-09	1.167918e-01	-1.361482e+02
9.300000e-07	7.289675e-08	-1.916869e-09	5.144193e-01	-1.269856e+02
9.400000e-07	1.292472e-07	-1.768883e-09	9.120745e-01	-1.177351e+02
9.500000e-07	1.856443e-07	-1.618916e-09	1.310059e+00	-1.084271e+02
9.600000e-07	2.420301e-07	-1.476036e-09	1.707963e+00	-9.904219e+01
9.700000e-07	2.983242e-07	-1.337234e-09	2.105220e+00	-8.952245e+01
9.800000e-07	3.545839e-07	-1.189124e-09	2.502235e+00	-7.979855e+01
9.900000e-07	4.108525e-07	-1.031797e-09	2.899313e+00	-6.982133e+01
1.000000e-06	4.670938e-07	-8.750980e-10	3.296197e+00	-5.958236e+01
1.010000e-06	5.232557e-07	-7.208230e-10	3.692522e+00	-4.911524e+01
1.020000e-06	5.793530e-07	-5.602856e-10	4.088390e+00	-3.847835e+01
1.030000e-06	6.353792e-07	-3.892128e-10	4.483758e+00	-2.772822e+01
1.040000e-06	6.912688e-07	-2.186618e-10	4.878160e+00	-1.689660e+01
1.050000e-06	7.469976e-07	-5.486764e-11	5.271429e+00	-5.981491e+00
1.060000e-06	8.025310e-07	1.069999e-10	5.663318e+00	5.044468e+00
1.070000e-06	8.577763e-07	2.778569e-10	6.053174e+00	1.621385e+01
1.080000e-06	9.126885e-07	4.554570e-10	6.440680e+00	2.754314e+01
1.090000e-06	9.673291e-07	6.311762e-10	6.826268e+00	3.902097e+01
1.100000e-06	1.021775e-06	8.049390e-10	7.210483e+00	5.061089e+01
1.110000e-06	1.075995e-06	9.825904e-10	7.593107e+00	6.226609e+01
1.120000e-06	1.129911e-06	1.164838e-09	7.973578e+00	7.394719e+01
1.130000e-06	1.183533e-06	1.343733e-09	8.351977e+00	8.563341e+01
1.140000e-06	1.236791e-06	1.520362e-09	8.727812e+00	9.732168e+01
1.150000e-06	1.289573e-06	1.696680e-09	9.100287e+00	1.090152e+02
1.160000e-06	1.341951e-06	1.875187e-09	9.469908e+00	1.207094e+02
1.170000e-06	1.393970e-06	2.053563e-09	9.836996e+00	1.323832e+02
1.180000e-06	1.445574e-06	2.229088e-09	1.020116e+01	1.440023e+02
1.190000e-06	1.496532e-06	2.403415e-09	1.056076e+01	1.555302e+02
1.200000e-06	1.546645e-06	2.577143e-09	1.091440e+01	1.669413e+02
1.210000e-06	1.595983e-06	2.750132e-09	1.126257e+01	1.782266e+02
1.220000e-06	1.644754e-06	2.920113e-09	1.160673e+01	1.893887e+02
1.230000e-06	1.693128e-06	3.087680e-09	1.194810e+01	2.004286e+02
1.240000e-06	1.741169e-06	3.255017e-09	1.228712e+01	2.113331e+02
1.250000e-06	1.788838e-06	3.422693e-09	1.262351e+01	2.220713e+02
1.260000e-06	1.835967e-06	3.585356e-09	1.295609e+01	2.326031e+02
1.270000e-06	1.882531e-06	3.740806e-09	1.328468e+01	2.428963e+02
1.280000e-06	1.928595e-06	3.891655e-09	1.360975e+01	2.529400e+02
1.290000e-06	1.974111e-06	4.041777e-09	1.393095e+01	2.627473e+02
1.300000e-06	2.019040e-06	4.189865e-09	1.424801e+01	2.723422e+02
1.310000e-06	2.063544e-06	4.333094e-09	1.456206e+01	2.817394e+02
1.320000e-06	2.107769e-06	4.471669e-09	1.487415e+01	2.909262e+02
1.330000e-06	2.151648e-06	4.609153e-09	1.518380e+01	2.998601e+02
1.340000e-06	2.194874e-06	4.744848e-09	1.548883e+01	3.084847e+02
1.350000e-06	2.237072e-06	4.872153e-09	1.578662e+01	3.167558e+02
1.360000e-06	2.278267e-06	4.988989e-09	1.607732e+01	3.246645e+02
1.370000e-06	2.318750e-06	5.098644e-09	1.636301e+01	3.322445e+02
1.380000e-06	2.358771e-06	5.206421e-09	1.664543e+01	3.395569e+02
1.390000e-06	2.398327e-06	5.313823e-09	1.692456e+01	3.466620e+02
1.400000e-06	2.437239e-06	5.419147e-09	1.719916e+01	3.535901e+02
1.410000e-06	2.475474e-06	5.522013e-09	1.746898e+01	3.603296e+02
1.420000e-06	2.512973e-06	5.622121e-09	1.773360e+01	3.668363e+02
1.430000e-06	2.549757e-06	5.718396e-09	1.799318e+01	3.730601e+02
1.440000e-06	2.586055e-06	5.809039e-09	1.824933e+01	3.789745e+02
1.450000e-06	2.621832e-06	5.892491e-09	1.850180e+01	3.845934e+02
1.460000e-06	2.656749e-06	5.971143e-09	1.874820e+01	3.899665e+02
1.470000e-06	2.690588e-06	6.048614e-09	1.898700e+01	3.951570e+02
1.480000e-06	2.723453e-06	6.125035e-09	1.921892e+01	4.002143e+02
1.490000e-06	2.755592e-06	6.199901e-09	1.944572e+01	4.051543e+02
1.500000e-06	2.787095e-06	6.272597e-09	1.966803e+01	4.099585e+02
1.510000e-06	2.817884e-06	6.342778e-09	1.988530e+01	4.145883e+02
1.520000e-06	2.847858e-06	6.411265e-09	2.009683e+01	4.190076e+02
1.530000e-06	2.877008e-06	6.475317e-09	2.030253e+01	4.232008e+02
1.540000e-06	2.905518e-06	6.533222e-09	2.050372e+01	4.271783e+02
1.550000e-06	2.933450e-06	6.588561e-09	2.070084e+01	4.309696e+02
1.560000e-06	2.960402e-06	6.644234e-09	2.089103e+01	4.346098e+02
1.570000e-06	2.986062e-06	6.698242e-09	2.107211e+01	4.381262e+02
1.580000e-06	3.010706e-06	6.748110e-09	2.124601e+01	4.415317e+02
1.590000e-06	3.034587e-06	6.794539e-09	2.141454e+01	4.448242e+02
1.600000e-06	3.057691e-06	6.840330e-09	2.157758e+01	4.479905e+02
1.610000e-06	3.079987e-06	6.886203e-09	2.173492e+01	4.510109e+02
1.620000e-06	3.101406e-06	6.928172e-09	2.188607e+01	4.538635e+02
1.630000e-06	3.122078e-06	6.964346e-09	2.203195e+01	4.565288e+02
1.640000e-06	3.142172e-06	6.997695e-09	2.217375e+01	4.589959e+02
1.650000e-06	3.161477e-06	7.031308e-09	2.230998e+01	4.612691e+02
1.660000e-06	3.179749e-06	7.063375e-09	2.243892e+01	4.633717e+02
1.670000e-06	3.197077e-06	7.090448e-09	2.256120e+01	4.653428e+02
1.680000e-06	3.213544e-06	7.114801e-09	2.267741e+01	4.672259e+02
1.690000e-06	3.228978e-06	7.139267e-09	2.278632e+01	4.690529e+02
1.700000e-06	3.243438e-06	7.164090e-09	2.288836e+01	4.708303e+02
1.710000e-06	3.256986e-06	7.188312e-09	2.298397e+01	4.725356e+02
1.720000e-06	3.269639e-06	7.210622e-09	2.307326e+01	4.741265e+02
1.730000e-06	3.281374e-06	7.231116e-09	2.315607e+01	4.755604e+02
1.740000e-06	3.291865e-06	7.250021e-09	2.323011e+01	4.768141e+02
1.750000e-06	3.301081e-06	7.266368e-09	2.329514e+01	4.778951e+02
1.760000e-06	3.309362e-06	7.280149e-09	2.335357e+01	4.788393e+02
1.770000e-06	3.316834e-06	7.291696e-09	2.340631e+01	4.796953e+02
1.780000e-06	3.323390e-06	7.301867e-09	2.345257e+01	4.805050e+02
1.790000e-06	3.329032e-06	7.312130e-09	2.349239e+01	4.812890e+02
1.800000e-06	3.333869e-06	7.322455e-09	2.352652e+01	4.820413e+02
1.810000e-06	3.337975e-06	7.332540e-09	2.355549e+01	4.827363e+02
1.820000e-06	3.341072e-06	7.343071e-09	2.357735e+01	4.833407e+02
1.830000e-06	3.342844e-06	7.351093e-09	2.358985e+01	4.838247e+02
1.840000e-06	3.343545e-06	7.356270e-09	2.359480e+01	4.841697e+02
1.850000e-06	3.343475e-06	7.360533e-09	2.359431e+01	4.843706e+02
1.860000e-06	3.342578e-06	7.360941e-09	2.358798e+01	4.844368e+02
1.870000e-06	3.340841e-06	7.357909e-09	2.357572e+01	4.843905e+02
1.880000e-06	3.338226e-06	7.357155e-09	2.355726e+01	4.842646e+02
1.890000e-06	3.334859e-06	7.357087e-09	2.353350e+01	4.840952e+02
1.900000e-06	3.330832e-06	7.357331e-09	2.350509e+01	4.839095e+02
1.910000e-06	3.325814e-06	7.371940e-09	2.346967e+01	4.837122e+02
1.920000e-06	3.319583e-06	7.389502e-09	2.342571e+01	4.834772e+02
1.930000e-06	3.312335e-06	7.306015e-09	2.337455e+01	4.831530e+02
1.940000e-06	3.303994e-06	7.210676e-09	2.331569e+01	4.826819e+02
1.950000e-06	3.294185e-06	7.341270e-09	2.324648e+01	4.820290e+02
1.960000e-06	3.283355e-06	7.468575e-09	2.317005e+01	4.812051e+02
1.970000e-06	3.272396e-06	7.317476e-09	2.309272e+01	4.802715e+02
1.980000e-06	3.261014e-06	7.134254e-09	2.301239e+01	4.793198e+02
1.990000e-06	3.247978e-06	7.333293e-09	2.292040e+01	4.784324e+02
2.000000e-06	3.233315e-06	7.376400e-09	2.281693e+01	4.776436e+02
2.010000e-06	3.218113e-06	7.084965e-09	2.270965e+01	4.769187e+02
2.020000e-06	3.202233e-06	7.133519e-09	2.259759e+01	4.761649e+02
2.030000e-06	3.185193e-06	7.365187e-09	2.247733e+01	4.752699e+02
2.040000e-06	3.167516e-06	7.167101e-09	2.235260e+01	4.741507e+02
2.050000e-06	3.149304e-06	7.036056e-09	2.222407e+01	4.727884e+02
2.060000e-06	3.130194e-06	7.317032e-09	2.208922e+01	4.712320e+02
2.070000e-06	3.110382e-06	7.172419e-09	2.194941e+01	4.695710e+02
2.080000e-06	3.089694e-06	6.907418e-09	2.180342e+01	4.678910e+02
2.090000e-06	3.067586e-06	7.138050e-09	2.164741e+01	4.662344e+02
2.100000e-06	3.044393e-06	7.167869e-09	2.148374e+01	4.645878e+02
2.110000e-06	3.020496e-06	6.931336e-09	2.131510e+01	4.628974e+02
2.120000e-06	2.995710e-06	6.997126e-09	2.114019e+01	4.611036e+02
2.130000e-06	2.970185e-06	7.007143e-09	2.096006e+01	4.591734e+02
2.140000e-06	2.944012e-06	6.932547e-09	2.077537e+01	4.571148e+02
2.150000e-06	2.916973e-06	6.949677e-09	2.058455e+01	4.549660e+02
2.160000e-06	2.889213e-06	6.826611e-09	2.038866e+01	4.527692e+02
2.170000e-06	2.860572e-06	6.788513e-09	2.018655e+01	4.505452e+02
2.180000e-06	2.830620e-06	6.910825e-09	1.997518e+01	4.482825e+02
2.190000e-06	2.799618e-06	6.776777e-09	1.975641e+01	4.459470e+02
2.200000e-06	2.767922e-06	6.682082e-09	1.953273e+01	4.435020e+02
2.210000e-06	2.735468e-06	6.749884e-09	1.930371e+01	4.409287e+02
2.220000e-06	2.702282e-06	6.633836e-09	1.906952e+01	4.382336e+02
2.230000e-06	2.668381e-06	6.607537e-09	1.883028e+01	4.354408e+02
2.240000e-06	2.633699e-06	6.629542e-09	1.858555e+01	4.325770e+02
2.250000e-06	2.598436e-06	6.495392e-09	1.833670e+01	4.296578e+02
2.260000e-06	2.562702e-06	6.481188e-09	1.808453e+01	4.266846e+02
2.270000e-06	2.526202e-06	6.491884e-09	1.782695e+01	4.236505e+02
2.280000e-06	2.488585e-06	6.378404e-09	1.756150e+01	4.205497e+02
2.290000e-06	2.449927e-06	6.335432e-09	1.728870e+01	4.173821e+02
2.300000e-06	2.410619e-06	6.298603e-09	1.701131e+01	4.141499e+02
2.310000e-06	2.370856e-06	6.240694e-09	1.673070e+01	4.108497e+02
2.320000e-06	2.330530e-06	6.218944e-09	1.644613e+01	4.074665e+02
2.330000e-06	2.289594e-06	6.148780e-09	1.615726e+01	4.039774e+02
2.340000e-06	2.248079e-06	6.077327e-09	1.586429e+01	4.003628e+02
2.350000e-06	2.206013e-06	6.026524e-09	1.556744e+01	3.966193e+02
2.360000e-06	2.163324e-06	5.986213e-09	1.526619e+01	3.927649e+02
2.370000e-06	2.120075e-06	5.936935e-09	1.496099e+01	3.888316e+02
2.380000e-06	2.076475e-06	5.848390e-09	1.465331e+01	3.848476e+02
2.390000e-06	2.032454e-06	5.788300e-09	1.434267e+01	3.808197e+02
2.400000e-06	1.987785e-06	5.749024e-09	1.402744e+01	3.767272e+02
2.410000e-06	1.942395e-06	5.684633e-09	1.370714e+01	3.725313e+02
2.420000e-06	1.896479e-06	5.600325e-09	1.338311e+01	3.681967e+02
2.430000e-06	1.850169e-06	5.515963e-09	1.305631e+01	3.637118e+02
2.440000e-06	1.803397e-06	5.472467e-09	1.272625e+01	3.590958e+02
2.450000e-06	1.756093e-06	5.421172e-09	1.239243e+01	3.543874e+02
2.460000e-06	1.708107e-06	5.319857e-09	1.205380e+01	3.496206e+02
2.470000e-06	1.659424e-06	5.242620e-09	1.171026e+01	3.448032e+02
2.480000e-06	1.610270e-06	5.179425e-09	1.136339e+01	3.399088e+02
2.490000e-06	1.560716e-06	5.107485e-09	1.101369e+01	3.348909e+02
2.500000e-06	1.510689e-06	5.030127e-09	1.066066e+01	3.297090e+02
2.510000e-06	1.460145e-06	4.933828e-09	1.030399e+01	3.243534e+02
2.520000e-06	1.409093e-06	4.852589e-09	9.943715e+00	3.188527e+02
2.530000e-06	1.357664e-06	4.777300e-09	9.580794e+00	3.132593e+02
2.540000e-06	1.305928e-06	4.693865e-09	9.215702e+00	3.076198e+02
2.550000e-06	1.253793e-06	4.602003e-09	8.847794e+00	3.019476e+02
2.560000e-06	1.201123e-06	4.506038e-09	8.476108e+00	2.962126e+02
2.570000e-06	1.147837e-06	4.426595e-09	8.100081e+00	2.903561e+02
2.580000e-06	1.093975e-06	4.346184e-09	7.719983e+00	2.843212e+02
2.590000e-06	1.039539e-06	4.246452e-09	7.335838e+00	2.780833e+02
2.600000e-06	9.846488e-07	4.138535e-09	6.948490e+00	2.716628e+02
2.610000e-06	9.295096e-07	4.037915e-09	6.559383e+00	2.651131e+02
2.620000e-06	8.741991e-07	3.948824e-09	6.169067e+00	2.584899e+02
2.630000e-06	8.187751e-07	3.851012e-09	5.777950e+00	2.518184e+02
2.640000e-06	7.632401e-07	3.741134e-09	5.386049e+00	2.450778e+02
2.650000e-06	7.075649e-07	3.639803e-09	4.993159e+00	2.382107e+02
2.660000e-06	6.518030e-07	3.542079e-09	4.599657e+00	2.311526e+02
2.670000e-06	5.959332e-07	3.435941e-09	4.205394e+00	2.238674e+02
2.680000e-06	5.399248e-07	3.314060e-09	3.810152e+00	2.163666e+02
2.690000e-06	4.837616e-07	3.188829e-09	3.413819e+00	2.087054e+02
2.700000e-06	4.274344e-07	3.078405e-09	3.016328e+00	2.009541e+02
2.710000e-06	3.710028e-07	2.966779e-09	2.618100e+00	1.931612e+02
2.720000e-06	3.145444e-07	2.844721e-09	2.219684e+00	1.853270e+02
2.730000e-06	2.580517e-07	2.719255e-09	1.821025e+00	1.774000e+02
2.740000e-06	2.013914e-07	2.598628e-09	1.421183e+00	1.692996e+02
2.750000e-06	1.446276e-07	2.479399e-09	1.020611e+00	1.609517e+02
2.760000e-06	8.791984e-08	2.348291e-09	6.204346e-01	1.523225e+02
2.770000e-06	3.122680e-08	2.208522e-09	2.203620e-01	1.434324e+02
2.780000e-06	-2.553677e-08	2.071550e-09	-1.802084e-01	1.343448e+02
2.790000e-06	-8.231505e-08	1.939908e-09	-5.808826e-01	1.251355e+02
2.800000e-06	-1.390506e-07	1.804481e-09	-9.812550e-01	1.158581e+02
2.810000e-06	-1.957303e-07	1.658880e-09	-1.381234e+00	1.065204e+02
2.820000e-06	-2.524161e-07	1.509502e-09	-1.781255e+00	9.708269e+01
2.830000e-06	-3.090873e-07	1.364577e-09	-2.181174e+00	8.747774e+01
2.840000e-06	-3.656464e-07	1.219401e-09	-2.580302e+00	7.764197e+01
2.850000e-06	-4.220814e-07	1.064878e-09	-2.978553e+00	6.754339e+01
2.860000e-06	-4.783322e-07	9.029048e-10	-3.375505e+00	5.719392e+01
2.870000e-06	-5.343847e-07	7.431097e-10	-3.771057e+00	4.664152e+01
2.880000e-06	-5.902695e-07	5.848681e-10	-4.165426e+00	3.594711e+01
2.890000e-06	-6.460170e-07	4.201146e-10	-4.558826e+00	2.515804e+01
2.900000e-06	-7.016924e-07	2.504433e-10	-4.951718e+00	1.429061e+01
2.910000e-06	-7.573143e-07	8.107395e-11	-5.344232e+00	3.329258e+00
2.920000e-06	-8.128225e-07	-8.588499e-11	-5.735943e+00	-7.758624e+00
2.930000e-06	-8.681908e-07	-2.556305e-10	-6.126668e+00	-1.900051e+01
2.940000e-06	-9.233782e-07	-4.301202e-10	-6.516115e+00	-3.040072e+01
2.950000e-06	-9.783349e-07	-6.054116e-10	-6.903934e+00	-4.193519e+01
