# Temperatura_=_20.0
# Concentracion g/m^3_=_10000.0
# C_Vs_to_Am_M_A/Vsm_=_65563218390.804596
# pendiente_HvsI_1/m_=_3716.3
# ordenada_HvsI_A/m_=_1297.0
# frecuencia_Hz_=_269488.1477772046

Tiempo_(s)	Campo_(V.s)	Magnetizacion_(V.s)	Campo_(kA/m)	Magnetizacion_(A/m)
0.000000e+00	-3.327534e-06	-7.382827e-09	-2.347767e+01	-4.823846e+02
1.000000e-08	-3.327189e-06	-7.382409e-09	-2.347524e+01	-4.824938e+02
2.000000e-08	-3.326144e-06	-7.381554e-09	-2.346787e+01	-4.824753e+02
3.000000e-08	-3.323930e-06	-7.378260e-09	-2.345224e+01	-4.823443e+02
4.000000e-08	-3.320524e-06	-7.375665e-09	-2.342822e+01	-4.821305e+02
5.000000e-08	-3.316267e-06	-7.372885e-09	-2.339818e+01	-4.818754e+02
6.000000e-08	-3.311254e-06	-7.365980e-09	-2.336281e+01	-4.816172e+02
7.000000e-08	-3.305453e-06	-7.347379e-09	-2.332188e+01	-4.813687e+02
8.000000e-08	-3.298701e-06	-7.349693e-09	-2.327424e+01	-4.811017e+02
9.000000e-08	-3.290894e-06	-7.409682e-09	-2.321916e+01	-4.807519e+02
1.000000e-07	-3.281912e-06	-7.425015e-09	-2.315578e+01	-4.802462e+02
1.100000e-07	-3.271718e-06	-7.273327e-09	-2.308386e+01	-4.795428e+02
1.200000e-07	-3.260614e-06	-7.212015e-09	-2.300552e+01	-4.786615e+02
1.300000e-07	-3.248659e-06	-7.361574e-09	-2.292117e+01	-4.776848e+02
1.400000e-07	-3.235700e-06	-7.408859e-09	-2.282973e+01	-4.767245e+02
1.500000e-07	-3.221915e-06	-7.190654e-09	-2.273247e+01	-4.758678e+02
1.600000e-07	-3.207356e-06	-7.236324e-09	-2.262975e+01	-4.751309e+02
1.700000e-07	-3.191394e-06	-7.405430e-09	-2.251713e+01	-4.744438e+02
1.800000e-07	-3.174156e-06	-7.243007e-09	-2.239550e+01	-4.736786e+02
1.900000e-07	-3.156375e-06	-7.159292e-09	-2.227005e+01	-4.727064e+02
2.000000e-07	-3.137870e-06	-7.276957e-09	-2.213949e+01	-4.714555e+02
2.100000e-07	-3.118341e-06	-7.192765e-09	-2.200170e+01	-4.699410e+02
2.200000e-07	-3.098078e-06	-7.060940e-09	-2.185873e+01	-4.682517e+02
2.300000e-07	-3.077178e-06	-7.223327e-09	-2.171127e+01	-4.665038e+02
2.400000e-07	-3.055435e-06	-7.179362e-09	-2.155786e+01	-4.647850e+02
2.500000e-07	-3.032858e-06	-6.986363e-09	-2.139857e+01	-4.631192e+02
2.600000e-07	-3.009470e-06	-7.057882e-09	-2.123355e+01	-4.614664e+02
2.700000e-07	-2.985321e-06	-7.093010e-09	-2.106316e+01	-4.597528e+02
2.800000e-07	-2.960433e-06	-6.956981e-09	-2.088757e+01	-4.579130e+02
2.900000e-07	-2.934506e-06	-6.972475e-09	-2.070464e+01	-4.559185e+02
3.000000e-07	-2.907293e-06	-6.952873e-09	-2.051263e+01	-4.537826e+02
3.100000e-07	-2.879131e-06	-6.884125e-09	-2.031393e+01	-4.515421e+02
3.200000e-07	-2.850389e-06	-6.919285e-09	-2.011114e+01	-4.492321e+02
3.300000e-07	-2.820933e-06	-6.845396e-09	-1.990331e+01	-4.468698e+02
3.400000e-07	-2.790603e-06	-6.740896e-09	-1.968932e+01	-4.444548e+02
3.500000e-07	-2.759371e-06	-6.764556e-09	-1.946896e+01	-4.419800e+02
3.600000e-07	-2.727460e-06	-6.751994e-09	-1.924381e+01	-4.394442e+02
3.700000e-07	-2.695101e-06	-6.668669e-09	-1.901549e+01	-4.368527e+02
3.800000e-07	-2.662064e-06	-6.652678e-09	-1.878240e+01	-4.342087e+02
3.900000e-07	-2.627942e-06	-6.584136e-09	-1.854165e+01	-4.315006e+02
4.000000e-07	-2.592679e-06	-6.547438e-09	-1.829285e+01	-4.286995e+02
4.100000e-07	-2.556648e-06	-6.548735e-09	-1.803863e+01	-4.257700e+02
4.200000e-07	-2.520044e-06	-6.456964e-09	-1.778036e+01	-4.226905e+02
4.300000e-07	-2.482758e-06	-6.381227e-09	-1.751729e+01	-4.194703e+02
4.400000e-07	-2.444770e-06	-6.376905e-09	-1.724927e+01	-4.161509e+02
4.500000e-07	-2.406062e-06	-6.334165e-09	-1.697616e+01	-4.127877e+02
4.600000e-07	-2.366617e-06	-6.252740e-09	-1.669785e+01	-4.094216e+02
4.700000e-07	-2.326651e-06	-6.207483e-09	-1.641587e+01	-4.060559e+02
4.800000e-07	-2.286369e-06	-6.152874e-09	-1.613166e+01	-4.026525e+02
4.900000e-07	-2.245566e-06	-6.107780e-09	-1.584377e+01	-3.991506e+02
5.000000e-07	-2.203865e-06	-6.061999e-09	-1.554954e+01	-3.954979e+02
5.100000e-07	-2.161225e-06	-5.991026e-09	-1.524869e+01	-3.916770e+02
5.200000e-07	-2.117802e-06	-5.915562e-09	-1.494232e+01	-3.877129e+02
5.300000e-07	-2.073807e-06	-5.861608e-09	-1.463190e+01	-3.836573e+02
5.400000e-07	-2.029360e-06	-5.807607e-09	-1.431831e+01	-3.795604e+02
5.500000e-07	-1.984359e-06	-5.736569e-09	-1.400080e+01	-3.754455e+02
5.600000e-07	-1.938784e-06	-5.668590e-09	-1.367924e+01	-3.712994e+02
5.700000e-07	-1.892693e-06	-5.604164e-09	-1.335404e+01	-3.670830e+02
5.800000e-07	-1.846089e-06	-5.557051e-09	-1.302522e+01	-3.627523e+02
5.900000e-07	-1.798996e-06	-5.488913e-09	-1.269295e+01	-3.582780e+02
6.000000e-07	-1.751385e-06	-5.397319e-09	-1.235703e+01	-3.536529e+02
6.100000e-07	-1.703328e-06	-5.319333e-09	-1.201796e+01	-3.488861e+02
6.200000e-07	-1.654847e-06	-5.260091e-09	-1.167590e+01	-3.439916e+02
6.300000e-07	-1.605815e-06	-5.185612e-09	-1.132995e+01	-3.389800e+02
6.400000e-07	-1.556142e-06	-5.093867e-09	-1.097948e+01	-3.338585e+02
6.500000e-07	-1.505726e-06	-5.012263e-09	-1.062377e+01	-3.286371e+02
6.600000e-07	-1.454556e-06	-4.939286e-09	-1.026273e+01	-3.233325e+02
6.700000e-07	-1.402806e-06	-4.866480e-09	-9.897606e+00	-3.179635e+02
6.800000e-07	-1.350696e-06	-4.777867e-09	-9.529942e+00	-3.125383e+02
6.900000e-07	-1.298215e-06	-4.685509e-09	-9.159660e+00	-3.070418e+02
7.000000e-07	-1.245277e-06	-4.599408e-09	-8.786150e+00	-3.014337e+02
7.100000e-07	-1.191945e-06	-4.517450e-09	-8.409862e+00	-2.956622e+02
7.200000e-07	-1.138271e-06	-4.424283e-09	-8.031162e+00	-2.896895e+02
7.300000e-07	-1.084302e-06	-4.321448e-09	-7.650380e+00	-2.835152e+02
7.400000e-07	-1.030084e-06	-4.224270e-09	-7.267837e+00	-2.771826e+02
7.500000e-07	-9.755845e-07	-4.133119e-09	-6.883312e+00	-2.707622e+02
7.600000e-07	-9.208101e-07	-4.041676e-09	-6.496847e+00	-2.643173e+02
7.700000e-07	-8.657613e-07	-3.937379e-09	-6.108446e+00	-2.578696e+02
7.800000e-07	-8.105134e-07	-3.829249e-09	-5.718640e+00	-2.513827e+02
7.900000e-07	-7.550800e-07	-3.727481e-09	-5.327525e+00	-2.447757e+02
8.000000e-07	-6.993126e-07	-3.629638e-09	-4.934054e+00	-2.379591e+02
8.100000e-07	-6.433268e-07	-3.519493e-09	-4.539042e+00	-2.308778e+02
8.200000e-07	-5.872563e-07	-3.398135e-09	-4.143433e+00	-2.235375e+02
8.300000e-07	-5.311351e-07	-3.282101e-09	-3.747465e+00	-2.160021e+02
8.400000e-07	-4.750064e-07	-3.173545e-09	-3.351445e+00	-2.083628e+02
8.500000e-07	-4.188306e-07	-3.061106e-09	-2.955092e+00	-2.006938e+02
8.600000e-07	-3.626048e-07	-2.935524e-09	-2.558386e+00	-1.930173e+02
8.700000e-07	-3.063565e-07	-2.811588e-09	-2.161522e+00	-1.852932e+02
8.800000e-07	-2.500873e-07	-2.694092e-09	-1.764510e+00	-1.774383e+02
8.900000e-07	-1.938050e-07	-2.575201e-09	-1.367406e+00	-1.693630e+02
9.000000e-07	-1.374721e-07	-2.445541e-09	-9.699449e-01	-1.610088e+02
9.100000e-07	-8.109968e-08	-2.307435e-09	-5.722051e-01	-1.523694e+02
9.200000e-07	-2.474823e-08	-2.170881e-09	-1.746131e-01	-1.434876e+02
9.300000e-07	3.161445e-08	-2.035349e-09	2.230582e-01	-1.344326e+02
9.400000e-07	8.799217e-08	-1.893795e-09	6.208356e-01	-1.252695e+02
9.500000e-07	1.443590e-07	-1.745780e-09	1.018536e+00	-1.160345e+02
9.600000e-07	2.007127e-07	-1.601236e-09	1.416144e+00	-1.067247e+02
9.700000e-07	2.570455e-07	-1.459805e-09	1.813604e+00	-9.730520e+01
9.800000e-07	3.133208e-07	-1.315183e-09	2.210659e+00	-8.772580e+01
9.900000e-07	3.695420e-07	-1.161771e-09	2.607332e+00	-7.794187e+01
1.000000e-06	4.257418e-07	-1.005182e-09	3.003854e+00	-6.792917e+01
1.010000e-06	4.819120e-07	-8.510005e-10	3.400167e+00	-5.768931e+01
1.020000e-06	5.380666e-07	-6.957484e-10	3.796370e+00	-4.724538e+01
1.030000e-06	5.941783e-07	-5.331340e-10	4.192271e+00	-3.663106e+01
1.040000e-06	6.501865e-07	-3.629791e-10	4.587441e+00	-2.587803e+01
1.050000e-06	7.060589e-07	-1.942853e-10	4.981653e+00	-1.500688e+01
1.060000e-06	7.617625e-07	-2.819990e-11	5.374675e+00	-4.024336e+00
1.070000e-06	8.172806e-07	1.400291e-10	5.766387e+00	7.072981e+00
1.080000e-06	8.725244e-07	3.135702e-10	6.156164e+00	1.829082e+01
1.090000e-06	9.274114e-07	4.881284e-10	6.543423e+00	2.962990e+01
1.100000e-06	9.820014e-07	6.612046e-10	6.928587e+00	4.108240e+01
1.110000e-06	1.036361e-06	8.356164e-10	7.312126e+00	5.263338e+01
1.120000e-06	1.090500e-06	1.014867e-09	7.694108e+00	6.426515e+01
1.130000e-06	1.144373e-06	1.197873e-09	8.074214e+00	7.596074e+01
1.140000e-06	1.197923e-06	1.378637e-09	8.452037e+00	8.770350e+01
1.150000e-06	1.251028e-06	1.556512e-09	8.826725e+00	9.947287e+01
1.160000e-06	1.303655e-06	1.732158e-09	9.198036e+00	1.112400e+02
1.170000e-06	1.355919e-06	1.910058e-09	9.566793e+00	1.229680e+02
1.180000e-06	1.407809e-06	2.087193e-09	9.932908e+00	1.346190e+02
1.190000e-06	1.459234e-06	2.261669e-09	1.029574e+01	1.461661e+02
1.200000e-06	1.509938e-06	2.436459e-09	1.065348e+01	1.576031e+02
1.210000e-06	1.559741e-06	2.611225e-09	1.100488e+01	1.689440e+02
1.220000e-06	1.608877e-06	2.784788e-09	1.135156e+01	1.802104e+02
1.230000e-06	1.657542e-06	2.955657e-09	1.169492e+01	1.914104e+02
1.240000e-06	1.705827e-06	3.124678e-09	1.203560e+01	2.025211e+02
1.250000e-06	1.753805e-06	3.291323e-09	1.237411e+01	2.134857e+02
1.260000e-06	1.801374e-06	3.456049e-09	1.270974e+01	2.242296e+02
1.270000e-06	1.848370e-06	3.615538e-09	1.304132e+01	2.346907e+02
1.280000e-06	1.894791e-06	3.768915e-09	1.336885e+01	2.448469e+02
1.290000e-06	1.940669e-06	3.919986e-09	1.369254e+01	2.547257e+02
1.300000e-06	1.985989e-06	4.070877e-09	1.401230e+01	2.643890e+02
1.310000e-06	2.030783e-06	4.219730e-09	1.432835e+01	2.738972e+02
1.320000e-06	2.075181e-06	4.361950e-09	1.464160e+01	2.832723e+02
1.330000e-06	2.119288e-06	4.499606e-09	1.495280e+01	2.924799e+02
1.340000e-06	2.163034e-06	4.636126e-09	1.526146e+01	3.014405e+02
1.350000e-06	2.206016e-06	4.769415e-09	1.556471e+01	3.100661e+02
1.360000e-06	2.247908e-06	4.893890e-09	1.586029e+01	3.183020e+02
1.370000e-06	2.288887e-06	5.009352e-09	1.614942e+01	3.261525e+02
1.380000e-06	2.329254e-06	5.120589e-09	1.643423e+01	3.336757e+02
1.390000e-06	2.369156e-06	5.230493e-09	1.671577e+01	3.409513e+02
1.400000e-06	2.408483e-06	5.339783e-09	1.699324e+01	3.480391e+02
1.410000e-06	2.447213e-06	5.445064e-09	1.726650e+01	3.549519e+02
1.420000e-06	2.485326e-06	5.544869e-09	1.753541e+01	3.616559e+02
1.430000e-06	2.522682e-06	5.641326e-09	1.779898e+01	3.680979e+02
1.440000e-06	2.559367e-06	5.735282e-09	1.805781e+01	3.742410e+02
1.450000e-06	2.595602e-06	5.823159e-09	1.831347e+01	3.800889e+02
1.460000e-06	2.631218e-06	5.904023e-09	1.856476e+01	3.856839e+02
1.470000e-06	2.665853e-06	5.982058e-09	1.880913e+01	3.910833e+02
1.480000e-06	2.699389e-06	6.060561e-09	1.904575e+01	3.963289e+02
1.490000e-06	2.732028e-06	6.139382e-09	1.927604e+01	4.014281e+02
1.500000e-06	2.764059e-06	6.215155e-09	1.950204e+01	4.063582e+02
1.510000e-06	2.795405e-06	6.286349e-09	1.972320e+01	4.110888e+02
1.520000e-06	2.826008e-06	6.354862e-09	1.993912e+01	4.156066e+02
1.530000e-06	2.855849e-06	6.421698e-09	2.014966e+01	4.199262e+02
1.540000e-06	2.884854e-06	6.483989e-09	2.035431e+01	4.240807e+02
1.550000e-06	2.913244e-06	6.541187e-09	2.055462e+01	4.280992e+02
1.560000e-06	2.941013e-06	6.596435e-09	2.075055e+01	4.319868e+02
1.570000e-06	2.967672e-06	6.653287e-09	2.093864e+01	4.357226e+02
1.580000e-06	2.993027e-06	6.709995e-09	2.111753e+01	4.392759e+02
1.590000e-06	3.017430e-06	6.760945e-09	2.128971e+01	4.426319e+02
1.600000e-06	3.041114e-06	6.807188e-09	2.145682e+01	4.458076e+02
1.610000e-06	3.064012e-06	6.853096e-09	2.161838e+01	4.488463e+02
1.620000e-06	3.086078e-06	6.899201e-09	2.177406e+01	4.517921e+02
1.630000e-06	3.107307e-06	6.940092e-09	2.192385e+01	4.546598e+02
1.640000e-06	3.127832e-06	6.975365e-09	2.206866e+01	4.574194e+02
1.650000e-06	3.147715e-06	7.009072e-09	2.220894e+01	4.600082e+02
1.660000e-06	3.166720e-06	7.043960e-09	2.234304e+01	4.623650e+02
1.670000e-06	3.184720e-06	7.076887e-09	2.247004e+01	4.644680e+02
1.680000e-06	3.201775e-06	7.103859e-09	2.259037e+01	4.663543e+02
1.690000e-06	3.217867e-06	7.128735e-09	2.270391e+01	4.681072e+02
1.700000e-06	3.232947e-06	7.154435e-09	2.281031e+01	4.698168e+02
1.710000e-06	3.247144e-06	7.179667e-09	2.291048e+01	4.715363e+02
1.720000e-06	3.260472e-06	7.202753e-09	2.300451e+01	4.732551e+02
1.730000e-06	3.272889e-06	7.223451e-09	2.309212e+01	4.749070e+02
1.740000e-06	3.284324e-06	7.243827e-09	2.317280e+01	4.764049e+02
1.750000e-06	3.294503e-06	7.263635e-09	2.324462e+01	4.776863e+02
1.760000e-06	3.303490e-06	7.280518e-09	2.330803e+01	4.787427e+02
1.770000e-06	3.311602e-06	7.294855e-09	2.336527e+01	4.796202e+02
1.780000e-06	3.318895e-06	7.306878e-09	2.341672e+01	4.803934e+02
1.790000e-06	3.325296e-06	7.317422e-09	2.346188e+01	4.811290e+02
1.800000e-06	3.330779e-06	7.326720e-09	2.350057e+01	4.818581e+02
1.810000e-06	3.335420e-06	7.335164e-09	2.353332e+01	4.825713e+02
1.820000e-06	3.339276e-06	7.343614e-09	2.356052e+01	4.832329e+02
1.830000e-06	3.342082e-06	7.351700e-09	2.358032e+01	4.838027e+02
1.840000e-06	3.343615e-06	7.358217e-09	2.359114e+01	4.842524e+02
1.850000e-06	3.344134e-06	7.363621e-09	2.359480e+01	4.845693e+02
1.860000e-06	3.343820e-06	7.367880e-09	2.359258e+01	4.847514e+02
1.870000e-06	3.342677e-06	7.368505e-09	2.358451e+01	4.848018e+02
1.880000e-06	3.340750e-06	7.367002e-09	2.357092e+01	4.847299e+02
1.890000e-06	3.338002e-06	7.366033e-09	2.355154e+01	4.845573e+02
1.900000e-06	3.334518e-06	7.362868e-09	2.352695e+01	4.843200e+02
1.910000e-06	3.330257e-06	7.359746e-09	2.349689e+01	4.840607e+02
1.920000e-06	3.324914e-06	7.372300e-09	2.345919e+01	4.838085e+02
1.930000e-06	3.318381e-06	7.376254e-09	2.341309e+01	4.835585e+02
1.940000e-06	3.310880e-06	7.293042e-09	2.336017e+01	4.832639e+02
1.950000e-06	3.302226e-06	7.245173e-09	2.329912e+01	4.828516e+02
1.960000e-06	3.292090e-06	7.388518e-09	2.322759e+01	4.822580e+02
1.970000e-06	3.281149e-06	7.432032e-09	2.315040e+01	4.814674e+02
1.980000e-06	3.270207e-06	7.266869e-09	2.307320e+01	4.805302e+02
1.990000e-06	3.258524e-06	7.176901e-09	2.299077e+01	4.795482e+02
2.000000e-06	3.245005e-06	7.372011e-09	2.289538e+01	4.786289e+02
2.010000e-06	3.230176e-06	7.313658e-09	2.279076e+01	4.778313e+02
2.020000e-06	3.214868e-06	7.091653e-09	2.268275e+01	4.771314e+02
2.030000e-06	3.198652e-06	7.221703e-09	2.256833e+01	4.764268e+02
2.040000e-06	3.181338e-06	7.340095e-09	2.244618e+01	4.755813e+02
2.050000e-06	3.163496e-06	7.146163e-09	2.232029e+01	4.744862e+02
2.060000e-06	3.145025e-06	7.143347e-09	2.218997e+01	4.731082e+02
2.070000e-06	3.125638e-06	7.303949e-09	2.205318e+01	4.715005e+02
2.080000e-06	3.105598e-06	7.077419e-09	2.191178e+01	4.697714e+02
2.090000e-06	3.084609e-06	7.013240e-09	2.176370e+01	4.680302e+02
2.100000e-06	3.062151e-06	7.204683e-09	2.160524e+01	4.663379e+02
2.110000e-06	3.038720e-06	7.068323e-09	2.143993e+01	4.646869e+02
2.120000e-06	3.014581e-06	6.953250e-09	2.126961e+01	4.630167e+02
2.130000e-06	2.989504e-06	7.079799e-09	2.109267e+01	4.612525e+02
2.140000e-06	2.963775e-06	6.970160e-09	2.091115e+01	4.593434e+02
2.150000e-06	2.937381e-06	6.933532e-09	2.072492e+01	4.572814e+02
2.160000e-06	2.910136e-06	6.977715e-09	2.053269e+01	4.550934e+02
2.170000e-06	2.882115e-06	6.811638e-09	2.033499e+01	4.528184e+02
2.180000e-06	2.853076e-06	6.817534e-09	2.013010e+01	4.504845e+02
2.190000e-06	2.822816e-06	6.915577e-09	1.991660e+01	4.480998e+02
2.200000e-06	2.791618e-06	6.741235e-09	1.969648e+01	4.456589e+02
2.210000e-06	2.759698e-06	6.693274e-09	1.947127e+01	4.431567e+02
2.220000e-06	2.727013e-06	6.746318e-09	1.924065e+01	4.405955e+02
2.230000e-06	2.693651e-06	6.624443e-09	1.900526e+01	4.379811e+02
2.240000e-06	2.659510e-06	6.628340e-09	1.876438e+01	4.353111e+02
2.250000e-06	2.624575e-06	6.604588e-09	1.851789e+01	4.325657e+02
2.260000e-06	2.589145e-06	6.488692e-09	1.826791e+01	4.297107e+02
2.270000e-06	2.553226e-06	6.515603e-09	1.801448e+01	4.267144e+02
2.280000e-06	2.516494e-06	6.478049e-09	1.775532e+01	4.235680e+02
2.290000e-06	2.478668e-06	6.360486e-09	1.748844e+01	4.202967e+02
2.300000e-06	2.439860e-06	6.341659e-09	1.721462e+01	4.169514e+02
2.310000e-06	2.400485e-06	6.298239e-09	1.693681e+01	4.135846e+02
2.320000e-06	2.360578e-06	6.238472e-09	1.665524e+01	4.102218e+02
2.330000e-06	2.320094e-06	6.201419e-09	1.636960e+01	4.068465e+02
2.340000e-06	2.279038e-06	6.128449e-09	1.607993e+01	4.034067e+02
2.350000e-06	2.237369e-06	6.074869e-09	1.578593e+01	3.998414e+02
2.360000e-06	2.195159e-06	6.026257e-09	1.548811e+01	3.961120e+02
2.370000e-06	2.152344e-06	5.975364e-09	1.518603e+01	3.922210e+02
2.380000e-06	2.109019e-06	5.916121e-09	1.488035e+01	3.882088e+02
2.390000e-06	2.065356e-06	5.841088e-09	1.457228e+01	3.841301e+02
2.400000e-06	2.021252e-06	5.789670e-09	1.426110e+01	3.800252e+02
2.410000e-06	1.976524e-06	5.729986e-09	1.394552e+01	3.759005e+02
2.420000e-06	1.931006e-06	5.660258e-09	1.362436e+01	3.717288e+02
2.430000e-06	1.884832e-06	5.582608e-09	1.329858e+01	3.674658e+02
2.440000e-06	1.838270e-06	5.508186e-09	1.297005e+01	3.630725e+02
2.450000e-06	1.791213e-06	5.468718e-09	1.263804e+01	3.585296e+02
2.460000e-06	1.743566e-06	5.403430e-09	1.230186e+01	3.538388e+02
2.470000e-06	1.695353e-06	5.306296e-09	1.196170e+01	3.490127e+02
2.480000e-06	1.646585e-06	5.238360e-09	1.161761e+01	3.440645e+02
2.490000e-06	1.597365e-06	5.168192e-09	1.127033e+01	3.390024e+02
2.500000e-06	1.547721e-06	5.087514e-09	1.092006e+01	3.338344e+02
2.510000e-06	1.497607e-06	5.000813e-09	1.056649e+01	3.285734e+02
2.520000e-06	1.446990e-06	4.909369e-09	1.020935e+01	3.232381e+02
2.530000e-06	1.395885e-06	4.840336e-09	9.848775e+00	3.178444e+02
2.540000e-06	1.344370e-06	4.761090e-09	9.485306e+00	3.123910e+02
2.550000e-06	1.292449e-06	4.671077e-09	9.118972e+00	3.068504e+02
2.560000e-06	1.240081e-06	4.582957e-09	8.749490e+00	3.011745e+02
2.570000e-06	1.187243e-06	4.496054e-09	8.376685e+00	2.953146e+02
2.580000e-06	1.133803e-06	4.411959e-09	7.999638e+00	2.892477e+02
2.590000e-06	1.079755e-06	4.315432e-09	7.618297e+00	2.829940e+02
2.600000e-06	1.025247e-06	4.213058e-09	7.233712e+00	2.766128e+02
2.610000e-06	9.703398e-07	4.110766e-09	6.846307e+00	2.701761e+02
2.620000e-06	9.151407e-07	4.013153e-09	6.456847e+00	2.637316e+02
2.630000e-06	8.597621e-07	3.922015e-09	6.066118e+00	2.572746e+02
2.640000e-06	8.042618e-07	3.821751e-09	5.674531e+00	2.507452e+02
2.650000e-06	7.486599e-07	3.717145e-09	5.282228e+00	2.440529e+02
2.660000e-06	6.929713e-07	3.619457e-09	4.889313e+00	2.371194e+02
2.670000e-06	6.371543e-07	3.516365e-09	4.495492e+00	2.299156e+02
2.680000e-06	5.812265e-07	3.400387e-09	4.100888e+00	2.224762e+02
2.690000e-06	5.251955e-07	3.273940e-09	3.705558e+00	2.148828e+02
2.700000e-06	4.689763e-07	3.155832e-09	3.308898e+00	2.072241e+02
2.710000e-06	4.126133e-07	3.049616e-09	2.911225e+00	1.995537e+02
2.720000e-06	3.561299e-07	2.932954e-09	2.512702e+00	1.918646e+02
2.730000e-06	2.995378e-07	2.808804e-09	2.113412e+00	1.840931e+02
2.740000e-06	2.429077e-07	2.687406e-09	1.713854e+00	1.761481e+02
2.750000e-06	1.862350e-07	2.570925e-09	1.313996e+00	1.679502e+02
2.760000e-06	1.295131e-07	2.447311e-09	9.137900e-01	1.594636e+02
2.770000e-06	7.273652e-08	2.309188e-09	5.131981e-01	1.507064e+02
2.780000e-06	1.595891e-08	2.169197e-09	1.125993e-01	1.417370e+02
2.790000e-06	-4.078350e-08	2.033838e-09	-2.877511e-01	1.326266e+02
2.800000e-06	-9.755188e-08	1.900285e-09	-6.882849e-01	1.234293e+02
2.810000e-06	-1.542887e-07	1.761348e-09	-1.088596e+00	1.141635e+02
2.820000e-06	-2.109581e-07	1.616429e-09	-1.488431e+00	1.048101e+02
2.830000e-06	-2.676387e-07	1.471350e-09	-1.888346e+00	9.532451e+01
2.840000e-06	-3.242433e-07	1.328011e-09	-2.287724e+00	8.565683e+01
2.850000e-06	-3.806689e-07	1.180376e-09	-2.685839e+00	7.577040e+01
2.860000e-06	-4.370051e-07	1.024932e-09	-3.083323e+00	6.565278e+01
2.870000e-06	-4.932789e-07	8.660337e-10	-3.480368e+00	5.531647e+01
2.880000e-06	-5.493737e-07	7.087393e-10	-3.876149e+00	4.479101e+01
2.890000e-06	-6.052561e-07	5.502152e-10	-4.270432e+00	3.411059e+01
2.900000e-06	-6.610060e-07	3.837742e-10	-4.663779e+00	2.330262e+01
2.910000e-06	-7.166850e-07	2.139188e-10	-5.056626e+00	1.238124e+01
2.920000e-06	-7.722608e-07	4.681318e-11	-5.448746e+00	1.347737e+00
2.930000e-06	-8.276960e-07	-1.182985e-10	-5.839873e+00	-9.803374e+00
2.940000e-06	-8.830195e-07	-2.893072e-10	-6.230213e+00	-2.107629e+01
2.950000e-06	-9.381803e-07	-4.666631e-10	-6.619404e+00	-3.246794e+01
