# Temperatura_=_20.0
# Concentracion g/m^3_=_10000.0
# C_Vs_to_Am_M_A/Vsm_=_65563218390.804596
# pendiente_HvsI_1/m_=_3716.3
# ordenada_HvsI_A/m_=_1297.0
# frecuencia_Hz_=_269484.70634084224

Tiempo_(s)	Campo_(V.s)	Magnetizacion_(V.s)	Campo_(kA/m)	Magnetizacion_(A/m)
0.000000e+00	-3.335690e-06	-7.391574e-09	-2.348073e+01	-4.823136e+02
1.000000e-08	-3.335327e-06	-7.392725e-09	-2.347817e+01	-4.824169e+02
2.000000e-08	-3.334152e-06	-7.392383e-09	-2.346990e+01	-4.823766e+02
3.000000e-08	-3.331793e-06	-7.389747e-09	-2.345330e+01	-4.822443e+02
4.000000e-08	-3.328253e-06	-7.385093e-09	-2.342838e+01	-4.820734e+02
5.000000e-08	-3.323903e-06	-7.379919e-09	-2.339775e+01	-4.818958e+02
6.000000e-08	-3.318823e-06	-7.372816e-09	-2.336200e+01	-4.817084e+02
7.000000e-08	-3.312911e-06	-7.358250e-09	-2.332038e+01	-4.814734e+02
8.000000e-08	-3.306032e-06	-7.364372e-09	-2.327195e+01	-4.811346e+02
9.000000e-08	-3.298018e-06	-7.405322e-09	-2.321555e+01	-4.806435e+02
1.000000e-07	-3.288750e-06	-7.403042e-09	-2.315031e+01	-4.799842e+02
1.100000e-07	-3.278244e-06	-7.295106e-09	-2.307635e+01	-4.791879e+02
1.200000e-07	-3.266813e-06	-7.244382e-09	-2.299588e+01	-4.783259e+02
1.300000e-07	-3.254585e-06	-7.349724e-09	-2.290981e+01	-4.774841e+02
1.400000e-07	-3.241456e-06	-7.359616e-09	-2.281739e+01	-4.767265e+02
1.500000e-07	-3.227531e-06	-7.235137e-09	-2.271937e+01	-4.760633e+02
1.600000e-07	-3.212707e-06	-7.266924e-09	-2.261502e+01	-4.754402e+02
1.700000e-07	-3.196432e-06	-7.354589e-09	-2.250046e+01	-4.747546e+02
1.800000e-07	-3.179003e-06	-7.247445e-09	-2.237777e+01	-4.738944e+02
1.900000e-07	-3.161096e-06	-7.175398e-09	-2.225172e+01	-4.727830e+02
2.000000e-07	-3.142500e-06	-7.261810e-09	-2.212081e+01	-4.714097e+02
2.100000e-07	-3.122932e-06	-7.196002e-09	-2.198307e+01	-4.698315e+02
2.200000e-07	-3.102607e-06	-7.084006e-09	-2.184000e+01	-4.681457e+02
2.300000e-07	-3.081593e-06	-7.177369e-09	-2.169208e+01	-4.664458e+02
2.400000e-07	-3.059760e-06	-7.170761e-09	-2.153839e+01	-4.647825e+02
2.500000e-07	-3.037093e-06	-7.028469e-09	-2.137883e+01	-4.631480e+02
2.600000e-07	-3.013588e-06	-7.030215e-09	-2.121337e+01	-4.614883e+02
2.700000e-07	-2.989318e-06	-7.063958e-09	-2.104253e+01	-4.597353e+02
2.800000e-07	-2.964317e-06	-7.002532e-09	-2.086654e+01	-4.578414e+02
2.900000e-07	-2.938229e-06	-6.958369e-09	-2.068291e+01	-4.557981e+02
3.000000e-07	-2.910880e-06	-6.926550e-09	-2.049039e+01	-4.536327e+02
3.100000e-07	-2.882681e-06	-6.900173e-09	-2.029189e+01	-4.513871e+02
3.200000e-07	-2.853848e-06	-6.896096e-09	-2.008893e+01	-4.490935e+02
3.300000e-07	-2.824226e-06	-6.833301e-09	-1.988041e+01	-4.467608e+02
3.400000e-07	-2.793737e-06	-6.765654e-09	-1.966579e+01	-4.443765e+02
3.500000e-07	-2.762460e-06	-6.756664e-09	-1.944562e+01	-4.419197e+02
3.600000e-07	-2.730546e-06	-6.725322e-09	-1.922097e+01	-4.393761e+02
3.700000e-07	-2.698038e-06	-6.685206e-09	-1.899214e+01	-4.367430e+02
3.800000e-07	-2.664695e-06	-6.645736e-09	-1.875743e+01	-4.340254e+02
3.900000e-07	-2.630217e-06	-6.572255e-09	-1.851473e+01	-4.312263e+02
4.000000e-07	-2.594715e-06	-6.545581e-09	-1.826483e+01	-4.283411e+02
4.100000e-07	-2.558590e-06	-6.534484e-09	-1.801053e+01	-4.253611e+02
4.200000e-07	-2.521930e-06	-6.454838e-09	-1.775248e+01	-4.222836e+02
4.300000e-07	-2.484556e-06	-6.387239e-09	-1.748939e+01	-4.191203e+02
4.400000e-07	-2.446388e-06	-6.364039e-09	-1.722072e+01	-4.158962e+02
4.500000e-07	-2.407454e-06	-6.320546e-09	-1.694665e+01	-4.126367e+02
4.600000e-07	-2.367850e-06	-6.264326e-09	-1.666787e+01	-4.093504e+02
4.700000e-07	-2.327805e-06	-6.204315e-09	-1.638598e+01	-4.060172e+02
4.800000e-07	-2.287376e-06	-6.140127e-09	-1.610139e+01	-4.025933e+02
4.900000e-07	-2.246257e-06	-6.095844e-09	-1.581195e+01	-3.990307e+02
5.000000e-07	-2.204254e-06	-6.051778e-09	-1.551627e+01	-3.953021e+02
5.100000e-07	-2.161320e-06	-5.981109e-09	-1.521405e+01	-3.914177e+02
5.200000e-07	-2.117637e-06	-5.906929e-09	-1.490656e+01	-3.874218e+02
5.300000e-07	-2.073532e-06	-5.851359e-09	-1.459609e+01	-3.833712e+02
5.400000e-07	-2.028958e-06	-5.801050e-09	-1.428232e+01	-3.793055e+02
5.500000e-07	-1.983799e-06	-5.738493e-09	-1.396444e+01	-3.752266e+02
5.600000e-07	-1.938117e-06	-5.659881e-09	-1.364288e+01	-3.710984e+02
5.700000e-07	-1.891952e-06	-5.591293e-09	-1.331791e+01	-3.668660e+02
5.800000e-07	-1.845267e-06	-5.541252e-09	-1.298928e+01	-3.624839e+02
5.900000e-07	-1.797985e-06	-5.476647e-09	-1.265645e+01	-3.579363e+02
6.000000e-07	-1.750161e-06	-5.389984e-09	-1.231980e+01	-3.532397e+02
6.100000e-07	-1.701935e-06	-5.310359e-09	-1.198033e+01	-3.484273e+02
6.200000e-07	-1.653272e-06	-5.244589e-09	-1.163778e+01	-3.435274e+02
6.300000e-07	-1.603991e-06	-5.174125e-09	-1.129088e+01	-3.385480e+02
6.400000e-07	-1.553972e-06	-5.089994e-09	-1.093878e+01	-3.334778e+02
6.500000e-07	-1.503187e-06	-5.000157e-09	-1.058130e+01	-3.282997e+02
6.600000e-07	-1.451672e-06	-4.920903e-09	-1.021867e+01	-3.230070e+02
6.700000e-07	-1.399686e-06	-4.849177e-09	-9.852730e+00	-3.176095e+02
6.800000e-07	-1.347404e-06	-4.766559e-09	-9.484702e+00	-3.121248e+02
6.900000e-07	-1.294708e-06	-4.671031e-09	-9.113760e+00	-3.065615e+02
7.000000e-07	-1.241551e-06	-4.580483e-09	-8.739575e+00	-3.009055e+02
7.100000e-07	-1.188015e-06	-4.501018e-09	-8.362722e+00	-2.951213e+02
7.200000e-07	-1.134176e-06	-4.415901e-09	-7.983739e+00	-2.891701e+02
7.300000e-07	-1.080081e-06	-4.314659e-09	-7.602952e+00	-2.830339e+02
7.400000e-07	-1.025707e-06	-4.209853e-09	-7.220202e+00	-2.767315e+02
7.500000e-07	-9.710202e-07	-4.115521e-09	-6.835246e+00	-2.703128e+02
7.600000e-07	-9.160690e-07	-4.023223e-09	-6.448431e+00	-2.638341e+02
7.700000e-07	-8.608277e-07	-3.920002e-09	-6.059574e+00	-2.573244e+02
7.800000e-07	-8.052945e-07	-3.809716e-09	-5.668663e+00	-2.507645e+02
7.900000e-07	-7.495375e-07	-3.704602e-09	-5.276176e+00	-2.440900e+02
8.000000e-07	-6.936232e-07	-3.606052e-09	-4.882582e+00	-2.372205e+02
8.100000e-07	-6.376455e-07	-3.498668e-09	-4.488541e+00	-2.300994e+02
8.200000e-07	-5.816242e-07	-3.377172e-09	-4.094193e+00	-2.227231e+02
8.300000e-07	-5.255537e-07	-3.254964e-09	-3.699500e+00	-2.151451e+02
8.400000e-07	-4.694501e-07	-3.142632e-09	-3.304573e+00	-2.074500e+02
8.500000e-07	-4.133308e-07	-3.030639e-09	-2.909535e+00	-1.997124e+02
8.600000e-07	-3.571633e-07	-2.907470e-09	-2.514159e+00	-1.919600e+02
8.700000e-07	-3.008954e-07	-2.780805e-09	-2.118076e+00	-1.841606e+02
8.800000e-07	-2.445699e-07	-2.661494e-09	-1.721586e+00	-1.762372e+02
8.900000e-07	-1.882187e-07	-2.544618e-09	-1.324917e+00	-1.681037e+02
9.000000e-07	-1.318162e-07	-2.417220e-09	-9.278863e-01	-1.597020e+02
9.100000e-07	-7.538573e-08	-2.278315e-09	-5.306584e-01	-1.510242e+02
9.200000e-07	-1.892994e-08	-2.138897e-09	-1.332524e-01	-1.421098e+02
9.300000e-07	3.752567e-08	-2.003605e-09	2.641523e-01	-1.330243e+02
9.400000e-07	9.393608e-08	-1.864724e-09	6.612388e-01	-1.238291e+02
9.500000e-07	1.503014e-07	-1.718622e-09	1.058008e+00	-1.145577e+02
9.600000e-07	2.067081e-07	-1.571084e-09	1.455068e+00	-1.052065e+02
9.700000e-07	2.631236e-07	-1.428685e-09	1.852190e+00	-9.574121e+01
9.800000e-07	3.194390e-07	-1.285842e-09	2.248608e+00	-8.611290e+01
9.900000e-07	3.757031e-07	-1.133882e-09	2.644665e+00	-7.627582e+01
1.000000e-06	4.319554e-07	-9.768780e-10	3.040639e+00	-6.620149e+01
1.010000e-06	4.881501e-07	-8.204610e-10	3.436206e+00	-5.588557e+01
1.020000e-06	5.442740e-07	-6.630599e-10	3.831276e+00	-4.534744e+01
1.030000e-06	6.003491e-07	-4.994021e-10	4.226002e+00	-3.462364e+01
1.040000e-06	6.563277e-07	-3.289383e-10	4.620049e+00	-2.375685e+01
1.050000e-06	7.122145e-07	-1.589349e-10	5.013450e+00	-1.278301e+01
1.060000e-06	7.679650e-07	6.856779e-12	5.405891e+00	-1.720494e+00
1.070000e-06	8.235434e-07	1.742231e-10	5.797121e+00	9.434382e+00
1.080000e-06	8.788887e-07	3.478874e-10	6.186710e+00	2.070263e+01
1.090000e-06	9.339522e-07	5.239435e-10	6.574315e+00	3.210949e+01
1.100000e-06	9.887366e-07	6.977771e-10	6.959956e+00	4.366809e+01
1.110000e-06	1.043211e-06	8.720372e-10	7.343415e+00	5.536734e+01
1.120000e-06	1.097417e-06	1.052682e-09	7.724982e+00	6.717027e+01
1.130000e-06	1.151345e-06	1.237948e-09	8.104595e+00	7.902392e+01
1.140000e-06	1.204972e-06	1.420636e-09	8.482091e+00	9.087601e+01
1.150000e-06	1.258255e-06	1.597859e-09	8.857161e+00	1.026899e+02
1.160000e-06	1.311037e-06	1.773730e-09	9.228709e+00	1.144503e+02
1.170000e-06	1.363344e-06	1.953145e-09	9.596910e+00	1.261581e+02
1.180000e-06	1.415314e-06	2.131029e-09	9.962741e+00	1.378181e+02
1.190000e-06	1.466860e-06	2.305644e-09	1.032559e+01	1.494269e+02
1.200000e-06	1.517821e-06	2.480528e-09	1.068431e+01	1.609682e+02
1.210000e-06	1.568103e-06	2.655427e-09	1.103826e+01	1.724169e+02
1.220000e-06	1.617617e-06	2.829405e-09	1.138679e+01	1.837463e+02
1.230000e-06	1.666367e-06	3.000403e-09	1.172996e+01	1.949343e+02
1.240000e-06	1.714632e-06	3.167733e-09	1.206971e+01	2.059630e+02
1.250000e-06	1.762583e-06	3.332657e-09	1.240725e+01	2.168142e+02
1.260000e-06	1.810101e-06	3.496676e-09	1.274174e+01	2.274649e+02
1.270000e-06	1.857119e-06	3.657631e-09	1.307271e+01	2.378900e+02
1.280000e-06	1.903644e-06	3.812545e-09	1.340021e+01	2.480707e+02
1.290000e-06	1.949672e-06	3.962972e-09	1.372421e+01	2.580048e+02
1.300000e-06	1.995173e-06	4.111606e-09	1.404450e+01	2.677091e+02
1.310000e-06	2.040072e-06	4.258418e-09	1.436056e+01	2.772110e+02
1.320000e-06	2.084479e-06	4.400127e-09	1.467315e+01	2.865288e+02
1.330000e-06	2.128543e-06	4.538065e-09	1.498333e+01	2.956530e+02
1.340000e-06	2.172197e-06	4.675114e-09	1.529062e+01	3.045402e+02
1.350000e-06	2.215155e-06	4.809976e-09	1.559301e+01	3.131254e+02
1.360000e-06	2.257145e-06	4.936706e-09	1.588859e+01	3.213503e+02
1.370000e-06	2.298160e-06	5.052630e-09	1.617730e+01	3.291919e+02
1.380000e-06	2.338478e-06	5.162374e-09	1.646111e+01	3.366767e+02
1.390000e-06	2.378370e-06	5.271745e-09	1.674192e+01	3.438693e+02
1.400000e-06	2.417776e-06	5.380463e-09	1.701931e+01	3.508415e+02
1.410000e-06	2.456572e-06	5.484422e-09	1.729240e+01	3.576365e+02
1.420000e-06	2.494689e-06	5.583176e-09	1.756072e+01	3.642492e+02
1.430000e-06	2.532013e-06	5.679460e-09	1.782345e+01	3.706329e+02
1.440000e-06	2.568627e-06	5.773571e-09	1.808118e+01	3.767305e+02
1.450000e-06	2.604802e-06	5.860897e-09	1.833583e+01	3.825115e+02
1.460000e-06	2.640464e-06	5.941337e-09	1.858686e+01	3.879952e+02
1.470000e-06	2.675204e-06	6.019794e-09	1.883140e+01	3.932455e+02
1.480000e-06	2.708839e-06	6.097299e-09	1.906817e+01	3.983400e+02
1.490000e-06	2.741527e-06	6.172874e-09	1.929827e+01	4.033312e+02
1.500000e-06	2.773486e-06	6.246218e-09	1.952324e+01	4.082211e+02
1.510000e-06	2.804755e-06	6.317357e-09	1.974335e+01	4.129641e+02
1.520000e-06	2.835259e-06	6.387553e-09	1.995807e+01	4.174954e+02
1.530000e-06	2.865005e-06	6.454359e-09	2.016746e+01	4.217699e+02
1.540000e-06	2.893968e-06	6.514385e-09	2.037134e+01	4.257886e+02
1.550000e-06	2.922268e-06	6.569468e-09	2.057055e+01	4.295992e+02
1.560000e-06	2.950011e-06	6.623576e-09	2.076584e+01	4.332706e+02
1.570000e-06	2.976790e-06	6.678182e-09	2.095434e+01	4.368575e+02
1.580000e-06	3.002252e-06	6.730656e-09	2.113358e+01	4.403747e+02
1.590000e-06	3.026663e-06	6.779403e-09	2.130541e+01	4.437943e+02
1.600000e-06	3.050298e-06	6.826476e-09	2.147178e+01	4.470658e+02
1.610000e-06	3.073110e-06	6.873482e-09	2.163236e+01	4.501457e+02
1.620000e-06	3.095088e-06	6.917200e-09	2.178707e+01	4.530194e+02
1.630000e-06	3.116253e-06	6.952948e-09	2.193606e+01	4.557037e+02
1.640000e-06	3.136732e-06	6.984373e-09	2.208021e+01	4.582306e+02
1.650000e-06	3.156613e-06	7.015896e-09	2.222016e+01	4.606256e+02
1.660000e-06	3.175667e-06	7.049047e-09	2.235428e+01	4.628935e+02
1.670000e-06	3.193663e-06	7.080244e-09	2.248096e+01	4.650211e+02
1.680000e-06	3.210738e-06	7.106587e-09	2.260116e+01	4.669937e+02
1.690000e-06	3.226940e-06	7.131595e-09	2.271521e+01	4.688127e+02
1.700000e-06	3.242067e-06	7.157096e-09	2.282169e+01	4.705029e+02
1.710000e-06	3.256240e-06	7.180880e-09	2.292146e+01	4.721030e+02
1.720000e-06	3.269583e-06	7.200650e-09	2.301538e+01	4.736446e+02
1.730000e-06	3.282005e-06	7.217800e-09	2.310283e+01	4.751320e+02
1.740000e-06	3.293374e-06	7.236636e-09	2.318286e+01	4.765363e+02
1.750000e-06	3.303463e-06	7.256217e-09	2.325388e+01	4.778085e+02
1.760000e-06	3.312329e-06	7.272531e-09	2.331628e+01	4.789046e+02
1.770000e-06	3.320302e-06	7.285540e-09	2.337241e+01	4.798105e+02
1.780000e-06	3.327434e-06	7.295861e-09	2.342261e+01	4.805532e+02
1.790000e-06	3.333666e-06	7.305277e-09	2.346648e+01	4.811918e+02
1.800000e-06	3.338988e-06	7.314572e-09	2.350395e+01	4.817919e+02
1.810000e-06	3.343482e-06	7.323424e-09	2.353557e+01	4.823982e+02
1.820000e-06	3.347275e-06	7.332281e-09	2.356228e+01	4.830151e+02
1.830000e-06	3.350017e-06	7.341001e-09	2.358158e+01	4.836066e+02
1.840000e-06	3.351453e-06	7.348819e-09	2.359169e+01	4.841136e+02
1.850000e-06	3.351895e-06	7.354227e-09	2.359480e+01	4.844798e+02
1.860000e-06	3.351536e-06	7.356133e-09	2.359227e+01	4.846755e+02
1.870000e-06	3.350341e-06	7.354798e-09	2.358386e+01	4.847086e+02
1.880000e-06	3.348282e-06	7.353774e-09	2.356937e+01	4.846200e+02
1.890000e-06	3.345348e-06	7.355350e-09	2.354872e+01	4.844652e+02
1.900000e-06	3.341691e-06	7.355675e-09	2.352297e+01	4.842901e+02
1.910000e-06	3.337328e-06	7.355588e-09	2.349226e+01	4.841117e+02
1.920000e-06	3.331933e-06	7.366942e-09	2.345428e+01	4.839097e+02
1.930000e-06	3.325367e-06	7.361747e-09	2.340806e+01	4.836353e+02
1.940000e-06	3.317689e-06	7.302610e-09	2.335402e+01	4.832322e+02
1.950000e-06	3.308731e-06	7.270773e-09	2.329096e+01	4.826642e+02
1.960000e-06	3.298402e-06	7.350625e-09	2.321825e+01	4.819364e+02
1.970000e-06	3.287381e-06	7.388669e-09	2.314067e+01	4.811004e+02
1.980000e-06	3.276349e-06	7.273343e-09	2.306301e+01	4.802385e+02
1.990000e-06	3.264528e-06	7.232583e-09	2.297980e+01	4.794309e+02
2.000000e-06	3.250848e-06	7.327408e-09	2.288351e+01	4.787202e+02
2.010000e-06	3.235886e-06	7.283827e-09	2.277819e+01	4.780867e+02
2.020000e-06	3.220438e-06	7.166177e-09	2.266944e+01	4.774503e+02
2.030000e-06	3.204059e-06	7.242624e-09	2.255415e+01	4.766984e+02
2.040000e-06	3.186610e-06	7.307626e-09	2.243132e+01	4.757299e+02
2.050000e-06	3.168619e-06	7.157623e-09	2.230467e+01	4.744963e+02
2.060000e-06	3.150002e-06	7.163203e-09	2.217363e+01	4.730197e+02
2.070000e-06	3.130503e-06	7.280324e-09	2.203637e+01	4.713802e+02
2.080000e-06	3.110331e-06	7.122953e-09	2.189437e+01	4.696792e+02
2.090000e-06	3.089131e-06	7.029295e-09	2.174514e+01	4.679941e+02
2.100000e-06	3.066474e-06	7.150311e-09	2.158565e+01	4.663494e+02
2.110000e-06	3.042854e-06	7.114690e-09	2.141938e+01	4.647127e+02
2.120000e-06	3.018529e-06	7.003660e-09	2.124815e+01	4.630191e+02
2.130000e-06	2.993335e-06	7.014856e-09	2.107081e+01	4.612062e+02
2.140000e-06	2.967416e-06	7.004965e-09	2.088836e+01	4.592434e+02
2.150000e-06	2.940758e-06	6.978234e-09	2.070071e+01	4.571402e+02
2.160000e-06	2.913318e-06	6.935662e-09	2.050755e+01	4.549339e+02
2.170000e-06	2.885227e-06	6.843165e-09	2.030981e+01	4.526645e+02
2.180000e-06	2.856112e-06	6.859002e-09	2.010486e+01	4.503543e+02
2.190000e-06	2.825684e-06	6.870310e-09	1.989067e+01	4.480014e+02
2.200000e-06	2.794328e-06	6.765436e-09	1.966995e+01	4.455873e+02
2.210000e-06	2.762274e-06	6.741451e-09	1.944431e+01	4.430927e+02
2.220000e-06	2.729456e-06	6.720808e-09	1.921330e+01	4.405087e+02
2.230000e-06	2.695908e-06	6.640473e-09	1.897715e+01	4.378372e+02
2.240000e-06	2.661577e-06	6.642126e-09	1.873548e+01	4.350832e+02
2.250000e-06	2.626526e-06	6.593316e-09	1.848875e+01	4.322466e+02
2.260000e-06	2.591002e-06	6.501967e-09	1.823869e+01	4.293199e+02
2.270000e-06	2.554944e-06	6.504681e-09	1.798487e+01	4.262958e+02
2.280000e-06	2.518024e-06	6.463456e-09	1.772498e+01	4.231775e+02
2.290000e-06	2.479976e-06	6.381612e-09	1.745715e+01	4.199837e+02
2.300000e-06	2.440956e-06	6.343228e-09	1.718248e+01	4.167418e+02
2.310000e-06	2.401382e-06	6.286147e-09	1.690391e+01	4.134715e+02
2.320000e-06	2.361391e-06	6.245725e-09	1.662240e+01	4.101689e+02
2.330000e-06	2.320806e-06	6.209118e-09	1.633671e+01	4.068014e+02
2.340000e-06	2.279549e-06	6.133684e-09	1.604630e+01	4.033201e+02
2.350000e-06	2.237680e-06	6.076366e-09	1.575157e+01	3.996837e+02
2.360000e-06	2.195247e-06	6.030443e-09	1.545288e+01	3.958810e+02
2.370000e-06	2.152249e-06	5.979135e-09	1.515020e+01	3.919395e+02
2.380000e-06	2.108788e-06	5.916727e-09	1.484427e+01	3.879129e+02
2.390000e-06	2.065031e-06	5.838862e-09	1.453625e+01	3.838534e+02
2.400000e-06	2.020806e-06	5.779913e-09	1.422494e+01	3.797849e+02
2.410000e-06	1.975921e-06	5.729937e-09	1.390899e+01	3.756906e+02
2.420000e-06	1.930313e-06	5.661355e-09	1.358794e+01	3.715225e+02
2.430000e-06	1.884113e-06	5.581471e-09	1.326273e+01	3.672266e+02
2.440000e-06	1.837463e-06	5.511369e-09	1.293434e+01	3.627694e+02
2.450000e-06	1.790371e-06	5.461065e-09	1.260285e+01	3.581509e+02
2.460000e-06	1.742775e-06	5.390550e-09	1.226781e+01	3.533978e+02
2.470000e-06	1.694472e-06	5.301093e-09	1.192780e+01	3.485438e+02
2.480000e-06	1.645495e-06	5.226738e-09	1.158304e+01	3.436089e+02
2.490000e-06	1.596030e-06	5.156772e-09	1.123484e+01	3.385910e+02
2.500000e-06	1.546157e-06	5.086312e-09	1.088377e+01	3.334741e+02
2.510000e-06	1.495873e-06	5.002391e-09	1.052981e+01	3.282442e+02
2.520000e-06	1.445132e-06	4.909714e-09	1.017264e+01	3.229024e+02
2.530000e-06	1.393891e-06	4.832135e-09	9.811934e+00	3.174638e+02
2.540000e-06	1.342237e-06	4.756563e-09	9.448328e+00	3.119442e+02
2.550000e-06	1.290255e-06	4.670451e-09	9.082420e+00	3.063426e+02
2.560000e-06	1.237913e-06	4.576786e-09	8.713969e+00	3.006340e+02
2.570000e-06	1.185031e-06	4.486222e-09	8.341719e+00	2.947783e+02
2.580000e-06	1.131449e-06	4.404606e-09	7.964540e+00	2.887434e+02
2.590000e-06	1.077246e-06	4.315011e-09	7.582993e+00	2.825274e+02
2.600000e-06	1.022482e-06	4.211833e-09	7.197496e+00	2.761653e+02
2.610000e-06	9.673412e-07	4.107312e-09	6.809348e+00	2.697140e+02
2.620000e-06	9.120066e-07	4.012280e-09	6.419835e+00	2.632211e+02
2.630000e-06	8.565069e-07	3.923632e-09	6.029159e+00	2.566949e+02
2.640000e-06	8.008716e-07	3.824402e-09	5.637529e+00	2.500932e+02
2.650000e-06	7.450893e-07	3.719475e-09	5.244864e+00	2.433398e+02
2.660000e-06	6.891916e-07	3.617404e-09	4.851386e+00	2.363602e+02
2.670000e-06	6.332064e-07	3.513278e-09	4.457293e+00	2.291198e+02
2.680000e-06	5.771182e-07	3.399958e-09	4.062475e+00	2.216426e+02
2.690000e-06	5.208642e-07	3.274881e-09	3.666489e+00	2.140010e+02
2.700000e-06	4.645120e-07	3.154746e-09	3.269812e+00	2.062803e+02
2.710000e-06	4.080834e-07	3.045203e-09	2.872598e+00	1.985371e+02
2.720000e-06	3.515378e-07	2.930991e-09	2.474559e+00	1.907715e+02
2.730000e-06	2.948603e-07	2.806744e-09	2.075593e+00	1.829272e+02
2.740000e-06	2.380536e-07	2.680477e-09	1.675717e+00	1.749182e+02
2.750000e-06	1.812632e-07	2.558565e-09	1.275955e+00	1.666672e+02
2.760000e-06	1.244655e-07	2.435124e-09	8.761424e-01	1.581377e+02
2.770000e-06	6.755890e-08	2.300424e-09	4.755635e-01	1.493452e+02
2.780000e-06	1.057923e-08	2.160614e-09	7.446976e-02	1.403448e+02
2.790000e-06	-4.637650e-08	2.023609e-09	-3.264554e-01	1.312037e+02
2.800000e-06	-1.032301e-07	1.888226e-09	-7.266619e-01	1.219726e+02
2.810000e-06	-1.600226e-07	1.748634e-09	-1.126438e+00	1.126681e+02
2.820000e-06	-2.168077e-07	1.601756e-09	-1.526162e+00	1.032712e+02
2.830000e-06	-2.735950e-07	1.454490e-09	-1.925901e+00	9.373841e+01
2.840000e-06	-3.302940e-07	1.309790e-09	-2.325019e+00	8.402025e+01
2.850000e-06	-3.868161e-07	1.162013e-09	-2.722892e+00	7.407755e+01
2.860000e-06	-4.432617e-07	1.005872e-09	-3.120226e+00	6.389247e+01
2.870000e-06	-4.996404e-07	8.439711e-10	-3.517089e+00	5.347200e+01
2.880000e-06	-5.558598e-07	6.820996e-10	-3.912832e+00	4.284453e+01
2.890000e-06	-6.119374e-07	5.196886e-10	-4.307575e+00	3.205096e+01
2.900000e-06	-6.679125e-07	3.523156e-10	-4.701597e+00	2.113246e+01
2.910000e-06	-7.237250e-07	1.809274e-10	-5.094475e+00	1.011798e+01
2.920000e-06	-7.793945e-07	1.122536e-11	-5.486346e+00	-9.841911e-01
2.930000e-06	-8.349970e-07	-1.567877e-10	-5.877746e+00	-1.218683e+01
2.940000e-06	-8.904900e-07	-3.286997e-10	-6.268374e+00	-2.351488e+01
2.950000e-06	-9.457712e-07	-5.068964e-10	-6.657512e+00	-3.498998e+01
