# Temperatura_=_20.0
# Concentracion g/m^3_=_10000.0
# C_Vs_to_Am_M_A/Vsm_=_65563218390.804596
# pendiente_HvsI_1/m_=_3716.3
# ordenada_HvsI_A/m_=_1297.0
# frecuencia_Hz_=_269489.6696898806

Tiempo_(s)	Campo_(V.s)	Magnetizacion_(V.s)	Campo_(kA/m)	Magnetizacion_(A/m)
0.000000e+00	-3.328452e-06	-7.326168e-09	-2.346898e+01	-4.780545e+02
1.000000e-08	-3.327499e-06	-7.326094e-09	-2.346226e+01	-4.780685e+02
2.000000e-08	-3.325449e-06	-7.324355e-09	-2.344781e+01	-4.779682e+02
3.000000e-08	-3.322214e-06	-7.320669e-09	-2.342500e+01	-4.778100e+02
4.000000e-08	-3.318113e-06	-7.315960e-09	-2.339608e+01	-4.776434e+02
5.000000e-08	-3.313255e-06	-7.309843e-09	-2.336183e+01	-4.774854e+02
6.000000e-08	-3.307562e-06	-7.298431e-09	-2.332169e+01	-4.773075e+02
7.000000e-08	-3.300949e-06	-7.299443e-09	-2.327506e+01	-4.770449e+02
8.000000e-08	-3.293280e-06	-7.331547e-09	-2.322098e+01	-4.766259e+02
9.000000e-08	-3.284442e-06	-7.342235e-09	-2.315867e+01	-4.760092e+02
1.000000e-07	-3.274384e-06	-7.254372e-09	-2.308775e+01	-4.752110e+02
1.100000e-07	-3.263316e-06	-7.189505e-09	-2.300971e+01	-4.743070e+02
1.200000e-07	-3.251424e-06	-7.263142e-09	-2.292585e+01	-4.734054e+02
1.300000e-07	-3.238598e-06	-7.304091e-09	-2.283542e+01	-4.726012e+02
1.400000e-07	-3.224911e-06	-7.193585e-09	-2.273892e+01	-4.719328e+02
1.500000e-07	-3.210363e-06	-7.172395e-09	-2.263633e+01	-4.713604e+02
1.600000e-07	-3.194468e-06	-7.261186e-09	-2.252426e+01	-4.707786e+02
1.700000e-07	-3.177300e-06	-7.213066e-09	-2.240321e+01	-4.700586e+02
1.800000e-07	-3.159479e-06	-7.129065e-09	-2.227755e+01	-4.690986e+02
1.900000e-07	-3.141053e-06	-7.161461e-09	-2.214763e+01	-4.678631e+02
2.000000e-07	-3.121777e-06	-7.137636e-09	-2.201171e+01	-4.663909e+02
2.100000e-07	-3.101733e-06	-7.054168e-09	-2.187038e+01	-4.647710e+02
2.200000e-07	-3.080983e-06	-7.091676e-09	-2.172407e+01	-4.631004e+02
2.300000e-07	-3.059397e-06	-7.089562e-09	-2.157187e+01	-4.614433e+02
2.400000e-07	-3.036971e-06	-6.993279e-09	-2.141374e+01	-4.598098e+02
2.500000e-07	-3.013752e-06	-6.975813e-09	-2.125003e+01	-4.581622e+02
2.600000e-07	-2.989736e-06	-6.984873e-09	-2.108069e+01	-4.564410e+02
2.700000e-07	-2.964947e-06	-6.936872e-09	-2.090590e+01	-4.545955e+02
2.800000e-07	-2.939193e-06	-6.911202e-09	-2.072431e+01	-4.526043e+02
2.900000e-07	-2.912215e-06	-6.876329e-09	-2.053408e+01	-4.504775e+02
3.000000e-07	-2.884257e-06	-6.837362e-09	-2.033696e+01	-4.482443e+02
3.100000e-07	-2.855633e-06	-6.833234e-09	-2.013513e+01	-4.459345e+02
3.200000e-07	-2.826283e-06	-6.774586e-09	-1.992818e+01	-4.435658e+02
3.300000e-07	-2.796099e-06	-6.698108e-09	-1.971535e+01	-4.411407e+02
3.400000e-07	-2.765066e-06	-6.683486e-09	-1.949654e+01	-4.386523e+02
3.500000e-07	-2.733345e-06	-6.660430e-09	-1.927287e+01	-4.360918e+02
3.600000e-07	-2.701067e-06	-6.614216e-09	-1.904528e+01	-4.334538e+02
3.700000e-07	-2.668018e-06	-6.583161e-09	-1.881225e+01	-4.307360e+02
3.800000e-07	-2.633878e-06	-6.523740e-09	-1.857153e+01	-4.279366e+02
3.900000e-07	-2.598656e-06	-6.481502e-09	-1.832317e+01	-4.250542e+02
4.000000e-07	-2.562658e-06	-6.462495e-09	-1.806935e+01	-4.220901e+02
4.100000e-07	-2.526108e-06	-6.392728e-09	-1.781164e+01	-4.190519e+02
4.200000e-07	-2.488913e-06	-6.327748e-09	-1.754938e+01	-4.159542e+02
4.300000e-07	-2.450956e-06	-6.305609e-09	-1.728174e+01	-4.128133e+02
4.400000e-07	-2.412292e-06	-6.262153e-09	-1.700912e+01	-4.096367e+02
4.500000e-07	-2.373032e-06	-6.201517e-09	-1.673230e+01	-4.064142e+02
4.600000e-07	-2.333253e-06	-6.154811e-09	-1.645181e+01	-4.031169e+02
4.700000e-07	-2.293015e-06	-6.099121e-09	-1.616809e+01	-3.997065e+02
4.800000e-07	-2.252210e-06	-6.044994e-09	-1.588038e+01	-3.961534e+02
4.900000e-07	-2.210592e-06	-5.997774e-09	-1.558693e+01	-3.924528e+02
5.000000e-07	-2.168000e-06	-5.936957e-09	-1.528661e+01	-3.886303e+02
5.100000e-07	-2.124533e-06	-5.866657e-09	-1.498013e+01	-3.847318e+02
5.200000e-07	-2.080518e-06	-5.802527e-09	-1.466977e+01	-3.808018e+02
5.300000e-07	-2.036114e-06	-5.746872e-09	-1.435668e+01	-3.768606e+02
5.400000e-07	-1.991243e-06	-5.690717e-09	-1.404029e+01	-3.728925e+02
5.500000e-07	-1.945779e-06	-5.624817e-09	-1.371973e+01	-3.688512e+02
5.600000e-07	-1.899782e-06	-5.558016e-09	-1.339540e+01	-3.646810e+02
5.700000e-07	-1.853276e-06	-5.506778e-09	-1.306748e+01	-3.603425e+02
5.800000e-07	-1.806191e-06	-5.444123e-09	-1.273549e+01	-3.558294e+02
5.900000e-07	-1.758552e-06	-5.356259e-09	-1.239958e+01	-3.511692e+02
6.000000e-07	-1.710509e-06	-5.273764e-09	-1.206083e+01	-3.464077e+02
6.100000e-07	-1.662138e-06	-5.205394e-09	-1.171977e+01	-3.415857e+02
6.200000e-07	-1.613263e-06	-5.133247e-09	-1.137515e+01	-3.367212e+02
6.300000e-07	-1.563675e-06	-5.056256e-09	-1.102551e+01	-3.318041e+02
6.400000e-07	-1.513258e-06	-4.982735e-09	-1.067001e+01	-3.268051e+02
6.500000e-07	-1.462078e-06	-4.909309e-09	-1.030914e+01	-3.216921e+02
6.600000e-07	-1.410366e-06	-4.832537e-09	-9.944520e+00	-3.164448e+02
6.700000e-07	-1.358289e-06	-4.747733e-09	-9.577324e+00	-3.110594e+02
6.800000e-07	-1.305800e-06	-4.656060e-09	-9.207223e+00	-3.055447e+02
6.900000e-07	-1.252865e-06	-4.563532e-09	-8.833976e+00	-2.999118e+02
7.000000e-07	-1.199544e-06	-4.476156e-09	-8.458012e+00	-2.941668e+02
7.100000e-07	-1.145911e-06	-4.391700e-09	-8.079843e+00	-2.883087e+02
7.200000e-07	-1.092003e-06	-4.301821e-09	-7.699732e+00	-2.823340e+02
7.300000e-07	-1.037788e-06	-4.206551e-09	-7.317465e+00	-2.762415e+02
7.400000e-07	-9.832492e-07	-4.114035e-09	-6.932910e+00	-2.700353e+02
7.500000e-07	-9.284049e-07	-4.023930e-09	-6.546202e+00	-2.637213e+02
7.600000e-07	-8.733076e-07	-3.924239e-09	-6.157710e+00	-2.573010e+02
7.700000e-07	-8.179780e-07	-3.815532e-09	-5.767579e+00	-2.507668e+02
7.800000e-07	-7.623761e-07	-3.709001e-09	-5.375530e+00	-2.441025e+02
7.900000e-07	-7.066104e-07	-3.607588e-09	-4.982324e+00	-2.372902e+02
8.000000e-07	-6.507307e-07	-3.501806e-09	-4.588315e+00	-2.303190e+02
8.100000e-07	-5.947282e-07	-3.389601e-09	-4.193440e+00	-2.231918e+02
8.200000e-07	-5.387018e-07	-3.278216e-09	-3.798397e+00	-2.159235e+02
8.300000e-07	-4.826627e-07	-3.169300e-09	-3.403264e+00	-2.085338e+02
8.400000e-07	-4.265818e-07	-3.057828e-09	-3.007837e+00	-2.010360e+02
8.500000e-07	-3.704509e-07	-2.938355e-09	-2.612057e+00	-1.934293e+02
8.600000e-07	-3.142654e-07	-2.815642e-09	-2.215892e+00	-1.856973e+02
8.700000e-07	-2.580469e-07	-2.694669e-09	-1.819494e+00	-1.778148e+02
8.800000e-07	-2.018151e-07	-2.574682e-09	-1.423002e+00	-1.697572e+02
8.900000e-07	-1.455498e-07	-2.451179e-09	-1.026275e+00	-1.615097e+02
9.000000e-07	-8.924572e-08	-2.320535e-09	-6.292734e-01	-1.530714e+02
9.100000e-07	-3.291159e-08	-2.186602e-09	-2.320603e-01	-1.444535e+02
9.200000e-07	2.344330e-08	-2.053819e-09	1.652992e-01	-1.356733e+02
9.300000e-07	7.976386e-08	-1.918790e-09	5.624166e-01	-1.267479e+02
9.400000e-07	1.360685e-07	-1.777197e-09	9.594214e-01	-1.176885e+02
9.500000e-07	1.923926e-07	-1.632800e-09	1.356564e+00	-1.084986e+02
9.600000e-07	2.486653e-07	-1.490231e-09	1.753344e+00	-9.917304e+01
9.700000e-07	3.048899e-07	-1.348284e-09	2.149785e+00	-8.969922e+01
9.800000e-07	3.610941e-07	-1.201584e-09	2.546082e+00	-8.005942e+01
9.900000e-07	4.172489e-07	-1.048759e-09	2.942031e+00	-7.023459e+01
1.000000e-06	4.733439e-07	-8.943604e-10	3.337557e+00	-6.020972e+01
1.010000e-06	5.293635e-07	-7.397977e-10	3.732553e+00	-4.997940e+01
1.020000e-06	5.853383e-07	-5.809414e-10	4.127232e+00	-3.955137e+01
1.030000e-06	6.412879e-07	-4.153966e-10	4.521734e+00	-2.894599e+01
1.040000e-06	6.971759e-07	-2.483681e-10	4.915802e+00	-1.819085e+01
1.050000e-06	7.529474e-07	-8.395770e-11	5.309047e+00	-7.312730e+00
1.060000e-06	8.084962e-07	8.126074e-11	5.700723e+00	3.669855e+00
1.070000e-06	8.638037e-07	2.507400e-10	6.090697e+00	1.474973e+01
1.080000e-06	9.188308e-07	4.223763e-10	6.478695e+00	2.592845e+01
1.090000e-06	9.734984e-07	5.936829e-10	6.864157e+00	3.720943e+01
1.100000e-06	1.027904e-06	7.658176e-10	7.247772e+00	4.859074e+01
1.110000e-06	1.082118e-06	9.421708e-10	7.630039e+00	6.006097e+01
1.120000e-06	1.136130e-06	1.122849e-09	8.010876e+00	7.160011e+01
1.130000e-06	1.189862e-06	1.303088e-09	8.389738e+00	8.318390e+01
1.140000e-06	1.243115e-06	1.478955e-09	8.765230e+00	9.478873e+01
1.150000e-06	1.295843e-06	1.652201e-09	9.137018e+00	1.063939e+02
1.160000e-06	1.348191e-06	1.827283e-09	9.506125e+00	1.179809e+02
1.170000e-06	1.400197e-06	2.002682e-09	9.872818e+00	1.295305e+02
1.180000e-06	1.451765e-06	2.176144e-09	1.023643e+01	1.410217e+02
1.190000e-06	1.502725e-06	2.349063e-09	1.059574e+01	1.524330e+02
1.200000e-06	1.552871e-06	2.522957e-09	1.094933e+01	1.637461e+02
1.210000e-06	1.602207e-06	2.696343e-09	1.129719e+01	1.749494e+02
1.220000e-06	1.650933e-06	2.866465e-09	1.164076e+01	1.860367e+02
1.230000e-06	1.699238e-06	3.032905e-09	1.198136e+01	1.970035e+02
1.240000e-06	1.747233e-06	3.197920e-09	1.231977e+01	2.078391e+02
1.250000e-06	1.794849e-06	3.362286e-09	1.265552e+01	2.185227e+02
1.260000e-06	1.841931e-06	3.523428e-09	1.298749e+01	2.290240e+02
1.270000e-06	1.888478e-06	3.678874e-09	1.331570e+01	2.393106e+02
1.280000e-06	1.934527e-06	3.829589e-09	1.364039e+01	2.493581e+02
1.290000e-06	1.980039e-06	3.978625e-09	1.396130e+01	2.591575e+02
1.300000e-06	2.024967e-06	4.127242e-09	1.427808e+01	2.687149e+02
1.310000e-06	2.069377e-06	4.272747e-09	1.459122e+01	2.780430e+02
1.320000e-06	2.113452e-06	4.413121e-09	1.490200e+01	2.871489e+02
1.330000e-06	2.157179e-06	4.548578e-09	1.521031e+01	2.960246e+02
1.340000e-06	2.200310e-06	4.680144e-09	1.551443e+01	3.046459e+02
1.350000e-06	2.242519e-06	4.804442e-09	1.581205e+01	3.129804e+02
1.360000e-06	2.283757e-06	4.920569e-09	1.610281e+01	3.210017e+02
1.370000e-06	2.324281e-06	5.032252e-09	1.638855e+01	3.287006e+02
1.380000e-06	2.364294e-06	5.141631e-09	1.667069e+01	3.360897e+02
1.390000e-06	2.403793e-06	5.251074e-09	1.694919e+01	3.431967e+02
1.400000e-06	2.442645e-06	5.358300e-09	1.722314e+01	3.500522e+02
1.410000e-06	2.480839e-06	5.460616e-09	1.749245e+01	3.566776e+02
1.420000e-06	2.518328e-06	5.557780e-09	1.775678e+01	3.630788e+02
1.430000e-06	2.555086e-06	5.650708e-09	1.801596e+01	3.692506e+02
1.440000e-06	2.591321e-06	5.739015e-09	1.827146e+01	3.751850e+02
1.450000e-06	2.627046e-06	5.821529e-09	1.852336e+01	3.808819e+02
1.460000e-06	2.661908e-06	5.900619e-09	1.876916e+01	3.863532e+02
1.470000e-06	2.695634e-06	5.979713e-09	1.900697e+01	3.916198e+02
1.480000e-06	2.728369e-06	6.058247e-09	1.923779e+01	3.967029e+02
1.490000e-06	2.760392e-06	6.133707e-09	1.946358e+01	4.016155e+02
1.500000e-06	2.791745e-06	6.205744e-09	1.968465e+01	4.063586e+02
1.510000e-06	2.822401e-06	6.276001e-09	1.990081e+01	4.109235e+02
1.520000e-06	2.852265e-06	6.343772e-09	2.011138e+01	4.152994e+02
1.530000e-06	2.881281e-06	6.405673e-09	2.031597e+01	4.194818e+02
1.540000e-06	2.909655e-06	6.462539e-09	2.051604e+01	4.234770e+02
1.550000e-06	2.937446e-06	6.518670e-09	2.071199e+01	4.273009e+02
1.560000e-06	2.964350e-06	6.574888e-09	2.090169e+01	4.309737e+02
1.570000e-06	2.990082e-06	6.628996e-09	2.108313e+01	4.345123e+02
1.580000e-06	3.014742e-06	6.679755e-09	2.125701e+01	4.379254e+02
1.590000e-06	3.038552e-06	6.727786e-09	2.142489e+01	4.412117e+02
1.600000e-06	3.061532e-06	6.775713e-09	2.158692e+01	4.443621e+02
1.610000e-06	3.083671e-06	6.822099e-09	2.174303e+01	4.473637e+02
1.620000e-06	3.105000e-06	6.862797e-09	2.189341e+01	4.502039e+02
1.630000e-06	3.125618e-06	6.898642e-09	2.203880e+01	4.528738e+02
1.640000e-06	3.145613e-06	6.932670e-09	2.217978e+01	4.553696e+02
1.650000e-06	3.164836e-06	6.966898e-09	2.231532e+01	4.576939e+02
1.660000e-06	3.183055e-06	7.000029e-09	2.244379e+01	4.598557e+02
1.670000e-06	3.200331e-06	7.028896e-09	2.256560e+01	4.618694e+02
1.680000e-06	3.216764e-06	7.054058e-09	2.268147e+01	4.637530e+02
1.690000e-06	3.232248e-06	7.079493e-09	2.279064e+01	4.655248e+02
1.700000e-06	3.246694e-06	7.104926e-09	2.289250e+01	4.671993e+02
1.710000e-06	3.260174e-06	7.127983e-09	2.298755e+01	4.687839e+02
1.720000e-06	3.272762e-06	7.148206e-09	2.307631e+01	4.702769e+02
1.730000e-06	3.284415e-06	7.166933e-09	2.315848e+01	4.716681e+02
1.740000e-06	3.294897e-06	7.185676e-09	2.323239e+01	4.729434e+02
1.750000e-06	3.304101e-06	7.203205e-09	2.329728e+01	4.740902e+02
1.760000e-06	3.312299e-06	7.217938e-09	2.335509e+01	4.751041e+02
1.770000e-06	3.319725e-06	7.229517e-09	2.340745e+01	4.759934e+02
1.780000e-06	3.326314e-06	7.239284e-09	2.345391e+01	4.767795e+02
1.790000e-06	3.331934e-06	7.249222e-09	2.349354e+01	4.774912e+02
1.800000e-06	3.336689e-06	7.259512e-09	2.352706e+01	4.781550e+02
1.810000e-06	3.340677e-06	7.269426e-09	2.355518e+01	4.787839e+02
1.820000e-06	3.343733e-06	7.277933e-09	2.357673e+01	4.793693e+02
1.830000e-06	3.345588e-06	7.284408e-09	2.358981e+01	4.798810e+02
1.840000e-06	3.346296e-06	7.289574e-09	2.359480e+01	4.802781e+02
1.850000e-06	3.346090e-06	7.293569e-09	2.359335e+01	4.805258e+02
1.860000e-06	3.345084e-06	7.294499e-09	2.358626e+01	4.806137e+02
1.870000e-06	3.343237e-06	7.293846e-09	2.357323e+01	4.805646e+02
1.880000e-06	3.340514e-06	7.294446e-09	2.355403e+01	4.804285e+02
1.890000e-06	3.337006e-06	7.294421e-09	2.352930e+01	4.802619e+02
1.900000e-06	3.332783e-06	7.293938e-09	2.349952e+01	4.801008e+02
1.910000e-06	3.327646e-06	7.302058e-09	2.346330e+01	4.799396e+02
1.920000e-06	3.321395e-06	7.302566e-09	2.341922e+01	4.797291e+02
1.930000e-06	3.314085e-06	7.253991e-09	2.336768e+01	4.793967e+02
1.940000e-06	3.305570e-06	7.213417e-09	2.330764e+01	4.788813e+02
1.950000e-06	3.295648e-06	7.284323e-09	2.323768e+01	4.781683e+02
1.960000e-06	3.284800e-06	7.331323e-09	2.316119e+01	4.773052e+02
1.970000e-06	3.273764e-06	7.232379e-09	2.308338e+01	4.763889e+02
1.980000e-06	3.262181e-06	7.155497e-09	2.300171e+01	4.755273e+02
1.990000e-06	3.248978e-06	7.245500e-09	2.290861e+01	4.747915e+02
2.000000e-06	3.234266e-06	7.255007e-09	2.280487e+01	4.741813e+02
2.010000e-06	3.218907e-06	7.136587e-09	2.269658e+01	4.736205e+02
2.020000e-06	3.202797e-06	7.164144e-09	2.258299e+01	4.729856e+02
2.030000e-06	3.185646e-06	7.250101e-09	2.246206e+01	4.721552e+02
2.040000e-06	3.167841e-06	7.160840e-09	2.233651e+01	4.710576e+02
2.050000e-06	3.149457e-06	7.111015e-09	2.220689e+01	4.696953e+02
2.060000e-06	3.130231e-06	7.184554e-09	2.207132e+01	4.681369e+02
2.070000e-06	3.110293e-06	7.106565e-09	2.193074e+01	4.664813e+02
2.080000e-06	3.089460e-06	7.026944e-09	2.178385e+01	4.648131e+02
2.090000e-06	3.067225e-06	7.079065e-09	2.162706e+01	4.631705e+02
2.100000e-06	3.043857e-06	7.051600e-09	2.146230e+01	4.615372e+02
2.110000e-06	3.019747e-06	6.987412e-09	2.129230e+01	4.598608e+02
2.120000e-06	2.994817e-06	6.985205e-09	2.111651e+01	4.580827e+02
2.130000e-06	2.969137e-06	6.935616e-09	2.093544e+01	4.561653e+02
2.140000e-06	2.942796e-06	6.922345e-09	2.074971e+01	4.541039e+02
2.150000e-06	2.915685e-06	6.909951e-09	2.055855e+01	4.519203e+02
2.160000e-06	2.887788e-06	6.808231e-09	2.036185e+01	4.496461e+02
2.170000e-06	2.858932e-06	6.799232e-09	2.015839e+01	4.473060e+02
2.180000e-06	2.828839e-06	6.832512e-09	1.994620e+01	4.449101e+02
2.190000e-06	2.797682e-06	6.737835e-09	1.972651e+01	4.424549e+02
2.200000e-06	2.765762e-06	6.688710e-09	1.950145e+01	4.399318e+02
2.210000e-06	2.733125e-06	6.682230e-09	1.927132e+01	4.373335e+02
2.220000e-06	2.699784e-06	6.609242e-09	1.903623e+01	4.346563e+02
2.230000e-06	2.665725e-06	6.587066e-09	1.879608e+01	4.318983e+02
2.240000e-06	2.630902e-06	6.549532e-09	1.855054e+01	4.290580e+02
2.250000e-06	2.595504e-06	6.469297e-09	1.830095e+01	4.261347e+02
2.260000e-06	2.559625e-06	6.460666e-09	1.804797e+01	4.231326e+02
2.270000e-06	2.522997e-06	6.423164e-09	1.778970e+01	4.200629e+02
2.280000e-06	2.485313e-06	6.339425e-09	1.752399e+01	4.169424e+02
2.290000e-06	2.446615e-06	6.307780e-09	1.725113e+01	4.137841e+02
2.300000e-06	2.407189e-06	6.260884e-09	1.697314e+01	4.105875e+02
2.310000e-06	2.367213e-06	6.197853e-09	1.669126e+01	4.073326e+02
2.320000e-06	2.326769e-06	6.158636e-09	1.640609e+01	4.039839e+02
2.330000e-06	2.285753e-06	6.104645e-09	1.611689e+01	4.005051e+02
2.340000e-06	2.244091e-06	6.045534e-09	1.582313e+01	3.968774e+02
2.350000e-06	2.201865e-06	5.990661e-09	1.552539e+01	3.931114e+02
2.360000e-06	2.159096e-06	5.939380e-09	1.522383e+01	3.892451e+02
2.370000e-06	2.115811e-06	5.889788e-09	1.491862e+01	3.853268e+02
2.380000e-06	2.072091e-06	5.818835e-09	1.461036e+01	3.813913e+02
2.390000e-06	2.028004e-06	5.747738e-09	1.429950e+01	3.774413e+02
2.400000e-06	1.983432e-06	5.695892e-09	1.398522e+01	3.734440e+02
2.410000e-06	1.938141e-06	5.638434e-09	1.366587e+01	3.693452e+02
2.420000e-06	1.892160e-06	5.557164e-09	1.334166e+01	3.650945e+02
2.430000e-06	1.845663e-06	5.483318e-09	1.301381e+01	3.606676e+02
2.440000e-06	1.798765e-06	5.436059e-09	1.268313e+01	3.560763e+02
2.450000e-06	1.751399e-06	5.371740e-09	1.234915e+01	3.513599e+02
2.460000e-06	1.703432e-06	5.286316e-09	1.201093e+01	3.465646e+02
2.470000e-06	1.654821e-06	5.212552e-09	1.166818e+01	3.417214e+02
2.480000e-06	1.605634e-06	5.140070e-09	1.132136e+01	3.368339e+02
2.490000e-06	1.555986e-06	5.059904e-09	1.097129e+01	3.318805e+02
2.500000e-06	1.505915e-06	4.978160e-09	1.061823e+01	3.268285e+02
2.510000e-06	1.455389e-06	4.896527e-09	1.026198e+01	3.216504e+02
2.520000e-06	1.404339e-06	4.821878e-09	9.902023e+00	3.163339e+02
2.530000e-06	1.352840e-06	4.743979e-09	9.538901e+00	3.108828e+02
2.540000e-06	1.300925e-06	4.662696e-09	9.172849e+00	3.053083e+02
2.550000e-06	1.248557e-06	4.578443e-09	8.803597e+00	2.996195e+02
2.560000e-06	1.195729e-06	4.485541e-09	8.431108e+00	2.938189e+02
2.570000e-06	1.142319e-06	4.392960e-09	8.054512e+00	2.879033e+02
2.580000e-06	1.088327e-06	4.303017e-09	7.673817e+00	2.818700e+02
2.590000e-06	1.033840e-06	4.207604e-09	7.289629e+00	2.757203e+02
2.600000e-06	9.788849e-07	4.105208e-09	6.902138e+00	2.694600e+02
2.610000e-06	9.236452e-07	4.007809e-09	6.512641e+00	2.630937e+02
2.620000e-06	8.682553e-07	3.917934e-09	6.122086e+00	2.566185e+02
2.630000e-06	8.127029e-07	3.821944e-09	5.730385e+00	2.500221e+02
2.640000e-06	7.570288e-07	3.718271e-09	5.337825e+00	2.432862e+02
2.650000e-06	7.012808e-07	3.615921e-09	4.944745e+00	2.363955e+02
2.660000e-06	6.454324e-07	3.512481e-09	4.550957e+00	2.293455e+02
2.670000e-06	5.894393e-07	3.401427e-09	4.156148e+00	2.221458e+02
2.680000e-06	5.333029e-07	3.282548e-09	3.760329e+00	2.148150e+02
2.690000e-06	4.770804e-07	3.165213e-09	3.363904e+00	2.073708e+02
2.700000e-06	4.207233e-07	3.053512e-09	2.966529e+00	1.998201e+02
2.710000e-06	3.642299e-07	2.939285e-09	2.568192e+00	1.921540e+02
2.720000e-06	3.076835e-07	2.820798e-09	2.169482e+00	1.843506e+02
2.730000e-06	2.510405e-07	2.701194e-09	1.770091e+00	1.763836e+02
2.740000e-06	1.943826e-07	2.579859e-09	1.370596e+00	1.682325e+02
2.750000e-06	1.376525e-07	2.453639e-09	9.705908e-01	1.598893e+02
2.760000e-06	8.082516e-08	2.320831e-09	5.698999e-01	1.513597e+02
2.770000e-06	2.400612e-08	2.185186e-09	1.692676e-01	1.426589e+02
2.780000e-06	-3.283575e-08	2.049594e-09	-2.315255e-01	1.338047e+02
2.790000e-06	-8.960973e-08	1.914736e-09	-6.318400e-01	1.248118e+02
2.800000e-06	-1.463016e-07	1.779590e-09	-1.031576e+00	1.156877e+02
2.810000e-06	-2.029743e-07	1.639409e-09	-1.431176e+00	1.064316e+02
2.820000e-06	-2.596062e-07	1.494591e-09	-1.830489e+00	9.703428e+01
2.830000e-06	-3.162013e-07	1.349302e-09	-2.229542e+00	8.748033e+01
2.840000e-06	-3.727498e-07	1.202647e-09	-2.628267e+00	7.775074e+01
2.850000e-06	-4.291667e-07	1.051746e-09	-3.026063e+00	6.782774e+01
2.860000e-06	-4.854184e-07	8.964794e-10	-3.422695e+00	5.770050e+01
2.870000e-06	-5.415394e-07	7.398473e-10	-3.818405e+00	4.736995e+01
2.880000e-06	-5.975099e-07	5.810376e-10	-4.213054e+00	3.685053e+01
2.890000e-06	-6.533476e-07	4.171504e-10	-4.606767e+00	2.616712e+01
2.900000e-06	-7.091179e-07	2.506491e-10	-5.000005e+00	1.534798e+01
2.910000e-06	-7.648145e-07	8.482932e-11	-5.392723e+00	4.416476e+00
2.920000e-06	-8.204330e-07	-8.128888e-11	-5.784890e+00	-6.614527e+00
2.930000e-06	-8.759409e-07	-2.500645e-10	-6.176277e+00	-1.774287e+01
2.940000e-06	-9.312387e-07	-4.218765e-10	-6.566183e+00	-2.897202e+01
2.950000e-06	-9.862535e-07	-5.947540e-10	-6.954093e+00	-4.030351e+01
