# Temperatura_=_20.0
# Concentracion g/m^3_=_10000.0
# C_Vs_to_Am_M_A/Vsm_=_65563218390.804596
# pendiente_HvsI_1/m_=_3716.3
# ordenada_HvsI_A/m_=_1297.0
# frecuencia_Hz_=_269489.2727982024

Tiempo_(s)	Campo_(V.s)	Magnetizacion_(V.s)	Campo_(kA/m)	Magnetizacion_(A/m)
0.000000e+00	-3.329905e-06	-7.360681e-09	-2.347876e+01	-4.805905e+02
1.000000e-08	-3.329491e-06	-7.362245e-09	-2.347584e+01	-4.807341e+02
2.000000e-08	-3.328252e-06	-7.360619e-09	-2.346711e+01	-4.807300e+02
3.000000e-08	-3.325839e-06	-7.354892e-09	-2.345010e+01	-4.805915e+02
4.000000e-08	-3.322282e-06	-7.348288e-09	-2.342502e+01	-4.803589e+02
5.000000e-08	-3.317945e-06	-7.343226e-09	-2.339444e+01	-4.800831e+02
6.000000e-08	-3.312870e-06	-7.339019e-09	-2.335865e+01	-4.798012e+02
7.000000e-08	-3.306864e-06	-7.331958e-09	-2.331631e+01	-4.795161e+02
8.000000e-08	-3.299866e-06	-7.333018e-09	-2.326696e+01	-4.791918e+02
9.000000e-08	-3.291850e-06	-7.359921e-09	-2.321044e+01	-4.787698e+02
1.000000e-07	-3.282713e-06	-7.359963e-09	-2.314602e+01	-4.781993e+02
1.100000e-07	-3.272342e-06	-7.280482e-09	-2.307289e+01	-4.774673e+02
1.200000e-07	-3.260973e-06	-7.234885e-09	-2.299273e+01	-4.766113e+02
1.300000e-07	-3.248824e-06	-7.302590e-09	-2.290707e+01	-4.757065e+02
1.400000e-07	-3.235760e-06	-7.326415e-09	-2.281496e+01	-4.748324e+02
1.500000e-07	-3.221841e-06	-7.213918e-09	-2.271682e+01	-4.740331e+02
1.600000e-07	-3.206985e-06	-7.234688e-09	-2.261207e+01	-4.732932e+02
1.700000e-07	-3.190705e-06	-7.316520e-09	-2.249728e+01	-4.725397e+02
1.800000e-07	-3.173247e-06	-7.245765e-09	-2.237419e+01	-4.716729e+02
1.900000e-07	-3.155246e-06	-7.177644e-09	-2.224726e+01	-4.706089e+02
2.000000e-07	-3.136574e-06	-7.216467e-09	-2.211561e+01	-4.693147e+02
2.100000e-07	-3.116976e-06	-7.178114e-09	-2.197742e+01	-4.678193e+02
2.200000e-07	-3.096657e-06	-7.088640e-09	-2.183416e+01	-4.661959e+02
2.300000e-07	-3.075643e-06	-7.154798e-09	-2.168599e+01	-4.645248e+02
2.400000e-07	-3.053713e-06	-7.131580e-09	-2.153137e+01	-4.628579e+02
2.500000e-07	-3.030924e-06	-7.011345e-09	-2.137068e+01	-4.611994e+02
2.600000e-07	-3.007395e-06	-7.034892e-09	-2.120478e+01	-4.595124e+02
2.700000e-07	-2.983139e-06	-7.052096e-09	-2.103376e+01	-4.577433e+02
2.800000e-07	-2.958080e-06	-6.961938e-09	-2.085707e+01	-4.558511e+02
2.900000e-07	-2.931974e-06	-6.949706e-09	-2.067300e+01	-4.538248e+02
3.000000e-07	-2.904643e-06	-6.934035e-09	-2.048029e+01	-4.516828e+02
3.100000e-07	-2.876417e-06	-6.877341e-09	-2.028127e+01	-4.494570e+02
3.200000e-07	-2.847590e-06	-6.861098e-09	-2.007802e+01	-4.471731e+02
3.300000e-07	-2.817981e-06	-6.819413e-09	-1.986925e+01	-4.448381e+02
3.400000e-07	-2.787486e-06	-6.743024e-09	-1.965423e+01	-4.424419e+02
3.500000e-07	-2.756202e-06	-6.722517e-09	-1.943365e+01	-4.399675e+02
3.600000e-07	-2.724277e-06	-6.711660e-09	-1.920855e+01	-4.374041e+02
3.700000e-07	-2.691806e-06	-6.656315e-09	-1.897961e+01	-4.347526e+02
3.800000e-07	-2.658534e-06	-6.615130e-09	-1.874500e+01	-4.320221e+02
3.900000e-07	-2.624126e-06	-6.560733e-09	-1.850240e+01	-4.292209e+02
4.000000e-07	-2.588690e-06	-6.528986e-09	-1.825255e+01	-4.263489e+02
4.100000e-07	-2.552583e-06	-6.492398e-09	-1.799796e+01	-4.233984e+02
4.200000e-07	-2.515880e-06	-6.422052e-09	-1.773917e+01	-4.203606e+02
4.300000e-07	-2.478430e-06	-6.372032e-09	-1.747511e+01	-4.172351e+02
4.400000e-07	-2.440191e-06	-6.345720e-09	-1.720549e+01	-4.140330e+02
4.500000e-07	-2.401250e-06	-6.295756e-09	-1.693093e+01	-4.107711e+02
4.600000e-07	-2.361670e-06	-6.235860e-09	-1.665186e+01	-4.074597e+02
4.700000e-07	-2.321618e-06	-6.188368e-09	-1.636945e+01	-4.040918e+02
4.800000e-07	-2.281226e-06	-6.129349e-09	-1.608465e+01	-4.006414e+02
4.900000e-07	-2.240227e-06	-6.077420e-09	-1.579557e+01	-3.970737e+02
5.000000e-07	-2.198371e-06	-6.023162e-09	-1.550045e+01	-3.933634e+02
5.100000e-07	-2.155555e-06	-5.961157e-09	-1.519856e+01	-3.895094e+02
5.200000e-07	-2.111920e-06	-5.890836e-09	-1.489090e+01	-3.855389e+02
5.300000e-07	-2.067781e-06	-5.828326e-09	-1.457968e+01	-3.814961e+02
5.400000e-07	-2.023176e-06	-5.771795e-09	-1.426517e+01	-3.774207e+02
5.500000e-07	-1.978077e-06	-5.709878e-09	-1.394718e+01	-3.733282e+02
5.600000e-07	-1.932462e-06	-5.643481e-09	-1.362556e+01	-3.692010e+02
5.700000e-07	-1.886329e-06	-5.579674e-09	-1.330028e+01	-3.649965e+02
5.800000e-07	-1.839702e-06	-5.525674e-09	-1.297152e+01	-3.606659e+02
5.900000e-07	-1.792484e-06	-5.453746e-09	-1.263859e+01	-3.561759e+02
6.000000e-07	-1.744728e-06	-5.369389e-09	-1.230187e+01	-3.515209e+02
6.100000e-07	-1.696605e-06	-5.291282e-09	-1.196256e+01	-3.467216e+02
6.200000e-07	-1.648109e-06	-5.222191e-09	-1.162062e+01	-3.418113e+02
6.300000e-07	-1.598982e-06	-5.144481e-09	-1.127423e+01	-3.368196e+02
6.400000e-07	-1.549142e-06	-5.062409e-09	-1.092281e+01	-3.317608e+02
6.500000e-07	-1.498576e-06	-4.986574e-09	-1.056628e+01	-3.266322e+02
6.600000e-07	-1.447240e-06	-4.911382e-09	-1.020432e+01	-3.214199e+02
6.700000e-07	-1.395358e-06	-4.832253e-09	-9.838500e+00	-3.161075e+02
6.800000e-07	-1.343112e-06	-4.744969e-09	-9.470124e+00	-3.106814e+02
6.900000e-07	-1.290493e-06	-4.656884e-09	-9.099113e+00	-3.051316e+02
7.000000e-07	-1.237444e-06	-4.567289e-09	-8.725072e+00	-2.994497e+02
7.100000e-07	-1.184020e-06	-4.479374e-09	-8.348382e+00	-2.936289e+02
7.200000e-07	-1.130266e-06	-4.388720e-09	-7.969367e+00	-2.876669e+02
7.300000e-07	-1.076187e-06	-4.293627e-09	-7.588069e+00	-2.815711e+02
7.400000e-07	-1.021841e-06	-4.196718e-09	-7.204877e+00	-2.753604e+02
7.500000e-07	-9.672116e-07	-4.101328e-09	-6.819693e+00	-2.690593e+02
7.600000e-07	-9.123229e-07	-4.007042e-09	-6.432680e+00	-2.626853e+02
7.700000e-07	-8.572080e-07	-3.905636e-09	-6.044071e+00	-2.562354e+02
7.800000e-07	-8.017554e-07	-3.800908e-09	-5.653082e+00	-2.496804e+02
7.900000e-07	-7.460523e-07	-3.696542e-09	-5.260326e+00	-2.429725e+02
8.000000e-07	-6.902502e-07	-3.593067e-09	-4.866871e+00	-2.360659e+02
8.100000e-07	-6.343251e-07	-3.481982e-09	-4.472551e+00	-2.289411e+02
8.200000e-07	-5.782910e-07	-3.363410e-09	-4.077461e+00	-2.216185e+02
8.300000e-07	-5.222025e-07	-3.247373e-09	-3.681987e+00	-2.141544e+02
8.400000e-07	-4.660610e-07	-3.135344e-09	-3.286140e+00	-2.066162e+02
8.500000e-07	-4.098831e-07	-3.021743e-09	-2.890036e+00	-1.990491e+02
8.600000e-07	-3.536837e-07	-2.902935e-09	-2.493782e+00	-1.914504e+02
8.700000e-07	-2.974682e-07	-2.784551e-09	-2.097413e+00	-1.837656e+02
8.800000e-07	-2.412300e-07	-2.665953e-09	-1.700884e+00	-1.759089e+02
8.900000e-07	-1.849333e-07	-2.543613e-09	-1.303942e+00	-1.678009e+02
9.000000e-07	-1.286059e-07	-2.413292e-09	-9.067851e-01	-1.594039e+02
9.100000e-07	-7.225566e-08	-2.276738e-09	-5.094661e-01	-1.507376e+02
9.200000e-07	-1.590317e-08	-2.139573e-09	-1.121314e-01	-1.418680e+02
9.300000e-07	4.044269e-08	-2.003208e-09	2.851565e-01	-1.328737e+02
9.400000e-07	9.679810e-08	-1.865130e-09	6.825118e-01	-1.238073e+02
9.500000e-07	1.531496e-07	-1.724128e-09	1.079839e+00	-1.146718e+02
9.600000e-07	2.094797e-07	-1.582151e-09	1.477016e+00	-1.054212e+02
9.700000e-07	2.657974e-07	-1.437418e-09	1.874106e+00	-9.598677e+01
9.800000e-07	3.220945e-07	-1.288659e-09	2.271050e+00	-8.631176e+01
9.900000e-07	3.783432e-07	-1.134423e-09	2.667652e+00	-7.637935e+01
1.000000e-06	4.345311e-07	-9.786261e-10	3.063827e+00	-6.621812e+01
1.010000e-06	4.906758e-07	-8.221671e-10	3.459697e+00	-5.588479e+01
1.020000e-06	5.467901e-07	-6.634439e-10	3.855351e+00	-4.543410e+01
1.030000e-06	6.028211e-07	-5.015786e-10	4.250419e+00	-3.489243e+01
1.040000e-06	6.587575e-07	-3.364403e-10	4.644820e+00	-2.424865e+01
1.050000e-06	7.146018e-07	-1.707627e-10	5.038572e+00	-1.346578e+01
1.060000e-06	7.702796e-07	-4.339731e-12	5.431149e+00	-2.506096e+00
1.070000e-06	8.257271e-07	1.652879e-10	5.822103e+00	8.644539e+00
1.080000e-06	8.809261e-07	3.392356e-10	6.211305e+00	1.996588e+01
1.090000e-06	9.358409e-07	5.135557e-10	6.598503e+00	3.141081e+01
1.100000e-06	9.904591e-07	6.879624e-10	6.983609e+00	4.292594e+01
1.110000e-06	1.044851e-06	8.638523e-10	7.367116e+00	5.447335e+01
1.120000e-06	1.099001e-06	1.041575e-09	7.748924e+00	6.604170e+01
1.130000e-06	1.152864e-06	1.218989e-09	8.128706e+00	7.764156e+01
1.140000e-06	1.206360e-06	1.396094e-09	8.505900e+00	8.928864e+01
1.150000e-06	1.259421e-06	1.575691e-09	8.880030e+00	1.009851e+02
1.160000e-06	1.312069e-06	1.754067e-09	9.251239e+00	1.127096e+02
1.170000e-06	1.364317e-06	1.930659e-09	9.619634e+00	1.244210e+02
1.180000e-06	1.416175e-06	2.104916e-09	9.985278e+00	1.360734e+02
1.190000e-06	1.467533e-06	2.280093e-09	1.034740e+01	1.476328e+02
1.200000e-06	1.518180e-06	2.455616e-09	1.070451e+01	1.590862e+02
1.210000e-06	1.568000e-06	2.628452e-09	1.105578e+01	1.704381e+02
1.220000e-06	1.617089e-06	2.799193e-09	1.140190e+01	1.816960e+02
1.230000e-06	1.665641e-06	2.969540e-09	1.174424e+01	1.928544e+02
1.240000e-06	1.713858e-06	3.140241e-09	1.208421e+01	2.038866e+02
1.250000e-06	1.761755e-06	3.306965e-09	1.242193e+01	2.147487e+02
1.260000e-06	1.809181e-06	3.469177e-09	1.275632e+01	2.253948e+02
1.270000e-06	1.856079e-06	3.626947e-09	1.308699e+01	2.357949e+02
1.280000e-06	1.902494e-06	3.781640e-09	1.341426e+01	2.459457e+02
1.290000e-06	1.948386e-06	3.934364e-09	1.373784e+01	2.558666e+02
1.300000e-06	1.993696e-06	4.083993e-09	1.405732e+01	2.655854e+02
1.310000e-06	2.038488e-06	4.230256e-09	1.437314e+01	2.751176e+02
1.320000e-06	2.082891e-06	4.373411e-09	1.468622e+01	2.844524e+02
1.330000e-06	2.126960e-06	4.513022e-09	1.499694e+01	2.935527e+02
1.340000e-06	2.170506e-06	4.647836e-09	1.530398e+01	3.023680e+02
1.350000e-06	2.213279e-06	4.775946e-09	1.560557e+01	3.108554e+02
1.360000e-06	2.255125e-06	4.897821e-09	1.590062e+01	3.189972e+02
1.370000e-06	2.296089e-06	5.013241e-09	1.618945e+01	3.268068e+02
1.380000e-06	2.336451e-06	5.124076e-09	1.647403e+01	3.343203e+02
1.390000e-06	2.376315e-06	5.233098e-09	1.675511e+01	3.415777e+02
1.400000e-06	2.415592e-06	5.340883e-09	1.703205e+01	3.486052e+02
1.410000e-06	2.454255e-06	5.446259e-09	1.730466e+01	3.554052e+02
1.420000e-06	2.492259e-06	5.545641e-09	1.757262e+01	3.619601e+02
1.430000e-06	2.529531e-06	5.639407e-09	1.783542e+01	3.682476e+02
1.440000e-06	2.566166e-06	5.730006e-09	1.809373e+01	3.742568e+02
1.450000e-06	2.602310e-06	5.818325e-09	1.834858e+01	3.800000e+02
1.460000e-06	2.637824e-06	5.902367e-09	1.859898e+01	3.855115e+02
1.470000e-06	2.672393e-06	5.981159e-09	1.884272e+01	3.908356e+02
1.480000e-06	2.705861e-06	6.056288e-09	1.907870e+01	3.960098e+02
1.490000e-06	2.738412e-06	6.131178e-09	1.930822e+01	4.010511e+02
1.500000e-06	2.770311e-06	6.205755e-09	1.953313e+01	4.059515e+02
1.510000e-06	2.801506e-06	6.277711e-09	1.975308e+01	4.106849e+02
1.520000e-06	2.831924e-06	6.347555e-09	1.996756e+01	4.152206e+02
1.530000e-06	2.861568e-06	6.414508e-09	2.017657e+01	4.195386e+02
1.540000e-06	2.890418e-06	6.477551e-09	2.037999e+01	4.236389e+02
1.550000e-06	2.918657e-06	6.535914e-09	2.057910e+01	4.275415e+02
1.560000e-06	2.946253e-06	6.590659e-09	2.077368e+01	4.312793e+02
1.570000e-06	2.972811e-06	6.643836e-09	2.096093e+01	4.348856e+02
1.580000e-06	2.998159e-06	6.694459e-09	2.113966e+01	4.383826e+02
1.590000e-06	3.022528e-06	6.742660e-09	2.131149e+01	4.417743e+02
1.600000e-06	3.046084e-06	6.789862e-09	2.147757e+01	4.450469e+02
1.610000e-06	3.068817e-06	6.836758e-09	2.163786e+01	4.481740e+02
1.620000e-06	3.090752e-06	6.882038e-09	2.179252e+01	4.511273e+02
1.630000e-06	3.111895e-06	6.923060e-09	2.194160e+01	4.538865e+02
1.640000e-06	3.132351e-06	6.960318e-09	2.208583e+01	4.564470e+02
1.650000e-06	3.152189e-06	6.994358e-09	2.222571e+01	4.588221e+02
1.660000e-06	3.171139e-06	7.026112e-09	2.235932e+01	4.610386e+02
1.670000e-06	3.189023e-06	7.055385e-09	2.248542e+01	4.631285e+02
1.680000e-06	3.206023e-06	7.082523e-09	2.260529e+01	4.651180e+02
1.690000e-06	3.222146e-06	7.109225e-09	2.271897e+01	4.670201e+02
1.700000e-06	3.237228e-06	7.135837e-09	2.282531e+01	4.688325e+02
1.710000e-06	3.251349e-06	7.161894e-09	2.292487e+01	4.705409e+02
1.720000e-06	3.264586e-06	7.185995e-09	2.301820e+01	4.721278e+02
1.730000e-06	3.276884e-06	7.207400e-09	2.310492e+01	4.735803e+02
1.740000e-06	3.288173e-06	7.225892e-09	2.318451e+01	4.748953e+02
1.750000e-06	3.298217e-06	7.240442e-09	2.325533e+01	4.760788e+02
1.760000e-06	3.307060e-06	7.252986e-09	2.331769e+01	4.771413e+02
1.770000e-06	3.315037e-06	7.266406e-09	2.337393e+01	4.780929e+02
1.780000e-06	3.322164e-06	7.278921e-09	2.342418e+01	4.789413e+02
1.790000e-06	3.328367e-06	7.290196e-09	2.346792e+01	4.796935e+02
1.800000e-06	3.333664e-06	7.300497e-09	2.350527e+01	4.803591e+02
1.810000e-06	3.338146e-06	7.309741e-09	2.353687e+01	4.809518e+02
1.820000e-06	3.341841e-06	7.318114e-09	2.356292e+01	4.814857e+02
1.830000e-06	3.344501e-06	7.323711e-09	2.358168e+01	4.819676e+02
1.840000e-06	3.345952e-06	7.327167e-09	2.359191e+01	4.823893e+02
1.850000e-06	3.346362e-06	7.330665e-09	2.359480e+01	4.827266e+02
1.860000e-06	3.345920e-06	7.334404e-09	2.359168e+01	4.829466e+02
1.870000e-06	3.344624e-06	7.335819e-09	2.358255e+01	4.830238e+02
1.880000e-06	3.342473e-06	7.333937e-09	2.356738e+01	4.829557e+02
1.890000e-06	3.339507e-06	7.332928e-09	2.354646e+01	4.827690e+02
1.900000e-06	3.335835e-06	7.331160e-09	2.352057e+01	4.825117e+02
1.910000e-06	3.331347e-06	7.328096e-09	2.348893e+01	4.822313e+02
1.920000e-06	3.325847e-06	7.330542e-09	2.345015e+01	4.819512e+02
1.930000e-06	3.319280e-06	7.329022e-09	2.340385e+01	4.816556e+02
1.940000e-06	3.311629e-06	7.285218e-09	2.334990e+01	4.812952e+02
1.950000e-06	3.302711e-06	7.256457e-09	2.328702e+01	4.808108e+02
1.960000e-06	3.292390e-06	7.316023e-09	2.321425e+01	4.801660e+02
1.970000e-06	3.281358e-06	7.343272e-09	2.313646e+01	4.793708e+02
1.980000e-06	3.270215e-06	7.256592e-09	2.305790e+01	4.784830e+02
1.990000e-06	3.258212e-06	7.200475e-09	2.297326e+01	4.775848e+02
2.000000e-06	3.244398e-06	7.285023e-09	2.287586e+01	4.767439e+02
2.010000e-06	3.229357e-06	7.246693e-09	2.276981e+01	4.759787e+02
2.020000e-06	3.213860e-06	7.133733e-09	2.266054e+01	4.752452e+02
2.030000e-06	3.197429e-06	7.169275e-09	2.254469e+01	4.744534e+02
2.040000e-06	3.179961e-06	7.236409e-09	2.242153e+01	4.735053e+02
2.050000e-06	3.162014e-06	7.147731e-09	2.229498e+01	4.723371e+02
2.060000e-06	3.143433e-06	7.111043e-09	2.216397e+01	4.709448e+02
2.070000e-06	3.123963e-06	7.185170e-09	2.202669e+01	4.693814e+02
2.080000e-06	3.103802e-06	7.080242e-09	2.188454e+01	4.677282e+02
2.090000e-06	3.082585e-06	7.021530e-09	2.173494e+01	4.660565e+02
2.100000e-06	3.059922e-06	7.101954e-09	2.157515e+01	4.643969e+02
2.110000e-06	3.036350e-06	7.033135e-09	2.140894e+01	4.627327e+02
2.120000e-06	3.012104e-06	6.958952e-09	2.123799e+01	4.610157e+02
2.130000e-06	2.986942e-06	6.994937e-09	2.106057e+01	4.591948e+02
2.140000e-06	2.961046e-06	6.936315e-09	2.087798e+01	4.572416e+02
2.150000e-06	2.934454e-06	6.906772e-09	2.069048e+01	4.551598e+02
2.160000e-06	2.907025e-06	6.905226e-09	2.049709e+01	4.529765e+02
2.170000e-06	2.878835e-06	6.814126e-09	2.029832e+01	4.507229e+02
2.180000e-06	2.849636e-06	6.797556e-09	2.009244e+01	4.484170e+02
2.190000e-06	2.819207e-06	6.834790e-09	1.987789e+01	4.460571e+02
2.200000e-06	2.787893e-06	6.735427e-09	1.965710e+01	4.436281e+02
2.210000e-06	2.755860e-06	6.685058e-09	1.943124e+01	4.411147e+02
2.220000e-06	2.723048e-06	6.685425e-09	1.919988e+01	4.385112e+02
2.230000e-06	2.689517e-06	6.611446e-09	1.896346e+01	4.358233e+02
2.240000e-06	2.655198e-06	6.590315e-09	1.872149e+01	4.330609e+02
2.250000e-06	2.620156e-06	6.549849e-09	1.847440e+01	4.302289e+02
2.260000e-06	2.584658e-06	6.478027e-09	1.822412e+01	4.273233e+02
2.270000e-06	2.548627e-06	6.473067e-09	1.797007e+01	4.243346e+02
2.280000e-06	2.511665e-06	6.422609e-09	1.770945e+01	4.212570e+02
2.290000e-06	2.473579e-06	6.337497e-09	1.744091e+01	4.180956e+02
2.300000e-06	2.434568e-06	6.310499e-09	1.716585e+01	4.148651e+02
2.310000e-06	2.395009e-06	6.259970e-09	1.688692e+01	4.115812e+02
2.320000e-06	2.354997e-06	6.201506e-09	1.660480e+01	4.082472e+02
2.330000e-06	2.314403e-06	6.160792e-09	1.631858e+01	4.048467e+02
2.340000e-06	2.273152e-06	6.100427e-09	1.602772e+01	4.013478e+02
2.350000e-06	2.231332e-06	6.048163e-09	1.573286e+01	3.977178e+02
2.360000e-06	2.189033e-06	5.992015e-09	1.543461e+01	3.939411e+02
2.370000e-06	2.146140e-06	5.938109e-09	1.513218e+01	3.900300e+02
2.380000e-06	2.102715e-06	5.883710e-09	1.482599e+01	3.860217e+02
2.390000e-06	2.058921e-06	5.809834e-09	1.451721e+01	3.819612e+02
2.400000e-06	2.014701e-06	5.749019e-09	1.420542e+01	3.778791e+02
2.410000e-06	1.969887e-06	5.694954e-09	1.388944e+01	3.737758e+02
2.420000e-06	1.924314e-06	5.625552e-09	1.356811e+01	3.696205e+02
2.430000e-06	1.878132e-06	5.548506e-09	1.324249e+01	3.653648e+02
2.440000e-06	1.831608e-06	5.483462e-09	1.291445e+01	3.609649e+02
2.450000e-06	1.784601e-06	5.433816e-09	1.258301e+01	3.563993e+02
2.460000e-06	1.736965e-06	5.362580e-09	1.224713e+01	3.516756e+02
2.470000e-06	1.688728e-06	5.273914e-09	1.190702e+01	3.468222e+02
2.480000e-06	1.639909e-06	5.207431e-09	1.156281e+01	3.418727e+02
2.490000e-06	1.590575e-06	5.137498e-09	1.121495e+01	3.368507e+02
2.500000e-06	1.540792e-06	5.053389e-09	1.086394e+01	3.317623e+02
2.510000e-06	1.490554e-06	4.967166e-09	1.050972e+01	3.265985e+02
2.520000e-06	1.439845e-06	4.885269e-09	1.015218e+01	3.213433e+02
2.530000e-06	1.388684e-06	4.813656e-09	9.791443e+00	3.159813e+02
2.540000e-06	1.337122e-06	4.731565e-09	9.427891e+00	3.105007e+02
2.550000e-06	1.285165e-06	4.645397e-09	9.061547e+00	3.048925e+02
2.560000e-06	1.232756e-06	4.559271e-09	8.692018e+00	2.991487e+02
2.570000e-06	1.179814e-06	4.468478e-09	8.318726e+00	2.932640e+02
2.580000e-06	1.126281e-06	4.379363e-09	7.941272e+00	2.872402e+02
2.590000e-06	1.072157e-06	4.288160e-09	7.559653e+00	2.810899e+02
2.600000e-06	1.017523e-06	4.191910e-09	7.174432e+00	2.748359e+02
2.610000e-06	9.625022e-07	4.093097e-09	6.786488e+00	2.685013e+02
2.620000e-06	9.072071e-07	3.997473e-09	6.396609e+00	2.620956e+02
2.630000e-06	8.517777e-07	3.904854e-09	6.005783e+00	2.556037e+02
2.640000e-06	7.962481e-07	3.804265e-09	5.614250e+00	2.489861e+02
2.650000e-06	7.406351e-07	3.699030e-09	5.222129e+00	2.421929e+02
2.660000e-06	6.849184e-07	3.598972e-09	4.829278e+00	2.351875e+02
2.670000e-06	6.290799e-07	3.495234e-09	4.435567e+00	2.279681e+02
2.680000e-06	5.731505e-07	3.381734e-09	4.041216e+00	2.205734e+02
2.690000e-06	5.170714e-07	3.262272e-09	3.645809e+00	2.130686e+02
2.700000e-06	4.608472e-07	3.147672e-09	3.249379e+00	2.055151e+02
2.710000e-06	4.044745e-07	3.037251e-09	2.851901e+00	1.979383e+02
2.720000e-06	3.479181e-07	2.918730e-09	2.453129e+00	1.903107e+02
2.730000e-06	2.913079e-07	2.797216e-09	2.053978e+00	1.825594e+02
2.740000e-06	2.347077e-07	2.678534e-09	1.654896e+00	1.745966e+02
2.750000e-06	1.780517e-07	2.558375e-09	1.255421e+00	1.663585e+02
2.760000e-06	1.213189e-07	2.430174e-09	8.554047e-01	1.578333e+02
2.770000e-06	6.452588e-08	2.296470e-09	4.549643e-01	1.490651e+02
2.780000e-06	7.713296e-09	2.162184e-09	5.438553e-02	1.401304e+02
2.790000e-06	-4.912851e-08	2.025959e-09	-3.463992e-01	1.311003e+02
2.800000e-06	-1.059618e-07	1.888444e-09	-7.471243e-01	1.220063e+02
2.810000e-06	-1.627101e-07	1.750040e-09	-1.147250e+00	1.128271e+02
2.820000e-06	-2.193892e-07	1.608615e-09	-1.546887e+00	1.035020e+02
2.830000e-06	-2.759979e-07	1.463545e-09	-1.946028e+00	9.396339e+01
2.840000e-06	-3.325100e-07	1.316377e-09	-2.344488e+00	8.417070e+01
2.850000e-06	-3.889435e-07	1.165475e-09	-2.742394e+00	7.412865e+01
2.860000e-06	-4.452904e-07	1.009740e-09	-3.139689e+00	6.388198e+01
2.870000e-06	-5.015091e-07	8.502843e-10	-3.536081e+00	5.349041e+01
2.880000e-06	-5.576066e-07	6.906098e-10	-3.931617e+00	4.299815e+01
2.890000e-06	-6.135467e-07	5.307005e-10	-4.326044e+00	3.241420e+01
2.900000e-06	-6.693226e-07	3.666507e-10	-4.719314e+00	2.171305e+01
2.910000e-06	-7.249878e-07	2.008086e-10	-5.111803e+00	1.085397e+01
2.920000e-06	-7.805563e-07	3.413542e-11	-5.503609e+00	-1.924164e-01
2.930000e-06	-8.360408e-07	-1.357307e-10	-5.894824e+00	-1.142470e+01
2.940000e-06	-8.914257e-07	-3.094920e-10	-6.285336e+00	-2.280836e+01
2.950000e-06	-9.466919e-07	-4.853210e-10	-6.675011e+00	-3.429049e+01
