# Temperatura_=_20.0
# Concentracion g/m^3_=_10000.0
# C_Vs_to_Am_M_A/Vsm_=_65563218390.804596
# pendiente_HvsI_1/m_=_3716.3
# ordenada_HvsI_A/m_=_1297.0
# frecuencia_Hz_=_269485.0205796414

Tiempo_(s)	Campo_(V.s)	Magnetizacion_(V.s)	Campo_(kA/m)	Magnetizacion_(A/m)
0.000000e+00	-3.334341e-06	-7.406722e-09	-2.347724e+01	-4.835840e+02
1.000000e-08	-3.334086e-06	-7.408847e-09	-2.347545e+01	-4.837535e+02
2.000000e-08	-3.332934e-06	-7.408221e-09	-2.346734e+01	-4.837655e+02
3.000000e-08	-3.330557e-06	-7.402821e-09	-2.345060e+01	-4.836329e+02
4.000000e-08	-3.327099e-06	-7.396032e-09	-2.342625e+01	-4.834051e+02
5.000000e-08	-3.322849e-06	-7.391194e-09	-2.339633e+01	-4.831451e+02
6.000000e-08	-3.317853e-06	-7.385822e-09	-2.336115e+01	-4.828960e+02
7.000000e-08	-3.311984e-06	-7.372353e-09	-2.331983e+01	-4.826528e+02
8.000000e-08	-3.305076e-06	-7.386393e-09	-2.327119e+01	-4.823597e+02
9.000000e-08	-3.297166e-06	-7.426095e-09	-2.321549e+01	-4.819369e+02
1.000000e-07	-3.288082e-06	-7.412968e-09	-2.315154e+01	-4.813254e+02
1.100000e-07	-3.277702e-06	-7.283922e-09	-2.307845e+01	-4.805254e+02
1.200000e-07	-3.266411e-06	-7.273777e-09	-2.299895e+01	-4.796060e+02
1.300000e-07	-3.254305e-06	-7.388864e-09	-2.291371e+01	-4.786775e+02
1.400000e-07	-3.241222e-06	-7.348294e-09	-2.282159e+01	-4.778379e+02
1.500000e-07	-3.227320e-06	-7.223998e-09	-2.272371e+01	-4.771222e+02
1.600000e-07	-3.212473e-06	-7.302539e-09	-2.261917e+01	-4.764801e+02
1.700000e-07	-3.196194e-06	-7.375677e-09	-2.250455e+01	-4.757959e+02
1.800000e-07	-3.178802e-06	-7.220697e-09	-2.238209e+01	-4.749411e+02
1.900000e-07	-3.160959e-06	-7.216139e-09	-2.225646e+01	-4.738321e+02
2.000000e-07	-3.142434e-06	-7.292521e-09	-2.212602e+01	-4.724644e+02
2.100000e-07	-3.122952e-06	-7.142815e-09	-2.198884e+01	-4.709057e+02
2.200000e-07	-3.102760e-06	-7.102305e-09	-2.184667e+01	-4.692553e+02
2.300000e-07	-3.081844e-06	-7.244918e-09	-2.169940e+01	-4.675923e+02
2.400000e-07	-3.060063e-06	-7.139851e-09	-2.154604e+01	-4.659410e+02
2.500000e-07	-3.037397e-06	-7.010012e-09	-2.138645e+01	-4.642699e+02
2.600000e-07	-3.013896e-06	-7.083381e-09	-2.122098e+01	-4.625206e+02
2.700000e-07	-2.989682e-06	-7.078354e-09	-2.105048e+01	-4.606474e+02
2.800000e-07	-2.964781e-06	-6.982561e-09	-2.087516e+01	-4.586435e+02
2.900000e-07	-2.938802e-06	-6.973016e-09	-2.069224e+01	-4.565401e+02
3.000000e-07	-2.911551e-06	-6.945271e-09	-2.050036e+01	-4.543817e+02
3.100000e-07	-2.883429e-06	-6.906051e-09	-2.030235e+01	-4.521962e+02
3.200000e-07	-2.854628e-06	-6.912439e-09	-2.009957e+01	-4.499773e+02
3.300000e-07	-2.825084e-06	-6.835093e-09	-1.989154e+01	-4.476911e+02
3.400000e-07	-2.794639e-06	-6.776892e-09	-1.967718e+01	-4.453000e+02
3.500000e-07	-2.763275e-06	-6.769907e-09	-1.945634e+01	-4.427884e+02
3.600000e-07	-2.731308e-06	-6.735025e-09	-1.923126e+01	-4.401723e+02
3.700000e-07	-2.698822e-06	-6.701552e-09	-1.900253e+01	-4.374881e+02
3.800000e-07	-2.665473e-06	-6.647097e-09	-1.876772e+01	-4.347677e+02
3.900000e-07	-2.631003e-06	-6.574934e-09	-1.852501e+01	-4.320159e+02
4.000000e-07	-2.595578e-06	-6.570872e-09	-1.827558e+01	-4.292062e+02
4.100000e-07	-2.559472e-06	-6.553536e-09	-1.802136e+01	-4.262969e+02
4.200000e-07	-2.522740e-06	-6.448273e-09	-1.776273e+01	-4.232579e+02
4.300000e-07	-2.485300e-06	-6.397793e-09	-1.749911e+01	-4.200914e+02
4.400000e-07	-2.447065e-06	-6.384866e-09	-1.722990e+01	-4.168321e+02
4.500000e-07	-2.408132e-06	-6.332190e-09	-1.695577e+01	-4.135276e+02
4.600000e-07	-2.368644e-06	-6.267252e-09	-1.667773e+01	-4.102086e+02
4.700000e-07	-2.328708e-06	-6.211758e-09	-1.639654e+01	-4.068686e+02
4.800000e-07	-2.288356e-06	-6.158364e-09	-1.611242e+01	-4.034631e+02
4.900000e-07	-2.247333e-06	-6.116453e-09	-1.582357e+01	-3.999315e+02
5.000000e-07	-2.205422e-06	-6.066612e-09	-1.552847e+01	-3.962280e+02
5.100000e-07	-2.162569e-06	-5.986203e-09	-1.522674e+01	-3.923450e+02
5.200000e-07	-2.118969e-06	-5.919277e-09	-1.491976e+01	-3.883162e+02
5.300000e-07	-2.074928e-06	-5.868604e-09	-1.460966e+01	-3.841991e+02
5.400000e-07	-2.030450e-06	-5.813148e-09	-1.429649e+01	-3.800462e+02
5.500000e-07	-1.985330e-06	-5.741110e-09	-1.397880e+01	-3.758815e+02
5.600000e-07	-1.939624e-06	-5.668500e-09	-1.365698e+01	-3.716927e+02
5.700000e-07	-1.893434e-06	-5.609868e-09	-1.333176e+01	-3.674402e+02
5.800000e-07	-1.846698e-06	-5.560265e-09	-1.300268e+01	-3.630779e+02
5.900000e-07	-1.799415e-06	-5.488197e-09	-1.266976e+01	-3.585712e+02
6.000000e-07	-1.751642e-06	-5.395732e-09	-1.233339e+01	-3.539074e+02
6.100000e-07	-1.703517e-06	-5.322686e-09	-1.199454e+01	-3.490938e+02
6.200000e-07	-1.654951e-06	-5.258644e-09	-1.165259e+01	-3.441500e+02
6.300000e-07	-1.605696e-06	-5.182964e-09	-1.130578e+01	-3.390998e+02
6.400000e-07	-1.555693e-06	-5.092078e-09	-1.095371e+01	-3.339649e+02
6.500000e-07	-1.504987e-06	-5.009128e-09	-1.059668e+01	-3.287620e+02
6.600000e-07	-1.453642e-06	-4.938998e-09	-1.023516e+01	-3.234990e+02
6.700000e-07	-1.401830e-06	-4.865406e-09	-9.870347e+00	-3.181695e+02
6.800000e-07	-1.349619e-06	-4.774889e-09	-9.502728e+00	-3.127499e+02
6.900000e-07	-1.296983e-06	-4.678011e-09	-9.132116e+00	-3.072021e+02
7.000000e-07	-1.243909e-06	-4.593685e-09	-8.758418e+00	-3.014850e+02
7.100000e-07	-1.190417e-06	-4.512400e-09	-8.381777e+00	-2.955727e+02
7.200000e-07	-1.136613e-06	-4.420186e-09	-8.002945e+00	-2.894705e+02
7.300000e-07	-1.082565e-06	-4.316053e-09	-7.622389e+00	-2.832189e+02
7.400000e-07	-1.028216e-06	-4.217813e-09	-7.239719e+00	-2.768804e+02
7.500000e-07	-9.735150e-07	-4.127749e-09	-6.854563e+00	-2.705118e+02
7.600000e-07	-9.184929e-07	-4.034121e-09	-6.467150e+00	-2.641362e+02
7.700000e-07	-8.632293e-07	-3.927347e-09	-6.078036e+00	-2.577272e+02
7.800000e-07	-8.077499e-07	-3.817089e-09	-5.687404e+00	-2.512160e+02
7.900000e-07	-7.520625e-07	-3.717810e-09	-5.295306e+00	-2.445200e+02
8.000000e-07	-6.962122e-07	-3.619906e-09	-4.902062e+00	-2.375795e+02
8.100000e-07	-6.402509e-07	-3.508080e-09	-4.508036e+00	-2.303842e+02
8.200000e-07	-5.842166e-07	-3.385135e-09	-4.113496e+00	-2.229775e+02
8.300000e-07	-5.281280e-07	-3.269937e-09	-3.718573e+00	-2.154351e+02
8.400000e-07	-4.720289e-07	-3.161521e-09	-3.323577e+00	-2.078293e+02
8.500000e-07	-4.158921e-07	-3.044845e-09	-2.928315e+00	-2.001953e+02
8.600000e-07	-3.596923e-07	-2.917415e-09	-2.532610e+00	-1.925167e+02
8.700000e-07	-3.034462e-07	-2.794795e-09	-2.136578e+00	-1.847337e+02
8.800000e-07	-2.471021e-07	-2.681853e-09	-1.739857e+00	-1.767705e+02
8.900000e-07	-1.907416e-07	-2.563503e-09	-1.343021e+00	-1.685675e+02
9.000000e-07	-1.343949e-07	-2.431186e-09	-9.462805e-01	-1.601022e+02
9.100000e-07	-7.802260e-08	-2.291335e-09	-5.493607e-01	-1.513936e+02
9.200000e-07	-2.162508e-08	-2.156152e-09	-1.522632e-01	-1.424878e+02
9.300000e-07	3.481859e-08	-2.020789e-09	2.451593e-01	-1.334361e+02
9.400000e-07	9.121270e-08	-1.877741e-09	6.422328e-01	-1.242742e+02
9.500000e-07	1.475803e-07	-1.730075e-09	1.039120e+00	-1.150116e+02
9.600000e-07	2.039395e-07	-1.586447e-09	1.435948e+00	-1.056327e+02
9.700000e-07	2.602641e-07	-1.447271e-09	1.832531e+00	-9.610716e+01
9.800000e-07	3.165520e-07	-1.300989e-09	2.228857e+00	-8.640259e+01
9.900000e-07	3.727958e-07	-1.144795e-09	2.624872e+00	-7.649569e+01
1.000000e-06	4.289959e-07	-9.859007e-10	3.020579e+00	-6.637803e+01
1.010000e-06	4.851260e-07	-8.306292e-10	3.415794e+00	-5.605614e+01
1.020000e-06	5.412241e-07	-6.740907e-10	3.810783e+00	-4.554738e+01
1.030000e-06	5.972762e-07	-5.105119e-10	4.205449e+00	-3.487353e+01
1.040000e-06	6.532459e-07	-3.418641e-10	4.599534e+00	-2.405435e+01
1.050000e-06	7.091510e-07	-1.751719e-10	4.993164e+00	-1.310315e+01
1.060000e-06	7.649635e-07	-1.016314e-11	5.386143e+00	-2.025616e+00
1.070000e-06	8.206354e-07	1.607822e-10	5.778131e+00	9.177924e+00
1.080000e-06	8.760287e-07	3.378950e-10	6.168158e+00	2.050806e+01
1.090000e-06	9.310263e-07	5.152506e-10	6.555398e+00	3.196189e+01
1.100000e-06	9.857194e-07	6.887214e-10	6.940495e+00	4.353064e+01
1.110000e-06	1.040154e-06	8.636620e-10	7.323769e+00	5.520000e+01
1.120000e-06	1.094323e-06	1.044552e-09	7.705175e+00	6.695204e+01
1.130000e-06	1.148269e-06	1.226772e-09	8.085011e+00	7.876650e+01
1.140000e-06	1.201928e-06	1.406576e-09	8.462830e+00	9.061999e+01
1.150000e-06	1.255188e-06	1.584652e-09	8.837836e+00	1.024839e+02
1.160000e-06	1.307968e-06	1.763695e-09	9.209462e+00	1.143232e+02
1.170000e-06	1.360307e-06	1.944788e-09	9.577984e+00	1.261001e+02
1.180000e-06	1.412308e-06	2.123537e-09	9.944126e+00	1.377819e+02
1.190000e-06	1.463878e-06	2.297512e-09	1.030723e+01	1.493510e+02
1.200000e-06	1.514841e-06	2.471602e-09	1.066606e+01	1.608102e+02
1.210000e-06	1.564976e-06	2.646846e-09	1.101907e+01	1.721787e+02
1.220000e-06	1.614248e-06	2.820412e-09	1.136599e+01	1.834772e+02
1.230000e-06	1.662919e-06	2.990111e-09	1.170869e+01	1.947088e+02
1.240000e-06	1.711201e-06	3.157874e-09	1.204864e+01	2.058445e+02
1.250000e-06	1.759174e-06	3.326544e-09	1.238642e+01	2.168239e+02
1.260000e-06	1.806790e-06	3.493734e-09	1.272169e+01	2.275724e+02
1.270000e-06	1.853846e-06	3.655251e-09	1.305302e+01	2.380305e+02
1.280000e-06	1.900362e-06	3.809240e-09	1.338053e+01	2.481780e+02
1.290000e-06	1.946385e-06	3.959895e-09	1.370458e+01	2.580431e+02
1.300000e-06	1.991840e-06	4.108531e-09	1.402464e+01	2.676862e+02
1.310000e-06	2.036708e-06	4.254944e-09	1.434056e+01	2.771679e+02
1.320000e-06	2.081101e-06	4.396730e-09	1.465313e+01	2.865137e+02
1.330000e-06	2.125232e-06	4.534635e-09	1.496385e+01	2.956956e+02
1.340000e-06	2.169006e-06	4.671624e-09	1.527207e+01	3.046394e+02
1.350000e-06	2.212077e-06	4.805894e-09	1.557533e+01	3.132562e+02
1.360000e-06	2.254164e-06	4.931860e-09	1.587167e+01	3.214814e+02
1.370000e-06	2.295251e-06	5.047116e-09	1.616097e+01	3.293033e+02
1.380000e-06	2.335624e-06	5.157740e-09	1.644523e+01	3.367666e+02
1.390000e-06	2.375562e-06	5.267642e-09	1.672644e+01	3.439495e+02
1.400000e-06	2.414984e-06	5.376584e-09	1.700401e+01	3.509276e+02
1.410000e-06	2.453741e-06	5.481575e-09	1.727690e+01	3.577413e+02
1.420000e-06	2.491861e-06	5.580590e-09	1.754531e+01	3.643836e+02
1.430000e-06	2.529255e-06	5.675357e-09	1.780860e+01	3.708111e+02
1.440000e-06	2.565951e-06	5.768007e-09	1.806698e+01	3.769712e+02
1.450000e-06	2.602190e-06	5.857251e-09	1.832214e+01	3.828310e+02
1.460000e-06	2.637887e-06	5.940709e-09	1.857349e+01	3.883932e+02
1.470000e-06	2.672681e-06	6.019738e-09	1.881847e+01	3.936939e+02
1.480000e-06	2.706293e-06	6.096509e-09	1.905513e+01	3.987857e+02
1.490000e-06	2.738928e-06	6.171932e-09	1.928492e+01	4.037164e+02
1.500000e-06	2.770945e-06	6.245603e-09	1.951035e+01	4.085133e+02
1.510000e-06	2.802272e-06	6.316420e-09	1.973093e+01	4.131787e+02
1.520000e-06	2.832840e-06	6.384990e-09	1.994616e+01	4.176964e+02
1.530000e-06	2.862664e-06	6.450604e-09	2.015615e+01	4.220430e+02
1.540000e-06	2.891646e-06	6.512001e-09	2.036021e+01	4.261991e+02
1.550000e-06	2.919953e-06	6.569894e-09	2.055952e+01	4.301570e+02
1.560000e-06	2.947619e-06	6.626688e-09	2.075432e+01	4.339223e+02
1.570000e-06	2.974282e-06	6.682527e-09	2.094205e+01	4.375126e+02
1.580000e-06	2.999733e-06	6.734632e-09	2.112125e+01	4.409527e+02
1.590000e-06	3.024209e-06	6.782167e-09	2.129359e+01	4.442669e+02
1.600000e-06	3.047908e-06	6.827711e-09	2.146046e+01	4.474705e+02
1.610000e-06	3.070742e-06	6.873201e-09	2.162123e+01	4.505632e+02
1.620000e-06	3.092768e-06	6.916156e-09	2.177632e+01	4.535272e+02
1.630000e-06	3.114007e-06	6.954485e-09	2.192586e+01	4.563327e+02
1.640000e-06	3.134530e-06	6.989031e-09	2.207037e+01	4.589507e+02
1.650000e-06	3.154449e-06	7.022876e-09	2.221062e+01	4.613678e+02
1.660000e-06	3.173546e-06	7.057161e-09	2.234508e+01	4.635952e+02
1.670000e-06	3.191627e-06	7.088058e-09	2.247239e+01	4.656672e+02
1.680000e-06	3.208806e-06	7.114242e-09	2.259335e+01	4.676287e+02
1.690000e-06	3.225068e-06	7.139383e-09	2.270785e+01	4.695161e+02
1.700000e-06	3.240257e-06	7.166127e-09	2.281479e+01	4.713434e+02
1.710000e-06	3.254464e-06	7.192364e-09	2.291483e+01	4.730979e+02
1.720000e-06	3.267768e-06	7.215546e-09	2.300850e+01	4.747498e+02
1.730000e-06	3.280156e-06	7.235404e-09	2.309573e+01	4.762687e+02
1.740000e-06	3.291526e-06	7.254046e-09	2.317578e+01	4.776385e+02
1.750000e-06	3.301649e-06	7.271651e-09	2.324706e+01	4.788618e+02
1.760000e-06	3.310602e-06	7.287106e-09	2.331010e+01	4.799545e+02
1.770000e-06	3.318696e-06	7.301217e-09	2.336709e+01	4.809345e+02
1.780000e-06	3.325940e-06	7.314563e-09	2.341810e+01	4.818126e+02
1.790000e-06	3.332258e-06	7.327086e-09	2.346258e+01	4.825930e+02
1.800000e-06	3.337667e-06	7.338042e-09	2.350066e+01	4.832794e+02
1.810000e-06	3.342280e-06	7.347151e-09	2.353315e+01	4.838826e+02
1.820000e-06	3.346133e-06	7.355351e-09	2.356028e+01	4.844202e+02
1.830000e-06	3.348971e-06	7.362841e-09	2.358026e+01	4.849074e+02
1.840000e-06	3.350556e-06	7.368933e-09	2.359142e+01	4.853437e+02
1.850000e-06	3.351036e-06	7.372930e-09	2.359480e+01	4.857057e+02
1.860000e-06	3.350675e-06	7.375753e-09	2.359226e+01	4.859540e+02
1.870000e-06	3.349482e-06	7.377106e-09	2.358385e+01	4.860535e+02
1.880000e-06	3.347444e-06	7.378161e-09	2.356950e+01	4.859964e+02
1.890000e-06	3.344562e-06	7.379044e-09	2.354922e+01	4.858137e+02
1.900000e-06	3.340969e-06	7.378279e-09	2.352391e+01	4.855650e+02
1.910000e-06	3.336648e-06	7.376424e-09	2.349349e+01	4.853083e+02
1.920000e-06	3.331341e-06	7.386888e-09	2.345613e+01	4.850671e+02
1.930000e-06	3.324953e-06	7.375793e-09	2.341114e+01	4.848116e+02
1.940000e-06	3.317466e-06	7.309230e-09	2.335843e+01	4.844700e+02
1.950000e-06	3.308654e-06	7.288113e-09	2.329638e+01	4.839664e+02
1.960000e-06	3.298394e-06	7.406416e-09	2.322414e+01	4.832654e+02
1.970000e-06	3.287405e-06	7.401762e-09	2.314677e+01	4.823998e+02
1.980000e-06	3.276373e-06	7.264503e-09	2.306909e+01	4.814631e+02
1.990000e-06	3.264468e-06	7.262124e-09	2.298527e+01	4.805673e+02
2.000000e-06	3.250722e-06	7.375372e-09	2.288848e+01	4.797865e+02
2.010000e-06	3.235792e-06	7.284655e-09	2.278336e+01	4.791169e+02
2.020000e-06	3.220328e-06	7.164766e-09	2.267448e+01	4.784733e+02
2.030000e-06	3.203894e-06	7.298896e-09	2.255876e+01	4.777266e+02
2.040000e-06	3.186504e-06	7.301182e-09	2.243632e+01	4.767625e+02
2.050000e-06	3.168596e-06	7.150567e-09	2.231023e+01	4.755318e+02
2.060000e-06	3.149963e-06	7.258600e-09	2.217903e+01	4.740663e+02
2.070000e-06	3.130507e-06	7.297856e-09	2.204204e+01	4.724546e+02
2.080000e-06	3.110421e-06	7.063837e-09	2.190061e+01	4.707926e+02
2.090000e-06	3.089250e-06	7.108391e-09	2.175155e+01	4.691370e+02
2.100000e-06	3.066640e-06	7.224672e-09	2.159235e+01	4.674843e+02
2.110000e-06	3.043101e-06	7.069903e-09	2.142661e+01	4.657860e+02
2.120000e-06	3.018812e-06	7.010092e-09	2.125559e+01	4.639848e+02
2.130000e-06	2.993629e-06	7.084229e-09	2.107828e+01	4.620512e+02
2.140000e-06	2.967780e-06	6.996551e-09	2.089627e+01	4.599975e+02
2.150000e-06	2.941264e-06	6.978262e-09	2.070957e+01	4.578649e+02
2.160000e-06	2.913927e-06	6.965517e-09	2.051710e+01	4.556938e+02
2.170000e-06	2.885801e-06	6.844962e-09	2.031905e+01	4.534971e+02
2.180000e-06	2.856622e-06	6.882698e-09	2.011361e+01	4.512537e+02
2.190000e-06	2.826219e-06	6.889006e-09	1.989954e+01	4.489245e+02
2.200000e-06	2.794935e-06	6.774224e-09	1.967926e+01	4.464794e+02
2.210000e-06	2.762920e-06	6.763285e-09	1.945385e+01	4.439174e+02
2.220000e-06	2.730161e-06	6.722627e-09	1.922319e+01	4.412665e+02
2.230000e-06	2.696655e-06	6.650137e-09	1.898727e+01	4.385643e+02
2.240000e-06	2.662314e-06	6.676743e-09	1.874548e+01	4.358322e+02
2.250000e-06	2.627330e-06	6.592938e-09	1.849915e+01	4.330599e+02
2.260000e-06	2.591897e-06	6.510803e-09	1.824966e+01	4.302108e+02
2.270000e-06	2.555848e-06	6.548753e-09	1.799584e+01	4.272455e+02
2.280000e-06	2.518920e-06	6.482143e-09	1.773583e+01	4.241468e+02
2.290000e-06	2.481019e-06	6.388503e-09	1.746897e+01	4.209333e+02
2.300000e-06	2.442151e-06	6.356538e-09	1.719529e+01	4.176489e+02
2.310000e-06	2.402578e-06	6.306952e-09	1.691666e+01	4.143372e+02
2.320000e-06	2.362554e-06	6.269451e-09	1.663485e+01	4.110132e+02
2.330000e-06	2.322012e-06	6.218001e-09	1.634939e+01	4.076516e+02
2.340000e-06	2.280868e-06	6.147538e-09	1.605970e+01	4.041968e+02
2.350000e-06	2.239101e-06	6.102036e-09	1.576561e+01	4.005914e+02
2.360000e-06	2.196754e-06	6.053828e-09	1.546745e+01	3.968052e+02
2.370000e-06	2.153799e-06	5.995854e-09	1.516500e+01	3.928504e+02
2.380000e-06	2.110338e-06	5.926402e-09	1.485899e+01	3.887748e+02
2.390000e-06	2.066524e-06	5.852406e-09	1.455049e+01	3.846373e+02
2.400000e-06	2.022262e-06	5.799865e-09	1.423884e+01	3.804796e+02
2.410000e-06	1.977402e-06	5.741373e-09	1.392297e+01	3.763087e+02
2.420000e-06	1.931828e-06	5.671768e-09	1.360209e+01	3.720977e+02
2.430000e-06	1.885685e-06	5.588306e-09	1.327719e+01	3.678015e+02
2.440000e-06	1.839123e-06	5.521530e-09	1.294935e+01	3.633773e+02
2.450000e-06	1.792080e-06	5.481731e-09	1.261812e+01	3.588001e+02
2.460000e-06	1.744514e-06	5.403198e-09	1.228320e+01	3.540670e+02
2.470000e-06	1.696317e-06	5.312144e-09	1.194385e+01	3.491922e+02
2.480000e-06	1.647405e-06	5.240986e-09	1.159945e+01	3.441979e+02
2.490000e-06	1.597972e-06	5.173030e-09	1.125139e+01	3.391077e+02
2.500000e-06	1.548113e-06	5.097976e-09	1.090033e+01	3.339412e+02
2.510000e-06	1.497794e-06	5.005495e-09	1.054603e+01	3.287118e+02
2.520000e-06	1.447022e-06	4.917235e-09	1.018855e+01	3.234213e+02
2.530000e-06	1.395806e-06	4.849597e-09	9.827930e+00	3.180557e+02
2.540000e-06	1.344202e-06	4.773614e-09	9.464590e+00	3.125840e+02
2.550000e-06	1.292214e-06	4.684138e-09	9.098537e+00	3.069644e+02
2.560000e-06	1.239813e-06	4.589497e-09	8.729580e+00	3.011607e+02
2.570000e-06	1.186916e-06	4.498292e-09	8.357130e+00	2.951597e+02
2.580000e-06	1.133429e-06	4.412302e-09	7.980525e+00	2.889835e+02
2.590000e-06	1.079343e-06	4.315176e-09	7.599700e+00	2.826851e+02
2.600000e-06	1.024669e-06	4.212336e-09	7.214740e+00	2.763284e+02
2.610000e-06	9.695544e-07	4.112573e-09	6.826676e+00	2.699579e+02
2.620000e-06	9.142194e-07	4.025206e-09	6.437060e+00	2.635746e+02
2.630000e-06	8.587298e-07	3.939337e-09	6.046356e+00	2.571301e+02
2.640000e-06	8.031022e-07	3.834564e-09	5.654679e+00	2.505452e+02
2.650000e-06	7.473655e-07	3.723913e-09	5.262234e+00	2.437432e+02
2.660000e-06	6.915334e-07	3.620374e-09	4.869118e+00	2.366850e+02
2.670000e-06	6.356001e-07	3.516983e-09	4.475289e+00	2.293860e+02
2.680000e-06	5.795386e-07	3.400951e-09	4.080558e+00	2.219083e+02
2.690000e-06	5.233181e-07	3.276886e-09	3.684707e+00	2.143307e+02
2.700000e-06	4.669418e-07	3.163680e-09	3.287758e+00	2.067119e+02
2.710000e-06	4.104626e-07	3.058783e-09	2.890086e+00	1.990638e+02
2.720000e-06	3.538761e-07	2.942450e-09	2.491658e+00	1.913477e+02
2.730000e-06	2.971649e-07	2.814576e-09	2.092352e+00	1.834925e+02
2.740000e-06	2.403728e-07	2.688824e-09	1.692476e+00	1.754261e+02
2.750000e-06	1.835204e-07	2.567243e-09	1.292175e+00	1.671043e+02
2.760000e-06	1.266728e-07	2.440106e-09	8.919086e-01	1.585243e+02
2.770000e-06	6.983179e-08	2.302388e-09	4.916888e-01	1.497200e+02
2.780000e-06	1.295249e-08	2.164346e-09	9.119904e-02	1.407427e+02
2.790000e-06	-4.395742e-08	2.031453e-09	-3.095062e-01	1.316388e+02
2.800000e-06	-1.008556e-07	1.897983e-09	-7.101288e-01	1.224324e+02
2.810000e-06	-1.577138e-07	1.756321e-09	-1.110470e+00	1.131209e+02
2.820000e-06	-2.144952e-07	1.607608e-09	-1.510271e+00	1.036803e+02
2.830000e-06	-2.711932e-07	1.459592e-09	-1.909483e+00	9.407759e+01
2.840000e-06	-3.278403e-07	1.312903e-09	-2.308339e+00	8.428359e+01
2.850000e-06	-3.844262e-07	1.162480e-09	-2.706762e+00	7.428143e+01
2.860000e-06	-4.408831e-07	1.005465e-09	-3.104278e+00	6.406981e+01
2.870000e-06	-4.971582e-07	8.460235e-10	-3.500514e+00	5.366094e+01
2.880000e-06	-5.533030e-07	6.866869e-10	-3.895832e+00	4.307505e+01
2.890000e-06	-6.093408e-07	5.249632e-10	-4.290396e+00	3.233370e+01
2.900000e-06	-6.652162e-07	3.566236e-10	-4.683817e+00	2.145408e+01
2.910000e-06	-7.209345e-07	1.839741e-10	-5.076132e+00	1.044592e+01
2.920000e-06	-7.765954e-07	1.418854e-11	-5.468043e+00	-6.879870e-01
2.930000e-06	-8.322108e-07	-1.539295e-10	-5.859634e+00	-1.194835e+01
2.940000e-06	-8.877160e-07	-3.264499e-10	-6.250448e+00	-2.333463e+01
2.950000e-06	-9.430496e-07	-5.044478e-10	-6.640055e+00	-3.484134e+01
