# Temperatura_=_20.0
# Concentracion g/m^3_=_10000.0
# C_Vs_to_Am_M_A/Vsm_=_65563218390.804596
# pendiente_HvsI_1/m_=_3716.3
# ordenada_HvsI_A/m_=_1297.0
# frecuencia_Hz_=_269492.896287519

Tiempo_(s)	Campo_(V.s)	Magnetizacion_(V.s)	Campo_(kA/m)	Magnetizacion_(A/m)
0.000000e+00	-3.327002e-06	-7.322412e-09	-2.348014e+01	-4.785236e+02
1.000000e-08	-3.326471e-06	-7.322243e-09	-2.347640e+01	-4.786721e+02
2.000000e-08	-3.325109e-06	-7.322253e-09	-2.346679e+01	-4.787322e+02
3.000000e-08	-3.322539e-06	-7.320810e-09	-2.344865e+01	-4.787020e+02
4.000000e-08	-3.318866e-06	-7.319023e-09	-2.342273e+01	-4.785859e+02
5.000000e-08	-3.314453e-06	-7.316342e-09	-2.339158e+01	-4.783973e+02
6.000000e-08	-3.309275e-06	-7.306266e-09	-2.335504e+01	-4.781511e+02
7.000000e-08	-3.303141e-06	-7.289057e-09	-2.331175e+01	-4.778526e+02
8.000000e-08	-3.295994e-06	-7.311815e-09	-2.326131e+01	-4.774893e+02
9.000000e-08	-3.287844e-06	-7.373362e-09	-2.320379e+01	-4.770338e+02
1.000000e-07	-3.278541e-06	-7.338797e-09	-2.313814e+01	-4.764587e+02
1.100000e-07	-3.268084e-06	-7.178376e-09	-2.306434e+01	-4.757560e+02
1.200000e-07	-3.256754e-06	-7.181054e-09	-2.298437e+01	-4.749474e+02
1.300000e-07	-3.244525e-06	-7.341961e-09	-2.289807e+01	-4.740788e+02
1.400000e-07	-3.231227e-06	-7.302225e-09	-2.280422e+01	-4.731986e+02
1.500000e-07	-3.217073e-06	-7.122637e-09	-2.270432e+01	-4.723312e+02
1.600000e-07	-3.201998e-06	-7.243714e-09	-2.259793e+01	-4.714617e+02
1.700000e-07	-3.185477e-06	-7.341513e-09	-2.248134e+01	-4.705409e+02
1.800000e-07	-3.167883e-06	-7.156809e-09	-2.235717e+01	-4.695092e+02
1.900000e-07	-3.149829e-06	-7.153575e-09	-2.222976e+01	-4.683263e+02
2.000000e-07	-3.130992e-06	-7.247436e-09	-2.209681e+01	-4.669900e+02
2.100000e-07	-3.111205e-06	-7.100094e-09	-2.195717e+01	-4.655331e+02
2.200000e-07	-3.090767e-06	-7.043650e-09	-2.181293e+01	-4.640004e+02
2.300000e-07	-3.069599e-06	-7.207303e-09	-2.166354e+01	-4.624211e+02
2.400000e-07	-3.047540e-06	-7.099732e-09	-2.150786e+01	-4.607930e+02
2.500000e-07	-3.024665e-06	-6.944641e-09	-2.134642e+01	-4.590883e+02
2.600000e-07	-3.000988e-06	-7.029633e-09	-2.117932e+01	-4.572773e+02
2.700000e-07	-2.976613e-06	-7.032824e-09	-2.100729e+01	-4.553531e+02
2.800000e-07	-2.951512e-06	-6.931716e-09	-2.083015e+01	-4.533408e+02
2.900000e-07	-2.925273e-06	-6.929357e-09	-2.064496e+01	-4.512842e+02
3.000000e-07	-2.897768e-06	-6.884075e-09	-2.045085e+01	-4.492166e+02
3.100000e-07	-2.869418e-06	-6.862246e-09	-2.025077e+01	-4.471340e+02
3.200000e-07	-2.840458e-06	-6.877910e-09	-2.004639e+01	-4.449900e+02
3.300000e-07	-2.810692e-06	-6.761835e-09	-1.983631e+01	-4.427170e+02
3.400000e-07	-2.780030e-06	-6.700799e-09	-1.961992e+01	-4.402640e+02
3.500000e-07	-2.748607e-06	-6.732908e-09	-1.939815e+01	-4.376291e+02
3.600000e-07	-2.716599e-06	-6.678182e-09	-1.917226e+01	-4.348653e+02
3.700000e-07	-2.684063e-06	-6.618442e-09	-1.894264e+01	-4.320563e+02
3.800000e-07	-2.650676e-06	-6.598408e-09	-1.870701e+01	-4.292725e+02
3.900000e-07	-2.616113e-06	-6.505800e-09	-1.846309e+01	-4.265325e+02
4.000000e-07	-2.580558e-06	-6.484350e-09	-1.821215e+01	-4.237921e+02
4.100000e-07	-2.544343e-06	-6.488476e-09	-1.795657e+01	-4.209680e+02
4.200000e-07	-2.507558e-06	-6.382957e-09	-1.769696e+01	-4.179826e+02
4.300000e-07	-2.470103e-06	-6.316637e-09	-1.743263e+01	-4.148054e+02
4.400000e-07	-2.431899e-06	-6.317117e-09	-1.716300e+01	-4.114686e+02
4.500000e-07	-2.392980e-06	-6.265412e-09	-1.688833e+01	-4.080468e+02
4.600000e-07	-2.353415e-06	-6.189751e-09	-1.660911e+01	-4.046150e+02
4.700000e-07	-2.313347e-06	-6.137811e-09	-1.632633e+01	-4.012075e+02
4.800000e-07	-2.272871e-06	-6.079243e-09	-1.604067e+01	-3.977997e+02
4.900000e-07	-2.231822e-06	-6.043176e-09	-1.575097e+01	-3.943239e+02
5.000000e-07	-2.189926e-06	-5.997603e-09	-1.545529e+01	-3.907060e+02
5.100000e-07	-2.147005e-06	-5.911872e-09	-1.515237e+01	-3.869036e+02
5.200000e-07	-2.103282e-06	-5.836245e-09	-1.484380e+01	-3.829251e+02
5.300000e-07	-2.059093e-06	-5.792222e-09	-1.453194e+01	-3.788193e+02
5.400000e-07	-2.014495e-06	-5.740485e-09	-1.421719e+01	-3.746469e+02
5.500000e-07	-1.969406e-06	-5.665051e-09	-1.389898e+01	-3.704486e+02
5.600000e-07	-1.923758e-06	-5.589457e-09	-1.357682e+01	-3.662295e+02
5.700000e-07	-1.877570e-06	-5.530647e-09	-1.325085e+01	-3.619635e+02
5.800000e-07	-1.830859e-06	-5.485293e-09	-1.292119e+01	-3.576121e+02
5.900000e-07	-1.783568e-06	-5.405019e-09	-1.258744e+01	-3.531450e+02
6.000000e-07	-1.735751e-06	-5.305014e-09	-1.224997e+01	-3.485490e+02
6.100000e-07	-1.687595e-06	-5.235833e-09	-1.191011e+01	-3.438244e+02
6.200000e-07	-1.639028e-06	-5.182528e-09	-1.156736e+01	-3.389756e+02
6.300000e-07	-1.589824e-06	-5.105136e-09	-1.122010e+01	-3.340039e+02
6.400000e-07	-1.539966e-06	-5.012305e-09	-1.086823e+01	-3.289110e+02
6.500000e-07	-1.489330e-06	-4.930906e-09	-1.051087e+01	-3.237061e+02
6.600000e-07	-1.437919e-06	-4.860872e-09	-1.014804e+01	-3.184115e+02
6.700000e-07	-1.386027e-06	-4.788875e-09	-9.781812e+00	-3.130567e+02
6.800000e-07	-1.333734e-06	-4.697251e-09	-9.412759e+00	-3.076623e+02
6.900000e-07	-1.281010e-06	-4.599857e-09	-9.040659e+00	-3.022221e+02
7.000000e-07	-1.227851e-06	-4.516228e-09	-8.665492e+00	-2.966971e+02
7.100000e-07	-1.174338e-06	-4.440878e-09	-8.287827e+00	-2.910277e+02
7.200000e-07	-1.120532e-06	-4.349938e-09	-7.908100e+00	-2.851614e+02
7.300000e-07	-1.066444e-06	-4.244422e-09	-7.526371e+00	-2.790821e+02
7.400000e-07	-1.012087e-06	-4.147905e-09	-7.142749e+00	-2.728224e+02
7.500000e-07	-9.574622e-07	-4.064061e-09	-6.757241e+00	-2.664508e+02
7.600000e-07	-9.025726e-07	-3.973436e-09	-6.369860e+00	-2.600370e+02
7.700000e-07	-8.474082e-07	-3.862684e-09	-5.980540e+00	-2.536139e+02
7.800000e-07	-7.919876e-07	-3.751477e-09	-5.589412e+00	-2.471559e+02
7.900000e-07	-7.364042e-07	-3.653699e-09	-5.197135e+00	-2.405878e+02
8.000000e-07	-6.806420e-07	-3.557817e-09	-4.803596e+00	-2.338198e+02
8.100000e-07	-6.246615e-07	-3.445654e-09	-4.408516e+00	-2.267926e+02
8.200000e-07	-5.685693e-07	-3.325057e-09	-4.012649e+00	-2.195070e+02
8.300000e-07	-5.124325e-07	-3.214198e-09	-3.616466e+00	-2.120243e+02
8.400000e-07	-4.562542e-07	-3.109585e-09	-3.219991e+00	-2.044358e+02
8.500000e-07	-4.000299e-07	-2.994811e-09	-2.823190e+00	-1.968179e+02
8.600000e-07	-3.437828e-07	-2.865712e-09	-2.426229e+00	-1.891948e+02
8.700000e-07	-2.875074e-07	-2.742205e-09	-2.029068e+00	-1.815286e+02
8.800000e-07	-2.312193e-07	-2.630120e-09	-1.631818e+00	-1.737379e+02
8.900000e-07	-1.749326e-07	-2.514288e-09	-1.234578e+00	-1.657365e+02
9.000000e-07	-1.186239e-07	-2.383023e-09	-8.371819e-01	-1.574714e+02
9.100000e-07	-6.228904e-08	-2.245417e-09	-4.396017e-01	-1.489413e+02
9.200000e-07	-5.956150e-09	-2.114044e-09	-4.203522e-02	-1.401915e+02
9.300000e-07	5.034900e-08	-1.983941e-09	3.553355e-01	-1.312872e+02
9.400000e-07	1.066456e-07	-1.842905e-09	7.526457e-01	-1.222827e+02
9.500000e-07	1.629468e-07	-1.694423e-09	1.149989e+00	-1.131994e+02
9.600000e-07	2.192723e-07	-1.553022e-09	1.547503e+00	-1.040214e+02
9.700000e-07	2.756119e-07	-1.416654e-09	1.945117e+00	-9.470764e+01
9.800000e-07	3.318931e-07	-1.273228e-09	2.342319e+00	-8.521175e+01
9.900000e-07	3.880975e-07	-1.118482e-09	2.738978e+00	-7.550075e+01
1.000000e-06	4.442817e-07	-9.632331e-10	3.135495e+00	-6.556476e+01
1.010000e-06	5.004488e-07	-8.128544e-10	3.531891e+00	-5.541622e+01
1.020000e-06	5.565788e-07	-6.593767e-10	3.928026e+00	-4.508180e+01
1.030000e-06	6.126312e-07	-4.963982e-10	4.323613e+00	-3.459157e+01
1.040000e-06	6.685398e-07	-3.287310e-10	4.718185e+00	-2.397005e+01
1.050000e-06	7.242650e-07	-1.649722e-10	5.111463e+00	-1.323155e+01
1.060000e-06	7.798360e-07	-3.263700e-12	5.503653e+00	-2.380196e+00
1.070000e-06	8.351698e-07	1.634068e-10	5.894168e+00	8.586374e+00
1.080000e-06	8.902172e-07	3.361623e-10	6.282662e+00	1.967145e+01
1.090000e-06	9.450169e-07	5.078182e-10	6.669408e+00	3.087405e+01
1.100000e-06	9.995928e-07	6.767533e-10	7.054575e+00	4.218591e+01
1.110000e-06	1.053965e-06	8.488270e-10	7.438307e+00	5.359172e+01
1.120000e-06	1.108074e-06	1.028102e-09	7.820173e+00	6.507208e+01
1.130000e-06	1.161876e-06	1.208644e-09	8.199878e+00	7.660723e+01
1.140000e-06	1.215276e-06	1.383773e-09	8.576748e+00	8.817922e+01
1.150000e-06	1.268213e-06	1.557212e-09	8.950348e+00	9.977110e+01
1.160000e-06	1.320714e-06	1.732921e-09	9.320871e+00	1.113638e+02
1.170000e-06	1.372827e-06	1.910511e-09	9.688654e+00	1.229337e+02
1.180000e-06	1.424540e-06	2.085133e-09	1.005362e+01	1.344527e+02
1.190000e-06	1.475793e-06	2.257285e-09	1.041533e+01	1.458938e+02
1.200000e-06	1.526381e-06	2.431061e-09	1.077236e+01	1.572377e+02
1.210000e-06	1.576161e-06	2.605423e-09	1.112368e+01	1.684770e+02
1.220000e-06	1.625185e-06	2.776218e-09	1.146966e+01	1.796141e+02
1.230000e-06	1.673674e-06	2.941882e-09	1.181187e+01	1.906520e+02
1.240000e-06	1.721823e-06	3.106550e-09	1.215168e+01	2.015821e+02
1.250000e-06	1.769604e-06	3.273066e-09	1.248889e+01	2.123764e+02
1.260000e-06	1.816903e-06	3.438466e-09	1.282270e+01	2.229899e+02
1.270000e-06	1.863634e-06	3.597866e-09	1.315250e+01	2.333746e+02
1.280000e-06	1.909856e-06	3.751697e-09	1.347871e+01	2.434972e+02
1.290000e-06	1.955573e-06	3.903387e-09	1.380136e+01	2.533528e+02
1.300000e-06	2.000711e-06	4.052378e-09	1.411991e+01	2.629643e+02
1.310000e-06	2.045332e-06	4.195869e-09	1.443482e+01	2.723664e+02
1.320000e-06	2.089613e-06	4.333909e-09	1.474734e+01	2.815832e+02
1.330000e-06	2.133568e-06	4.470288e-09	1.505755e+01	2.906085e+02
1.340000e-06	2.176945e-06	4.607604e-09	1.536368e+01	2.994035e+02
1.350000e-06	2.219435e-06	4.740618e-09	1.566355e+01	3.079117e+02
1.360000e-06	2.260953e-06	4.862472e-09	1.595656e+01	3.160854e+02
1.370000e-06	2.301678e-06	4.976016e-09	1.624398e+01	3.239096e+02
1.380000e-06	2.341872e-06	5.086382e-09	1.652764e+01	3.314094e+02
1.390000e-06	2.381626e-06	5.195944e-09	1.680820e+01	3.386386e+02
1.400000e-06	2.420811e-06	5.302898e-09	1.708475e+01	3.456525e+02
1.410000e-06	2.459286e-06	5.406308e-09	1.735628e+01	3.524829e+02
1.420000e-06	2.496989e-06	5.506832e-09	1.762237e+01	3.591249e+02
1.430000e-06	2.534003e-06	5.603522e-09	1.788359e+01	3.655450e+02
1.440000e-06	2.570489e-06	5.695918e-09	1.814109e+01	3.717025e+02
1.450000e-06	2.606509e-06	5.782484e-09	1.839531e+01	3.775748e+02
1.460000e-06	2.641818e-06	5.864831e-09	1.864450e+01	3.831705e+02
1.470000e-06	2.675988e-06	5.945678e-09	1.888565e+01	3.885263e+02
1.480000e-06	2.709011e-06	6.023985e-09	1.911871e+01	3.936896e+02
1.490000e-06	2.741327e-06	6.099072e-09	1.934677e+01	3.986976e+02
1.500000e-06	2.773103e-06	6.172729e-09	1.957104e+01	4.035637e+02
1.510000e-06	2.804155e-06	6.244674e-09	1.979018e+01	4.082770e+02
1.520000e-06	2.834417e-06	6.313493e-09	2.000376e+01	4.128134e+02
1.530000e-06	2.863896e-06	6.378591e-09	2.021180e+01	4.171505e+02
1.540000e-06	2.892629e-06	6.440353e-09	2.041458e+01	4.212786e+02
1.550000e-06	2.920787e-06	6.499377e-09	2.061330e+01	4.252041e+02
1.560000e-06	2.948194e-06	6.555098e-09	2.080673e+01	4.289452e+02
1.570000e-06	2.974356e-06	6.608381e-09	2.099137e+01	4.325256e+02
1.580000e-06	2.999292e-06	6.660052e-09	2.116735e+01	4.359683e+02
1.590000e-06	3.023472e-06	6.709665e-09	2.133800e+01	4.392911e+02
1.600000e-06	3.046997e-06	6.756496e-09	2.150402e+01	4.425038e+02
1.610000e-06	3.069671e-06	6.801740e-09	2.166405e+01	4.456046e+02
1.620000e-06	3.091465e-06	6.844386e-09	2.181785e+01	4.485779e+02
1.630000e-06	3.112466e-06	6.881311e-09	2.196607e+01	4.513963e+02
1.640000e-06	3.132787e-06	6.915250e-09	2.210948e+01	4.540283e+02
1.650000e-06	3.152450e-06	6.949382e-09	2.224825e+01	4.564525e+02
1.660000e-06	3.171277e-06	6.983639e-09	2.238112e+01	4.586706e+02
1.670000e-06	3.189081e-06	7.016008e-09	2.250678e+01	4.607137e+02
1.680000e-06	3.205947e-06	7.044148e-09	2.262581e+01	4.626338e+02
1.690000e-06	3.221874e-06	7.069195e-09	2.273821e+01	4.644852e+02
1.700000e-06	3.236755e-06	7.094117e-09	2.284324e+01	4.663007e+02
1.710000e-06	3.250679e-06	7.118914e-09	2.294150e+01	4.680764e+02
1.720000e-06	3.263694e-06	7.141522e-09	2.303335e+01	4.697740e+02
1.730000e-06	3.275819e-06	7.161817e-09	2.311892e+01	4.713384e+02
1.740000e-06	3.286864e-06	7.182112e-09	2.319687e+01	4.727253e+02
1.750000e-06	3.296610e-06	7.201698e-09	2.326566e+01	4.739217e+02
1.760000e-06	3.305317e-06	7.218889e-09	2.332711e+01	4.749513e+02
1.770000e-06	3.313220e-06	7.233436e-09	2.338288e+01	4.758614e+02
1.780000e-06	3.320242e-06	7.245951e-09	2.343244e+01	4.766998e+02
1.790000e-06	3.326296e-06	7.257364e-09	2.347517e+01	4.774942e+02
1.800000e-06	3.331425e-06	7.267899e-09	2.351136e+01	4.782442e+02
1.810000e-06	3.335789e-06	7.277283e-09	2.354216e+01	4.789290e+02
1.820000e-06	3.339377e-06	7.285943e-09	2.356748e+01	4.795235e+02
1.830000e-06	3.341812e-06	7.293957e-09	2.358467e+01	4.800123e+02
1.840000e-06	3.342987e-06	7.300795e-09	2.359296e+01	4.803951e+02
1.850000e-06	3.343248e-06	7.306894e-09	2.359480e+01	4.806806e+02
1.860000e-06	3.342706e-06	7.310919e-09	2.359097e+01	4.808770e+02
1.870000e-06	3.341269e-06	7.310982e-09	2.358083e+01	4.809864e+02
1.880000e-06	3.338933e-06	7.311749e-09	2.356435e+01	4.810061e+02
1.890000e-06	3.335826e-06	7.314096e-09	2.354242e+01	4.809363e+02
1.900000e-06	3.332085e-06	7.312904e-09	2.351602e+01	4.807860e+02
1.910000e-06	3.327498e-06	7.314909e-09	2.348364e+01	4.805703e+02
1.920000e-06	3.321709e-06	7.329742e-09	2.344279e+01	4.803015e+02
1.930000e-06	3.314771e-06	7.307133e-09	2.339383e+01	4.799770e+02
1.940000e-06	3.306880e-06	7.218206e-09	2.333814e+01	4.795762e+02
1.950000e-06	3.297755e-06	7.224773e-09	2.327373e+01	4.790694e+02
1.960000e-06	3.287256e-06	7.370562e-09	2.319964e+01	4.784361e+02
1.970000e-06	3.276247e-06	7.352601e-09	2.312195e+01	4.776813e+02
1.980000e-06	3.265217e-06	7.182246e-09	2.304410e+01	4.768398e+02
1.990000e-06	3.253090e-06	7.186049e-09	2.295851e+01	4.759617e+02
2.000000e-06	3.239025e-06	7.340782e-09	2.285925e+01	4.750875e+02
2.010000e-06	3.223889e-06	7.192020e-09	2.275243e+01	4.742244e+02
2.020000e-06	3.208304e-06	7.041232e-09	2.264244e+01	4.733399e+02
2.030000e-06	3.191699e-06	7.202996e-09	2.252525e+01	4.723760e+02
2.040000e-06	3.174182e-06	7.202801e-09	2.240163e+01	4.712788e+02
2.050000e-06	3.156219e-06	7.029837e-09	2.227485e+01	4.700244e+02
2.060000e-06	3.137518e-06	7.138794e-09	2.214287e+01	4.686284e+02
2.070000e-06	3.117956e-06	7.196744e-09	2.200482e+01	4.671325e+02
2.080000e-06	3.097717e-06	6.936626e-09	2.186198e+01	4.655776e+02
2.090000e-06	3.076371e-06	6.982703e-09	2.171133e+01	4.639791e+02
2.100000e-06	3.053617e-06	7.134627e-09	2.155074e+01	4.623210e+02
2.110000e-06	3.029995e-06	6.964413e-09	2.138403e+01	4.605714e+02
2.120000e-06	3.005619e-06	6.896859e-09	2.121200e+01	4.587083e+02
2.130000e-06	2.980288e-06	6.970987e-09	2.103323e+01	4.567398e+02
2.140000e-06	2.954326e-06	6.879062e-09	2.085000e+01	4.547027e+02
2.150000e-06	2.927676e-06	6.880510e-09	2.066192e+01	4.526397e+02
2.160000e-06	2.900183e-06	6.846212e-09	2.046789e+01	4.505695e+02
2.170000e-06	2.871946e-06	6.720753e-09	2.026861e+01	4.484675e+02
2.180000e-06	2.842648e-06	6.809956e-09	2.006184e+01	4.462736e+02
2.190000e-06	2.812057e-06	6.807479e-09	1.984595e+01	4.439230e+02
2.200000e-06	2.780586e-06	6.629396e-09	1.962384e+01	4.413843e+02
2.210000e-06	2.748420e-06	6.656407e-09	1.939684e+01	4.386819e+02
2.220000e-06	2.715489e-06	6.642604e-09	1.916443e+01	4.358877e+02
2.230000e-06	2.681881e-06	6.519857e-09	1.892724e+01	4.330850e+02
2.240000e-06	2.647498e-06	6.571085e-09	1.868458e+01	4.303238e+02
2.250000e-06	2.612422e-06	6.513243e-09	1.843703e+01	4.275934e+02
2.260000e-06	2.576884e-06	6.401378e-09	1.818623e+01	4.248267e+02
2.270000e-06	2.540732e-06	6.445246e-09	1.793109e+01	4.219372e+02
2.280000e-06	2.503669e-06	6.387978e-09	1.766952e+01	4.188648e+02
2.290000e-06	2.465540e-06	6.278606e-09	1.740042e+01	4.156080e+02
2.300000e-06	2.426514e-06	6.260689e-09	1.712500e+01	4.122228e+02
2.310000e-06	2.386987e-06	6.209934e-09	1.684604e+01	4.087898e+02
2.320000e-06	2.346977e-06	6.163528e-09	1.656367e+01	4.053694e+02
2.330000e-06	2.306307e-06	6.122218e-09	1.627665e+01	4.019690e+02
2.340000e-06	2.264978e-06	6.036856e-09	1.598497e+01	3.985409e+02
2.350000e-06	2.223060e-06	5.988308e-09	1.568913e+01	3.950089e+02
2.360000e-06	2.180616e-06	5.957989e-09	1.538959e+01	3.913097e+02
2.370000e-06	2.137605e-06	5.905587e-09	1.508604e+01	3.874236e+02
2.380000e-06	2.094139e-06	5.831268e-09	1.477928e+01	3.833801e+02
2.390000e-06	2.050330e-06	5.757077e-09	1.447010e+01	3.792378e+02
2.400000e-06	2.006044e-06	5.707215e-09	1.415755e+01	3.750514e+02
2.410000e-06	1.961130e-06	5.649203e-09	1.384057e+01	3.708462e+02
2.420000e-06	1.915485e-06	5.573796e-09	1.351844e+01	3.666110e+02
2.430000e-06	1.869267e-06	5.490615e-09	1.319225e+01	3.623115e+02
2.440000e-06	1.822648e-06	5.434940e-09	1.286324e+01	3.579108e+02
2.450000e-06	1.775515e-06	5.401453e-09	1.253061e+01	3.533862e+02
2.460000e-06	1.727871e-06	5.319249e-09	1.219436e+01	3.487318e+02
2.470000e-06	1.679633e-06	5.224935e-09	1.185392e+01	3.439508e+02
2.480000e-06	1.630697e-06	5.163292e-09	1.150856e+01	3.390466e+02
2.490000e-06	1.581262e-06	5.092974e-09	1.115967e+01	3.340198e+02
2.500000e-06	1.531419e-06	5.011721e-09	1.080791e+01	3.288746e+02
2.510000e-06	1.481138e-06	4.922625e-09	1.045306e+01	3.236261e+02
2.520000e-06	1.430373e-06	4.834843e-09	1.009479e+01	3.183013e+02
2.530000e-06	1.379167e-06	4.767334e-09	9.733403e+00	3.129281e+02
2.540000e-06	1.327591e-06	4.692293e-09	9.369403e+00	3.075164e+02
2.550000e-06	1.275589e-06	4.606093e-09	9.002401e+00	3.020449e+02
2.560000e-06	1.223115e-06	4.516895e-09	8.632069e+00	2.964624e+02
2.570000e-06	1.170126e-06	4.431940e-09	8.258101e+00	2.907086e+02
2.580000e-06	1.116490e-06	4.352404e-09	7.879569e+00	2.847447e+02
2.590000e-06	1.062200e-06	4.257373e-09	7.496423e+00	2.785769e+02
2.600000e-06	1.007465e-06	4.150695e-09	7.110136e+00	2.722574e+02
2.610000e-06	9.524647e-07	4.048026e-09	6.721971e+00	2.658601e+02
2.620000e-06	8.972442e-07	3.958902e-09	6.332255e+00	2.594423e+02
2.630000e-06	8.418480e-07	3.872450e-09	5.941299e+00	2.530109e+02
2.640000e-06	7.863604e-07	3.771736e-09	5.549698e+00	2.465147e+02
2.650000e-06	7.307630e-07	3.668355e-09	5.157322e+00	2.398662e+02
2.660000e-06	6.750446e-07	3.570991e-09	4.764093e+00	2.329845e+02
2.670000e-06	6.191919e-07	3.468205e-09	4.369915e+00	2.258357e+02
2.680000e-06	5.631912e-07	3.351353e-09	3.974693e+00	2.184503e+02
2.690000e-06	5.070883e-07	3.224967e-09	3.578750e+00	2.109086e+02
2.700000e-06	4.508683e-07	3.108978e-09	3.181980e+00	2.033006e+02
2.710000e-06	3.945071e-07	3.004324e-09	2.784213e+00	1.956822e+02
2.720000e-06	3.380453e-07	2.890436e-09	2.385737e+00	1.880484e+02
2.730000e-06	2.814895e-07	2.767387e-09	1.986598e+00	1.803375e+02
2.740000e-06	2.248925e-07	2.645586e-09	1.587167e+00	1.724606e+02
2.750000e-06	1.682693e-07	2.529219e-09	1.187552e+00	1.643429e+02
2.760000e-06	1.115574e-07	2.406412e-09	7.873106e-01	1.559542e+02
2.770000e-06	5.479237e-08	2.269182e-09	3.866943e-01	1.473169e+02
2.780000e-06	-1.958856e-09	2.130542e-09	-1.382452e-02	1.384891e+02
2.790000e-06	-5.869217e-08	1.998629e-09	-4.142169e-01	1.295347e+02
2.800000e-06	-1.154140e-07	1.868737e-09	-8.145287e-01	1.204948e+02
2.810000e-06	-1.721161e-07	1.729645e-09	-1.214700e+00	1.113730e+02
2.820000e-06	-2.288168e-07	1.583130e-09	-1.614863e+00	1.021396e+02
2.830000e-06	-2.854764e-07	1.440693e-09	-2.014735e+00	9.274865e+01
2.840000e-06	-3.419759e-07	1.300271e-09	-2.413478e+00	8.315794e+01
2.850000e-06	-3.983588e-07	1.151595e-09	-2.811397e+00	7.334454e+01
2.860000e-06	-4.546465e-07	9.943447e-10	-3.208645e+00	6.330945e+01
2.870000e-06	-5.107488e-07	8.369959e-10	-3.604584e+00	5.307292e+01
2.880000e-06	-5.667298e-07	6.836393e-10	-3.999667e+00	4.266448e+01
2.890000e-06	-6.225966e-07	5.267897e-10	-4.393943e+00	3.211256e+01
2.900000e-06	-6.783350e-07	3.594936e-10	-4.787315e+00	2.143728e+01
2.910000e-06	-7.339936e-07	1.897694e-10	-5.180122e+00	1.064802e+01
2.920000e-06	-7.895797e-07	2.487752e-11	-5.572418e+00	-2.546930e-01
2.930000e-06	-8.450602e-07	-1.392899e-10	-5.963969e+00	-1.127436e+01
2.940000e-06	-9.003836e-07	-3.091734e-10	-6.354411e+00	-2.241286e+01
2.950000e-06	-9.555019e-07	-4.836085e-10	-6.743406e+00	-3.366607e+01
