# Temperatura_=_20.0
# Concentracion g/m^3_=_10000.0
# C_Vs_to_Am_M_A/Vsm_=_65563218390.804596
# pendiente_HvsI_1/m_=_3716.3
# ordenada_HvsI_A/m_=_1297.0
# frecuencia_Hz_=_269491.1426261357

Tiempo_(s)	Campo_(V.s)	Magnetizacion_(V.s)	Campo_(kA/m)	Magnetizacion_(A/m)
0.000000e+00	-3.325788e-06	-7.313049e-09	-2.347060e+01	-4.764993e+02
1.000000e-08	-3.325611e-06	-7.315267e-09	-2.346935e+01	-4.767675e+02
2.000000e-08	-3.324733e-06	-7.317264e-09	-2.346315e+01	-4.768794e+02
3.000000e-08	-3.322702e-06	-7.317240e-09	-2.344882e+01	-4.768384e+02
4.000000e-08	-3.319409e-06	-7.312884e-09	-2.342558e+01	-4.766792e+02
5.000000e-08	-3.315265e-06	-7.306384e-09	-2.339633e+01	-4.764534e+02
6.000000e-08	-3.310399e-06	-7.299840e-09	-2.336199e+01	-4.762033e+02
7.000000e-08	-3.304685e-06	-7.288832e-09	-2.332166e+01	-4.759391e+02
8.000000e-08	-3.298045e-06	-7.286556e-09	-2.327481e+01	-4.756311e+02
9.000000e-08	-3.290384e-06	-7.317499e-09	-2.322075e+01	-4.752245e+02
1.000000e-07	-3.281580e-06	-7.333574e-09	-2.315861e+01	-4.746702e+02
1.100000e-07	-3.271523e-06	-7.252533e-09	-2.308764e+01	-4.739579e+02
1.200000e-07	-3.260456e-06	-7.175271e-09	-2.300954e+01	-4.731331e+02
1.300000e-07	-3.248570e-06	-7.251142e-09	-2.292565e+01	-4.722854e+02
1.400000e-07	-3.235707e-06	-7.307082e-09	-2.283488e+01	-4.715113e+02
1.500000e-07	-3.221975e-06	-7.204452e-09	-2.273797e+01	-4.708676e+02
1.600000e-07	-3.207447e-06	-7.167435e-09	-2.263545e+01	-4.703378e+02
1.700000e-07	-3.191646e-06	-7.258986e-09	-2.252394e+01	-4.698302e+02
1.800000e-07	-3.174578e-06	-7.201851e-09	-2.240348e+01	-4.692109e+02
1.900000e-07	-3.156886e-06	-7.087682e-09	-2.227862e+01	-4.683570e+02
2.000000e-07	-3.138534e-06	-7.158028e-09	-2.214911e+01	-4.672052e+02
2.100000e-07	-3.119209e-06	-7.139595e-09	-2.201274e+01	-4.657741e+02
2.200000e-07	-3.099094e-06	-7.010949e-09	-2.187078e+01	-4.641488e+02
2.300000e-07	-3.078326e-06	-7.073211e-09	-2.172422e+01	-4.624382e+02
2.400000e-07	-3.056703e-06	-7.109795e-09	-2.157162e+01	-4.607260e+02
2.500000e-07	-3.034179e-06	-6.963530e-09	-2.141267e+01	-4.590398e+02
2.600000e-07	-3.010848e-06	-6.937247e-09	-2.124801e+01	-4.573508e+02
2.700000e-07	-2.986745e-06	-6.996776e-09	-2.107791e+01	-4.556001e+02
2.800000e-07	-2.961925e-06	-6.928795e-09	-2.090276e+01	-4.537356e+02
2.900000e-07	-2.936158e-06	-6.873665e-09	-2.072092e+01	-4.517377e+02
3.000000e-07	-2.909190e-06	-6.876315e-09	-2.053060e+01	-4.496228e+02
3.100000e-07	-2.881252e-06	-6.826299e-09	-2.033344e+01	-4.474254e+02
3.200000e-07	-2.852661e-06	-6.797653e-09	-2.013166e+01	-4.451735e+02
3.300000e-07	-2.823367e-06	-6.779310e-09	-1.992494e+01	-4.428719e+02
3.400000e-07	-2.793198e-06	-6.697622e-09	-1.971202e+01	-4.405038e+02
3.500000e-07	-2.762136e-06	-6.659411e-09	-1.949282e+01	-4.380474e+02
3.600000e-07	-2.730389e-06	-6.661135e-09	-1.926877e+01	-4.354957e+02
3.700000e-07	-2.698077e-06	-6.620382e-09	-1.904074e+01	-4.328645e+02
3.800000e-07	-2.665030e-06	-6.566932e-09	-1.880752e+01	-4.301845e+02
3.900000e-07	-2.630930e-06	-6.520180e-09	-1.856687e+01	-4.274809e+02
4.000000e-07	-2.595735e-06	-6.482272e-09	-1.831850e+01	-4.247542e+02
4.100000e-07	-2.559770e-06	-6.453869e-09	-1.806469e+01	-4.219745e+02
4.200000e-07	-2.523237e-06	-6.402441e-09	-1.780687e+01	-4.190942e+02
4.300000e-07	-2.486110e-06	-6.335420e-09	-1.754486e+01	-4.160729e+02
4.400000e-07	-2.448267e-06	-6.299194e-09	-1.727779e+01	-4.128998e+02
4.500000e-07	-2.409650e-06	-6.267174e-09	-1.700527e+01	-4.096007e+02
4.600000e-07	-2.370371e-06	-6.211072e-09	-1.672807e+01	-4.062253e+02
4.700000e-07	-2.330572e-06	-6.146531e-09	-1.644721e+01	-4.028218e+02
4.800000e-07	-2.290360e-06	-6.090471e-09	-1.616342e+01	-3.994107e+02
4.900000e-07	-2.249643e-06	-6.041294e-09	-1.587607e+01	-3.959743e+02
5.000000e-07	-2.208093e-06	-5.994876e-09	-1.558285e+01	-3.924655e+02
5.100000e-07	-2.165504e-06	-5.939008e-09	-1.528229e+01	-3.888309e+02
5.200000e-07	-2.122039e-06	-5.867448e-09	-1.497555e+01	-3.850365e+02
5.300000e-07	-2.078060e-06	-5.806383e-09	-1.466519e+01	-3.810828e+02
5.400000e-07	-2.033710e-06	-5.754930e-09	-1.435221e+01	-3.770014e+02
5.500000e-07	-1.988887e-06	-5.691001e-09	-1.403588e+01	-3.728379e+02
5.600000e-07	-1.943517e-06	-5.613912e-09	-1.371570e+01	-3.686294e+02
5.700000e-07	-1.897611e-06	-5.546977e-09	-1.339173e+01	-3.643886e+02
5.800000e-07	-1.851211e-06	-5.492844e-09	-1.306428e+01	-3.601007e+02
5.900000e-07	-1.804242e-06	-5.432904e-09	-1.273281e+01	-3.557324e+02
6.000000e-07	-1.756709e-06	-5.355156e-09	-1.239737e+01	-3.512475e+02
6.100000e-07	-1.708733e-06	-5.272689e-09	-1.205879e+01	-3.466208e+02
6.200000e-07	-1.660342e-06	-5.203181e-09	-1.171729e+01	-3.418452e+02
6.300000e-07	-1.611453e-06	-5.133880e-09	-1.137227e+01	-3.369305e+02
6.400000e-07	-1.561870e-06	-5.053297e-09	-1.102236e+01	-3.318975e+02
6.500000e-07	-1.511531e-06	-4.969666e-09	-1.066710e+01	-3.267697e+02
6.600000e-07	-1.460473e-06	-4.894243e-09	-1.030678e+01	-3.215663e+02
6.700000e-07	-1.408840e-06	-4.820632e-09	-9.942403e+00	-3.162975e+02
6.800000e-07	-1.356839e-06	-4.739538e-09	-9.575419e+00	-3.109613e+02
6.900000e-07	-1.304434e-06	-4.649296e-09	-9.205593e+00	-3.055430e+02
7.000000e-07	-1.251528e-06	-4.557580e-09	-8.832227e+00	-3.000181e+02
7.100000e-07	-1.198184e-06	-4.473753e-09	-8.455769e+00	-2.943588e+02
7.200000e-07	-1.144487e-06	-4.390551e-09	-8.076821e+00	-2.885429e+02
7.300000e-07	-1.090535e-06	-4.297730e-09	-7.696073e+00	-2.825629e+02
7.400000e-07	-1.036373e-06	-4.199331e-09	-7.313845e+00	-2.764294e+02
7.500000e-07	-9.818869e-07	-4.107104e-09	-6.929326e+00	-2.701680e+02
7.600000e-07	-9.270625e-07	-4.016590e-09	-6.542422e+00	-2.638085e+02
7.700000e-07	-8.719589e-07	-3.916630e-09	-6.153547e+00	-2.573715e+02
7.800000e-07	-8.166255e-07	-3.807943e-09	-5.763051e+00	-2.508581e+02
7.900000e-07	-7.611286e-07	-3.703241e-09	-5.371401e+00	-2.442484e+02
8.000000e-07	-7.054378e-07	-3.606943e-09	-4.978382e+00	-2.375091e+02
8.100000e-07	-6.495770e-07	-3.504250e-09	-4.584164e+00	-2.306078e+02
8.200000e-07	-5.936231e-07	-3.389241e-09	-4.189289e+00	-2.235265e+02
8.300000e-07	-5.376069e-07	-3.273148e-09	-3.793974e+00	-2.162689e+02
8.400000e-07	-4.815369e-07	-3.163944e-09	-3.398279e+00	-2.088572e+02
8.500000e-07	-4.254213e-07	-3.052210e-09	-3.002263e+00	-2.013210e+02
8.600000e-07	-3.692943e-07	-2.931129e-09	-2.606166e+00	-1.936830e+02
8.700000e-07	-3.131531e-07	-2.806910e-09	-2.209969e+00	-1.859487e+02
8.800000e-07	-2.569803e-07	-2.687976e-09	-1.813549e+00	-1.781032e+02
8.900000e-07	-2.007762e-07	-2.571468e-09	-1.416908e+00	-1.701165e+02
9.000000e-07	-1.445639e-07	-2.448070e-09	-1.020210e+00	-1.619548e+02
9.100000e-07	-8.833382e-08	-2.316016e-09	-6.233852e-01	-1.535924e+02
9.200000e-07	-3.208225e-08	-2.181775e-09	-2.264094e-01	-1.450200e+02
9.300000e-07	2.416634e-08	-2.050522e-09	1.705456e-01	-1.362470e+02
9.400000e-07	8.040067e-08	-1.915966e-09	5.673998e-01	-1.272971e+02
9.500000e-07	1.366165e-07	-1.773395e-09	9.641233e-01	-1.182001e+02
9.600000e-07	1.928240e-07	-1.628019e-09	1.360788e+00	-1.089810e+02
9.700000e-07	2.490530e-07	-1.486640e-09	1.757605e+00	-9.965138e+01
9.800000e-07	3.052933e-07	-1.346127e-09	2.154501e+00	-9.020495e+01
9.900000e-07	3.615005e-07	-1.200693e-09	2.551164e+00	-8.061898e+01
1.000000e-06	4.176698e-07	-1.048735e-09	2.947559e+00	-7.086167e+01
1.010000e-06	4.737901e-07	-8.946624e-10	3.343609e+00	-6.090278e+01
1.020000e-06	5.298501e-07	-7.419663e-10	3.739233e+00	-5.072407e+01
1.030000e-06	5.858409e-07	-5.844746e-10	4.134369e+00	-4.032568e+01
1.040000e-06	6.417419e-07	-4.191001e-10	4.528871e+00	-2.972603e+01
1.050000e-06	6.975589e-07	-2.518832e-10	4.922780e+00	-1.895578e+01
1.060000e-06	7.532601e-07	-8.792752e-11	5.315872e+00	-8.048382e+00
1.070000e-06	8.087420e-07	7.603809e-11	5.707416e+00	2.968651e+00
1.080000e-06	8.639759e-07	2.454618e-10	6.097210e+00	1.407846e+01
1.090000e-06	9.189316e-07	4.192256e-10	6.485041e+00	2.527454e+01
1.100000e-06	9.735752e-07	5.925771e-10	6.870669e+00	3.655671e+01
1.110000e-06	1.027986e-06	7.651193e-10	7.254652e+00	4.792590e+01
1.120000e-06	1.082163e-06	9.402698e-10	7.636987e+00	5.938007e+01
1.130000e-06	1.136035e-06	1.118273e-09	8.017172e+00	7.091186e+01
1.140000e-06	1.189611e-06	1.296315e-09	8.395268e+00	8.250738e+01
1.150000e-06	1.242787e-06	1.470984e-09	8.770540e+00	9.414532e+01
1.160000e-06	1.295470e-06	1.644544e-09	9.142328e+00	1.057964e+02
1.170000e-06	1.347745e-06	1.821488e-09	9.511245e+00	1.174247e+02
1.180000e-06	1.399649e-06	1.999526e-09	9.877539e+00	1.289918e+02
1.190000e-06	1.451092e-06	2.175045e-09	1.024058e+01	1.404648e+02
1.200000e-06	1.501986e-06	2.348135e-09	1.059975e+01	1.518237e+02
1.210000e-06	1.552144e-06	2.519787e-09	1.095371e+01	1.630654e+02
1.220000e-06	1.601477e-06	2.689520e-09	1.130187e+01	1.742005e+02
1.230000e-06	1.650155e-06	2.855744e-09	1.164540e+01	1.852415e+02
1.240000e-06	1.698396e-06	3.019084e-09	1.198584e+01	1.961890e+02
1.250000e-06	1.746314e-06	3.181909e-09	1.232400e+01	2.070216e+02
1.260000e-06	1.793851e-06	3.345080e-09	1.265948e+01	2.176963e+02
1.270000e-06	1.840865e-06	3.506736e-09	1.299126e+01	2.281621e+02
1.280000e-06	1.887329e-06	3.663106e-09	1.331917e+01	2.383781e+02
1.290000e-06	1.933316e-06	3.815428e-09	1.364371e+01	2.483306e+02
1.300000e-06	1.978761e-06	3.965889e-09	1.396442e+01	2.580355e+02
1.310000e-06	2.023611e-06	4.112853e-09	1.428093e+01	2.675268e+02
1.320000e-06	2.067987e-06	4.253505e-09	1.459410e+01	2.768337e+02
1.330000e-06	2.112029e-06	4.389034e-09	1.490491e+01	2.859597e+02
1.340000e-06	2.155728e-06	4.522907e-09	1.521330e+01	2.948747e+02
1.350000e-06	2.198871e-06	4.656258e-09	1.551777e+01	3.035240e+02
1.360000e-06	2.241166e-06	4.784008e-09	1.581625e+01	3.118523e+02
1.370000e-06	2.282432e-06	4.902806e-09	1.610747e+01	3.198278e+02
1.380000e-06	2.322875e-06	5.014732e-09	1.639289e+01	3.274557e+02
1.390000e-06	2.362822e-06	5.123257e-09	1.667480e+01	3.347728e+02
1.400000e-06	2.402253e-06	5.230533e-09	1.695307e+01	3.418275e+02
1.410000e-06	2.441099e-06	5.333915e-09	1.722721e+01	3.486563e+02
1.420000e-06	2.479291e-06	5.432107e-09	1.749674e+01	3.552689e+02
1.430000e-06	2.516695e-06	5.526538e-09	1.776070e+01	3.616511e+02
1.440000e-06	2.553384e-06	5.618286e-09	1.801962e+01	3.677815e+02
1.450000e-06	2.589566e-06	5.706668e-09	1.827496e+01	3.736513e+02
1.460000e-06	2.625195e-06	5.790959e-09	1.852640e+01	3.792763e+02
1.470000e-06	2.660043e-06	5.872129e-09	1.877233e+01	3.846919e+02
1.480000e-06	2.693844e-06	5.950775e-09	1.901087e+01	3.899365e+02
1.490000e-06	2.726645e-06	6.028402e-09	1.924235e+01	3.950314e+02
1.500000e-06	2.758744e-06	6.103909e-09	1.946888e+01	3.999703e+02
1.510000e-06	2.790161e-06	6.175411e-09	1.969059e+01	4.047254e+02
1.520000e-06	2.820815e-06	6.244445e-09	1.990692e+01	4.092657e+02
1.530000e-06	2.850725e-06	6.310360e-09	2.011800e+01	4.135784e+02
1.540000e-06	2.879836e-06	6.371859e-09	2.032345e+01	4.176799e+02
1.550000e-06	2.908221e-06	6.429413e-09	2.052376e+01	4.216112e+02
1.560000e-06	2.936012e-06	6.486284e-09	2.071988e+01	4.254186e+02
1.570000e-06	2.962894e-06	6.544210e-09	2.090960e+01	4.291321e+02
1.580000e-06	2.988548e-06	6.599827e-09	2.109064e+01	4.327515e+02
1.590000e-06	3.013151e-06	6.651067e-09	2.126427e+01	4.362485e+02
1.600000e-06	3.036942e-06	6.698365e-09	2.143217e+01	4.395823e+02
1.610000e-06	3.059891e-06	6.743477e-09	2.159412e+01	4.427204e+02
1.620000e-06	3.081988e-06	6.786494e-09	2.175006e+01	4.456541e+02
1.630000e-06	3.103303e-06	6.825337e-09	2.190048e+01	4.483998e+02
1.640000e-06	3.123897e-06	6.860846e-09	2.204582e+01	4.509890e+02
1.650000e-06	3.143894e-06	6.894625e-09	2.218694e+01	4.534513e+02
1.660000e-06	3.163157e-06	6.928863e-09	2.232288e+01	4.558014e+02
1.670000e-06	3.181464e-06	6.962737e-09	2.245208e+01	4.580359e+02
1.680000e-06	3.198814e-06	6.992846e-09	2.257452e+01	4.601397e+02
1.690000e-06	3.215183e-06	7.019183e-09	2.269004e+01	4.620985e+02
1.700000e-06	3.230499e-06	7.044368e-09	2.279813e+01	4.639093e+02
1.710000e-06	3.244807e-06	7.067961e-09	2.289910e+01	4.655831e+02
1.720000e-06	3.258213e-06	7.088775e-09	2.299371e+01	4.671405e+02
1.730000e-06	3.270725e-06	7.107839e-09	2.308200e+01	4.686012e+02
1.740000e-06	3.282285e-06	7.126641e-09	2.316359e+01	4.699748e+02
1.750000e-06	3.292648e-06	7.146075e-09	2.323672e+01	4.712567e+02
1.760000e-06	3.301785e-06	7.163911e-09	2.330120e+01	4.724308e+02
1.770000e-06	3.309978e-06	7.179985e-09	2.335902e+01	4.734785e+02
1.780000e-06	3.317348e-06	7.194486e-09	2.341103e+01	4.743893e+02
1.790000e-06	3.323854e-06	7.205943e-09	2.345694e+01	4.751687e+02
1.800000e-06	3.329449e-06	7.214684e-09	2.349643e+01	4.758401e+02
1.810000e-06	3.334161e-06	7.222386e-09	2.352969e+01	4.764382e+02
1.820000e-06	3.338079e-06	7.230629e-09	2.355733e+01	4.769964e+02
1.830000e-06	3.341025e-06	7.238989e-09	2.357812e+01	4.775332e+02
1.840000e-06	3.342757e-06	7.245946e-09	2.359034e+01	4.780418e+02
1.850000e-06	3.343388e-06	7.250952e-09	2.359480e+01	4.784907e+02
1.860000e-06	3.343123e-06	7.255505e-09	2.359293e+01	4.788350e+02
1.870000e-06	3.342031e-06	7.259867e-09	2.358523e+01	4.790351e+02
1.880000e-06	3.340102e-06	7.262935e-09	2.357161e+01	4.790761e+02
1.890000e-06	3.337369e-06	7.264019e-09	2.355232e+01	4.789768e+02
1.900000e-06	3.333893e-06	7.261413e-09	2.352779e+01	4.787824e+02
1.910000e-06	3.329722e-06	7.258761e-09	2.349836e+01	4.785434e+02
1.920000e-06	3.324550e-06	7.265068e-09	2.346186e+01	4.782897e+02
1.930000e-06	3.318198e-06	7.267456e-09	2.341703e+01	4.780130e+02
1.940000e-06	3.310805e-06	7.220608e-09	2.336485e+01	4.776688e+02
1.950000e-06	3.302186e-06	7.173073e-09	2.330403e+01	4.772007e+02
1.960000e-06	3.292180e-06	7.240164e-09	2.323341e+01	4.765737e+02
1.970000e-06	3.281319e-06	7.305899e-09	2.315677e+01	4.758026e+02
1.980000e-06	3.270339e-06	7.207470e-09	2.307928e+01	4.749564e+02
1.990000e-06	3.258774e-06	7.123285e-09	2.299767e+01	4.741336e+02
2.000000e-06	3.245564e-06	7.192187e-09	2.290444e+01	4.734178e+02
2.010000e-06	3.230873e-06	7.210746e-09	2.280076e+01	4.728350e+02
2.020000e-06	3.215569e-06	7.105800e-09	2.269276e+01	4.723321e+02
2.030000e-06	3.199490e-06	7.144613e-09	2.257929e+01	4.717923e+02
2.040000e-06	3.182325e-06	7.248840e-09	2.245815e+01	4.710798e+02
2.050000e-06	3.164532e-06	7.128949e-09	2.233259e+01	4.700941e+02
2.060000e-06	3.146133e-06	7.084820e-09	2.220274e+01	4.688089e+02
2.070000e-06	3.126855e-06	7.211557e-09	2.206670e+01	4.672774e+02
2.080000e-06	3.106860e-06	7.106175e-09	2.192558e+01	4.656016e+02
2.090000e-06	3.085967e-06	6.972444e-09	2.177814e+01	4.638846e+02
2.100000e-06	3.063701e-06	7.084430e-09	2.162101e+01	4.621864e+02
2.110000e-06	3.040313e-06	7.070059e-09	2.145595e+01	4.605068e+02
2.120000e-06	3.016175e-06	6.932127e-09	2.128561e+01	4.587990e+02
2.130000e-06	2.991179e-06	6.959190e-09	2.110921e+01	4.570027e+02
2.140000e-06	2.965440e-06	6.958758e-09	2.092756e+01	4.550789e+02
2.150000e-06	2.939090e-06	6.881497e-09	2.074161e+01	4.530254e+02
2.160000e-06	2.911953e-06	6.887781e-09	2.055010e+01	4.508699e+02
2.170000e-06	2.884026e-06	6.828305e-09	2.035301e+01	4.486471e+02
2.180000e-06	2.855171e-06	6.763115e-09	2.014938e+01	4.463751e+02
2.190000e-06	2.825150e-06	6.808763e-09	1.993751e+01	4.440475e+02
2.200000e-06	2.794115e-06	6.749513e-09	1.971850e+01	4.416429e+02
2.210000e-06	2.762276e-06	6.659398e-09	1.949381e+01	4.391440e+02
2.220000e-06	2.729689e-06	6.657866e-09	1.926383e+01	4.365544e+02
2.230000e-06	2.696362e-06	6.609993e-09	1.902864e+01	4.338985e+02
2.240000e-06	2.662280e-06	6.562098e-09	1.878812e+01	4.312075e+02
2.250000e-06	2.627467e-06	6.540621e-09	1.854244e+01	4.284969e+02
2.260000e-06	2.592095e-06	6.471893e-09	1.829281e+01	4.257528e+02
2.270000e-06	2.556209e-06	6.440575e-09	1.803956e+01	4.229348e+02
2.280000e-06	2.519543e-06	6.423882e-09	1.778080e+01	4.199952e+02
2.290000e-06	2.481893e-06	6.350292e-09	1.751510e+01	4.169052e+02
2.300000e-06	2.443271e-06	6.291693e-09	1.724253e+01	4.136709e+02
2.310000e-06	2.403936e-06	6.247314e-09	1.696494e+01	4.103318e+02
2.320000e-06	2.364121e-06	6.199844e-09	1.668396e+01	4.069404e+02
2.330000e-06	2.323785e-06	6.156004e-09	1.639931e+01	4.035349e+02
2.340000e-06	2.282810e-06	6.098720e-09	1.611014e+01	4.001183e+02
2.350000e-06	2.241182e-06	6.040218e-09	1.581636e+01	3.966573e+02
2.360000e-06	2.198984e-06	5.989481e-09	1.551857e+01	3.930985e+02
2.370000e-06	2.156225e-06	5.946821e-09	1.521681e+01	3.893947e+02
2.380000e-06	2.112962e-06	5.891824e-09	1.491149e+01	3.855269e+02
2.390000e-06	2.069283e-06	5.814602e-09	1.460325e+01	3.815111e+02
2.400000e-06	2.025202e-06	5.752778e-09	1.429216e+01	3.773881e+02
2.410000e-06	1.980591e-06	5.703635e-09	1.397734e+01	3.732023e+02
2.420000e-06	1.935307e-06	5.637481e-09	1.365775e+01	3.689809e+02
2.430000e-06	1.889353e-06	5.561110e-09	1.333346e+01	3.647235e+02
2.440000e-06	1.842919e-06	5.487390e-09	1.300576e+01	3.604052e+02
2.450000e-06	1.796038e-06	5.434712e-09	1.267491e+01	3.559892e+02
2.460000e-06	1.748630e-06	5.378956e-09	1.234035e+01	3.514432e+02
2.470000e-06	1.700680e-06	5.294105e-09	1.200196e+01	3.467497e+02
2.480000e-06	1.652100e-06	5.215090e-09	1.165912e+01	3.419100e+02
2.490000e-06	1.602935e-06	5.147562e-09	1.131216e+01	3.369399e+02
2.500000e-06	1.553292e-06	5.074086e-09	1.096182e+01	3.318623e+02
2.510000e-06	1.503213e-06	4.991042e-09	1.060840e+01	3.266997e+02
2.520000e-06	1.452648e-06	4.903275e-09	1.025156e+01	3.214675e+02
2.530000e-06	1.401558e-06	4.823882e-09	9.891011e+00	3.161706e+02
2.540000e-06	1.350060e-06	4.749606e-09	9.527582e+00	3.108010e+02
2.550000e-06	1.298179e-06	4.670666e-09	9.161450e+00	3.053390e+02
2.560000e-06	1.245937e-06	4.583334e-09	8.792767e+00	2.997575e+02
2.570000e-06	1.193279e-06	4.490384e-09	8.421151e+00	2.940302e+02
2.580000e-06	1.140018e-06	4.402445e-09	8.045283e+00	2.881406e+02
2.590000e-06	1.086126e-06	4.315989e-09	7.664956e+00	2.820896e+02
2.600000e-06	1.031687e-06	4.220399e-09	7.280770e+00	2.758955e+02
2.610000e-06	9.768302e-07	4.118635e-09	6.893640e+00	2.695874e+02
2.620000e-06	9.216521e-07	4.020369e-09	6.504239e+00	2.631925e+02
2.630000e-06	8.662124e-07	3.929457e-09	6.112993e+00	2.567234e+02
2.640000e-06	8.106315e-07	3.832714e-09	5.720750e+00	2.501712e+02
2.650000e-06	7.549735e-07	3.725179e-09	5.327963e+00	2.435083e+02
2.660000e-06	6.992333e-07	3.620934e-09	4.934596e+00	2.366998e+02
2.670000e-06	6.433842e-07	3.521628e-09	4.540460e+00	2.297187e+02
2.680000e-06	5.874349e-07	3.417016e-09	4.145618e+00	2.225566e+02
2.690000e-06	5.314021e-07	3.301774e-09	3.750186e+00	2.152266e+02
2.700000e-06	4.752138e-07	3.184723e-09	3.353657e+00	2.077559e+02
2.710000e-06	4.188838e-07	3.073663e-09	2.956127e+00	2.001728e+02
2.720000e-06	3.624988e-07	2.960267e-09	2.558209e+00	1.924930e+02
2.730000e-06	3.060382e-07	2.839022e-09	2.159758e+00	1.847125e+02
2.740000e-06	2.495230e-07	2.716388e-09	1.760922e+00	1.768082e+02
2.750000e-06	1.929446e-07	2.595660e-09	1.361640e+00	1.687469e+02
2.760000e-06	1.362422e-07	2.472078e-09	9.614820e-01	1.604973e+02
2.770000e-06	7.947977e-08	2.342755e-09	5.609009e-01	1.520404e+02
2.780000e-06	2.269355e-08	2.210309e-09	1.601519e-01	1.433756e+02
2.790000e-06	-3.409344e-08	2.077908e-09	-2.406026e-01	1.345196e+02
2.800000e-06	-9.087939e-08	1.944868e-09	-6.413497e-01	1.255004e+02
2.810000e-06	-1.475801e-07	1.807619e-09	-1.041495e+00	1.163467e+02
2.820000e-06	-2.041098e-07	1.662958e-09	-1.440434e+00	1.070783e+02
2.830000e-06	-2.606093e-07	1.515420e-09	-1.839160e+00	9.769874e+01
2.840000e-06	-3.171479e-07	1.370661e-09	-2.238161e+00	8.819366e+01
2.850000e-06	-3.735758e-07	1.227166e-09	-2.636381e+00	7.853500e+01
2.860000e-06	-4.298932e-07	1.079111e-09	-3.033822e+00	6.869026e+01
2.870000e-06	-4.860721e-07	9.251224e-10	-3.430285e+00	5.863358e+01
2.880000e-06	-5.421154e-07	7.709503e-10	-3.825791e+00	4.835471e+01
2.890000e-06	-5.980582e-07	6.151833e-10	-4.220588e+00	3.786256e+01
2.900000e-06	-6.538354e-07	4.506748e-10	-4.614216e+00	2.718224e+01
2.910000e-06	-7.095225e-07	2.792297e-10	-5.007209e+00	1.634689e+01
2.920000e-06	-7.651562e-07	1.098741e-10	-5.399824e+00	5.388138e+00
2.930000e-06	-8.207132e-07	-5.591181e-11	-5.791898e+00	-5.671104e+00
2.940000e-06	-8.761680e-07	-2.241087e-10	-6.183251e+00	-1.681904e+01
2.950000e-06	-9.314452e-07	-3.958398e-10	-6.573351e+00	-2.805270e+01
