# Temperatura_=_20.0
# Concentracion g/m^3_=_10000.0
# C_Vs_to_Am_M_A/Vsm_=_65563218390.804596
# pendiente_HvsI_1/m_=_3716.3
# ordenada_HvsI_A/m_=_1297.0
# frecuencia_Hz_=_269486.379536261

Tiempo_(s)	Campo_(V.s)	Magnetizacion_(V.s)	Campo_(kA/m)	Magnetizacion_(A/m)
0.000000e+00	-3.341224e-06	-7.383845e-09	-2.347920e+01	-4.820656e+02
1.000000e-08	-3.340936e-06	-7.385259e-09	-2.347718e+01	-4.821864e+02
2.000000e-08	-3.339852e-06	-7.383933e-09	-2.346956e+01	-4.821944e+02
3.000000e-08	-3.337651e-06	-7.379935e-09	-2.345409e+01	-4.821151e+02
4.000000e-08	-3.334303e-06	-7.373531e-09	-2.343056e+01	-4.819760e+02
5.000000e-08	-3.330094e-06	-7.367848e-09	-2.340099e+01	-4.817973e+02
6.000000e-08	-3.325124e-06	-7.364950e-09	-2.336606e+01	-4.815828e+02
7.000000e-08	-3.319292e-06	-7.363019e-09	-2.332508e+01	-4.813149e+02
8.000000e-08	-3.312472e-06	-7.361477e-09	-2.327716e+01	-4.809596e+02
9.000000e-08	-3.304578e-06	-7.371674e-09	-2.322169e+01	-4.804805e+02
1.000000e-07	-3.295553e-06	-7.376328e-09	-2.315827e+01	-4.798581e+02
1.100000e-07	-3.285317e-06	-7.342175e-09	-2.308633e+01	-4.791054e+02
1.200000e-07	-3.274087e-06	-7.281209e-09	-2.300742e+01	-4.782697e+02
1.300000e-07	-3.262050e-06	-7.290360e-09	-2.292283e+01	-4.774170e+02
1.400000e-07	-3.249079e-06	-7.326490e-09	-2.283169e+01	-4.766029e+02
1.500000e-07	-3.235201e-06	-7.289399e-09	-2.273416e+01	-4.758428e+02
1.600000e-07	-3.220391e-06	-7.261586e-09	-2.263009e+01	-4.750983e+02
1.700000e-07	-3.204329e-06	-7.297236e-09	-2.251722e+01	-4.742884e+02
1.800000e-07	-3.187082e-06	-7.299917e-09	-2.239602e+01	-4.733234e+02
1.900000e-07	-3.169166e-06	-7.217967e-09	-2.227013e+01	-4.721462e+02
2.000000e-07	-3.150646e-06	-7.200662e-09	-2.213998e+01	-4.707596e+02
2.100000e-07	-3.131210e-06	-7.212930e-09	-2.200341e+01	-4.692254e+02
2.200000e-07	-3.110976e-06	-7.141524e-09	-2.186122e+01	-4.676332e+02
2.300000e-07	-3.090066e-06	-7.122054e-09	-2.171428e+01	-4.660554e+02
2.400000e-07	-3.068249e-06	-7.144023e-09	-2.156097e+01	-4.645103e+02
2.500000e-07	-3.045543e-06	-7.081786e-09	-2.140141e+01	-4.629546e+02
2.600000e-07	-3.022087e-06	-7.037562e-09	-2.123658e+01	-4.613085e+02
2.700000e-07	-2.997855e-06	-7.043932e-09	-2.106630e+01	-4.594999e+02
2.800000e-07	-2.972851e-06	-7.008984e-09	-2.089060e+01	-4.575041e+02
2.900000e-07	-2.946867e-06	-6.966563e-09	-2.070800e+01	-4.553563e+02
3.000000e-07	-2.919670e-06	-6.941379e-09	-2.051689e+01	-4.531311e+02
3.100000e-07	-2.891522e-06	-6.901751e-09	-2.031909e+01	-4.509007e+02
3.200000e-07	-2.862733e-06	-6.869656e-09	-2.011678e+01	-4.486956e+02
3.300000e-07	-2.833195e-06	-6.845717e-09	-1.990922e+01	-4.464896e+02
3.400000e-07	-2.802768e-06	-6.781524e-09	-1.969540e+01	-4.442177e+02
3.500000e-07	-2.771509e-06	-6.742647e-09	-1.947574e+01	-4.418139e+02
3.600000e-07	-2.739592e-06	-6.729488e-09	-1.925146e+01	-4.392485e+02
3.700000e-07	-2.707095e-06	-6.681141e-09	-1.902309e+01	-4.365417e+02
3.800000e-07	-2.673784e-06	-6.628865e-09	-1.878902e+01	-4.337490e+02
3.900000e-07	-2.639364e-06	-6.587325e-09	-1.854714e+01	-4.309256e+02
4.000000e-07	-2.603891e-06	-6.546793e-09	-1.829786e+01	-4.280942e+02
4.100000e-07	-2.567724e-06	-6.501955e-09	-1.804372e+01	-4.252337e+02
4.200000e-07	-2.531017e-06	-6.455976e-09	-1.778578e+01	-4.222945e+02
4.300000e-07	-2.493611e-06	-6.405093e-09	-1.752292e+01	-4.192311e+02
4.400000e-07	-2.455461e-06	-6.359802e-09	-1.725483e+01	-4.160294e+02
4.500000e-07	-2.416560e-06	-6.310342e-09	-1.698147e+01	-4.127135e+02
4.600000e-07	-2.376984e-06	-6.260054e-09	-1.670336e+01	-4.093281e+02
4.700000e-07	-2.336950e-06	-6.209775e-09	-1.642204e+01	-4.059075e+02
4.800000e-07	-2.296552e-06	-6.150469e-09	-1.613816e+01	-4.024526e+02
4.900000e-07	-2.255584e-06	-6.094100e-09	-1.585027e+01	-3.989285e+02
5.000000e-07	-2.213653e-06	-6.042565e-09	-1.555562e+01	-3.952863e+02
5.100000e-07	-2.170743e-06	-5.987540e-09	-1.525408e+01	-3.914934e+02
5.200000e-07	-2.127119e-06	-5.918541e-09	-1.494753e+01	-3.875550e+02
5.300000e-07	-2.082978e-06	-5.852563e-09	-1.463735e+01	-3.835115e+02
5.400000e-07	-2.038396e-06	-5.793810e-09	-1.432406e+01	-3.794148e+02
5.500000e-07	-1.993261e-06	-5.734967e-09	-1.400690e+01	-3.752962e+02
5.600000e-07	-1.947577e-06	-5.668672e-09	-1.368587e+01	-3.711470e+02
5.700000e-07	-1.901422e-06	-5.602354e-09	-1.336153e+01	-3.669225e+02
5.800000e-07	-1.854697e-06	-5.542182e-09	-1.303319e+01	-3.625667e+02
5.900000e-07	-1.807376e-06	-5.474044e-09	-1.270066e+01	-3.580434e+02
6.000000e-07	-1.759569e-06	-5.396323e-09	-1.236471e+01	-3.533547e+02
6.100000e-07	-1.711390e-06	-5.316263e-09	-1.202615e+01	-3.485365e+02
6.200000e-07	-1.662786e-06	-5.241177e-09	-1.168461e+01	-3.436354e+02
6.300000e-07	-1.613600e-06	-5.164166e-09	-1.133897e+01	-3.386808e+02
6.400000e-07	-1.563635e-06	-5.086918e-09	-1.098786e+01	-3.336708e+02
6.500000e-07	-1.512865e-06	-5.010264e-09	-1.063109e+01	-3.285771e+02
6.600000e-07	-1.461421e-06	-4.931679e-09	-1.026959e+01	-3.233666e+02
6.700000e-07	-1.409460e-06	-4.850296e-09	-9.904454e+00	-3.180228e+02
6.800000e-07	-1.357140e-06	-4.765583e-09	-9.536794e+00	-3.125537e+02
6.900000e-07	-1.304418e-06	-4.679655e-09	-9.166305e+00	-3.069810e+02
7.000000e-07	-1.251262e-06	-4.590568e-09	-8.792772e+00	-3.013202e+02
7.100000e-07	-1.197705e-06	-4.502437e-09	-8.416423e+00	-2.955632e+02
7.200000e-07	-1.143828e-06	-4.414999e-09	-8.037825e+00	-2.896796e+02
7.300000e-07	-1.089686e-06	-4.323575e-09	-7.657363e+00	-2.836349e+02
7.400000e-07	-1.035260e-06	-4.225583e-09	-7.274904e+00	-2.774148e+02
7.500000e-07	-9.805430e-07	-4.126995e-09	-6.890398e+00	-2.710399e+02
7.600000e-07	-9.255308e-07	-4.029725e-09	-6.503821e+00	-2.645584e+02
7.700000e-07	-8.702238e-07	-3.929139e-09	-6.115172e+00	-2.580194e+02
7.800000e-07	-8.146366e-07	-3.823851e-09	-5.724553e+00	-2.514404e+02
7.900000e-07	-7.588335e-07	-3.716501e-09	-5.332418e+00	-2.447906e+02
8.000000e-07	-7.028990e-07	-3.611667e-09	-4.939359e+00	-2.380004e+02
8.100000e-07	-6.468706e-07	-3.504064e-09	-4.545641e+00	-2.309944e+02
8.200000e-07	-5.907979e-07	-3.390622e-09	-4.151611e+00	-2.237321e+02
8.300000e-07	-5.347088e-07	-3.274234e-09	-3.757466e+00	-2.162323e+02
8.400000e-07	-4.785374e-07	-3.158663e-09	-3.362742e+00	-2.085671e+02
8.500000e-07	-4.222802e-07	-3.043470e-09	-2.967416e+00	-2.008275e+02
8.600000e-07	-3.659679e-07	-2.924247e-09	-2.571703e+00	-1.930769e+02
8.700000e-07	-3.096370e-07	-2.801523e-09	-2.175858e+00	-1.853175e+02
8.800000e-07	-2.533009e-07	-2.679720e-09	-1.779977e+00	-1.774861e+02
8.900000e-07	-1.969024e-07	-2.560312e-09	-1.383657e+00	-1.694831e+02
9.000000e-07	-1.404518e-07	-2.436434e-09	-9.869721e-01	-1.612175e+02
9.100000e-07	-8.397024e-08	-2.303901e-09	-5.900694e-01	-1.526483e+02
9.200000e-07	-2.746333e-08	-2.164670e-09	-1.929882e-01	-1.437998e+02
9.300000e-07	2.904885e-08	-2.023582e-09	2.041299e-01	-1.347459e+02
9.400000e-07	8.556626e-08	-1.882536e-09	6.012848e-01	-1.255727e+02
9.500000e-07	1.420667e-07	-1.740289e-09	9.983202e-01	-1.163386e+02
9.600000e-07	1.985375e-07	-1.596210e-09	1.395148e+00	-1.070501e+02
9.700000e-07	2.549481e-07	-1.451710e-09	1.791552e+00	-9.766345e+01
9.800000e-07	3.112925e-07	-1.307458e-09	2.187491e+00	-8.810903e+01
9.900000e-07	3.676076e-07	-1.158357e-09	2.583225e+00	-7.832350e+01
1.000000e-06	4.239058e-07	-1.002671e-09	2.978839e+00	-6.827607e+01
1.010000e-06	4.801425e-07	-8.428727e-10	3.374022e+00	-5.797721e+01
1.020000e-06	5.362835e-07	-6.826960e-10	3.768531e+00	-4.746906e+01
1.030000e-06	5.923834e-07	-5.216897e-10	4.162752e+00	-3.680443e+01
1.040000e-06	6.484333e-07	-3.561308e-10	4.556622e+00	-2.602527e+01
1.050000e-06	7.043884e-07	-1.869538e-10	4.949825e+00	-1.514995e+01
1.060000e-06	7.602611e-07	-1.791647e-11	5.342450e+00	-4.173114e+00
1.070000e-06	8.159926e-07	1.497057e-10	5.734082e+00	6.923734e+00
1.080000e-06	8.714674e-07	3.192769e-10	6.123911e+00	1.815733e+01
1.090000e-06	9.266278e-07	4.938821e-10	6.511530e+00	2.953048e+01
1.100000e-06	9.814759e-07	6.710615e-10	6.896954e+00	4.102757e+01
1.110000e-06	1.036046e-06	8.470538e-10	7.280426e+00	5.261898e+01
1.120000e-06	1.090357e-06	1.024639e-09	7.662078e+00	6.427117e+01
1.130000e-06	1.144425e-06	1.205243e-09	8.042020e+00	7.595734e+01
1.140000e-06	1.198228e-06	1.385568e-09	8.420095e+00	8.766294e+01
1.150000e-06	1.251668e-06	1.563097e-09	8.795625e+00	9.938360e+01
1.160000e-06	1.304669e-06	1.737837e-09	9.168075e+00	1.111164e+02
1.170000e-06	1.357220e-06	1.913752e-09	9.537352e+00	1.228499e+02
1.180000e-06	1.409355e-06	2.091883e-09	9.903716e+00	1.345580e+02
1.190000e-06	1.461081e-06	2.270631e-09	1.026720e+01	1.462036e+02
1.200000e-06	1.512272e-06	2.447205e-09	1.062692e+01	1.577484e+02
1.210000e-06	1.562672e-06	2.620369e-09	1.098109e+01	1.691662e+02
1.220000e-06	1.612218e-06	2.791278e-09	1.132926e+01	1.804495e+02
1.230000e-06	1.661091e-06	2.961287e-09	1.167270e+01	1.916058e+02
1.240000e-06	1.709514e-06	3.129741e-09	1.201297e+01	2.026432e+02
1.250000e-06	1.757610e-06	3.295786e-09	1.235095e+01	2.135538e+02
1.260000e-06	1.805324e-06	3.460175e-09	1.268624e+01	2.243040e+02
1.270000e-06	1.852513e-06	3.621386e-09	1.301784e+01	2.348405e+02
1.280000e-06	1.899179e-06	3.777630e-09	1.334577e+01	2.451097e+02
1.290000e-06	1.945354e-06	3.928773e-09	1.367024e+01	2.550822e+02
1.300000e-06	1.990965e-06	4.076062e-09	1.399076e+01	2.647678e+02
1.310000e-06	2.035999e-06	4.220316e-09	1.430722e+01	2.742108e+02
1.320000e-06	2.080544e-06	4.361775e-09	1.462025e+01	2.834654e+02
1.330000e-06	2.124740e-06	4.499402e-09	1.493082e+01	2.925630e+02
1.340000e-06	2.168541e-06	4.634226e-09	1.523861e+01	3.014878e+02
1.350000e-06	2.211710e-06	4.767141e-09	1.554196e+01	3.101771e+02
1.360000e-06	2.254003e-06	4.895632e-09	1.583916e+01	3.185465e+02
1.370000e-06	2.295345e-06	5.015987e-09	1.612968e+01	3.265299e+02
1.380000e-06	2.335931e-06	5.126948e-09	1.641488e+01	3.341133e+02
1.390000e-06	2.375975e-06	5.233196e-09	1.669627e+01	3.413440e+02
1.400000e-06	2.415462e-06	5.339525e-09	1.697375e+01	3.483089e+02
1.410000e-06	2.454328e-06	5.444971e-09	1.724687e+01	3.550927e+02
1.420000e-06	2.492577e-06	5.546796e-09	1.751565e+01	3.617370e+02
1.430000e-06	2.530112e-06	5.643949e-09	1.777941e+01	3.682228e+02
1.440000e-06	2.566916e-06	5.737920e-09	1.803804e+01	3.744842e+02
1.450000e-06	2.603177e-06	5.828180e-09	1.829285e+01	3.804475e+02
1.460000e-06	2.638974e-06	5.911797e-09	1.854440e+01	3.860740e+02
1.470000e-06	2.674013e-06	5.990121e-09	1.879063e+01	3.913844e+02
1.480000e-06	2.707915e-06	6.064617e-09	1.902886e+01	3.964518e+02
1.490000e-06	2.740801e-06	6.137912e-09	1.925995e+01	4.013673e+02
1.500000e-06	2.772950e-06	6.211403e-09	1.948587e+01	4.061978e+02
1.510000e-06	2.804386e-06	6.283619e-09	1.970677e+01	4.109557e+02
1.520000e-06	2.835069e-06	6.354590e-09	1.992239e+01	4.155983e+02
1.530000e-06	2.865003e-06	6.422977e-09	2.013274e+01	4.200536e+02
1.540000e-06	2.894128e-06	6.486945e-09	2.033740e+01	4.242593e+02
1.550000e-06	2.922572e-06	6.545806e-09	2.053728e+01	4.281942e+02
1.560000e-06	2.950432e-06	6.600188e-09	2.073306e+01	4.318882e+02
1.570000e-06	2.977367e-06	6.651785e-09	2.092233e+01	4.354060e+02
1.580000e-06	3.003142e-06	6.702215e-09	2.110346e+01	4.388168e+02
1.590000e-06	3.027857e-06	6.751304e-09	2.127713e+01	4.421637e+02
1.600000e-06	3.051646e-06	6.798627e-09	2.144430e+01	4.454486e+02
1.610000e-06	3.074637e-06	6.845332e-09	2.160586e+01	4.486366e+02
1.620000e-06	3.096865e-06	6.890960e-09	2.176206e+01	4.516756e+02
1.630000e-06	3.118228e-06	6.932956e-09	2.191218e+01	4.545197e+02
1.640000e-06	3.138801e-06	6.969889e-09	2.205674e+01	4.571471e+02
1.650000e-06	3.158710e-06	7.002575e-09	2.219665e+01	4.595650e+02
1.660000e-06	3.177862e-06	7.034738e-09	2.233123e+01	4.618031e+02
1.670000e-06	3.196126e-06	7.066131e-09	2.245958e+01	4.639015e+02
1.680000e-06	3.213428e-06	7.093862e-09	2.258116e+01	4.658971e+02
1.690000e-06	3.229785e-06	7.119183e-09	2.269610e+01	4.678139e+02
1.700000e-06	3.245123e-06	7.145505e-09	2.280389e+01	4.696587e+02
1.710000e-06	3.259455e-06	7.172948e-09	2.290460e+01	4.714220e+02
1.720000e-06	3.272925e-06	7.198695e-09	2.299925e+01	4.730822e+02
1.730000e-06	3.285486e-06	7.219733e-09	2.308752e+01	4.746132e+02
1.740000e-06	3.297023e-06	7.238199e-09	2.316859e+01	4.759938e+02
1.750000e-06	3.307349e-06	7.256047e-09	2.324116e+01	4.772152e+02
1.760000e-06	3.316470e-06	7.271087e-09	2.330525e+01	4.782856e+02
1.770000e-06	3.324629e-06	7.283972e-09	2.336258e+01	4.792286e+02
1.780000e-06	3.331945e-06	7.296192e-09	2.341399e+01	4.800765e+02
1.790000e-06	3.338364e-06	7.308147e-09	2.345910e+01	4.808594e+02
1.800000e-06	3.343841e-06	7.319716e-09	2.349759e+01	4.815960e+02
1.810000e-06	3.348522e-06	7.330303e-09	2.353048e+01	4.822885e+02
1.820000e-06	3.352453e-06	7.339311e-09	2.355811e+01	4.829228e+02
1.830000e-06	3.355363e-06	7.347318e-09	2.357856e+01	4.834752e+02
1.840000e-06	3.357055e-06	7.354164e-09	2.359045e+01	4.839210e+02
1.850000e-06	3.357675e-06	7.358691e-09	2.359480e+01	4.842418e+02
1.860000e-06	3.357413e-06	7.361155e-09	2.359296e+01	4.844317e+02
1.870000e-06	3.356287e-06	7.362800e-09	2.358505e+01	4.844991e+02
1.880000e-06	3.354318e-06	7.363120e-09	2.357121e+01	4.844646e+02
1.890000e-06	3.351506e-06	7.362970e-09	2.355145e+01	4.843555e+02
1.900000e-06	3.347930e-06	7.362107e-09	2.352633e+01	4.841975e+02
1.910000e-06	3.343648e-06	7.359763e-09	2.349624e+01	4.840042e+02
1.920000e-06	3.338386e-06	7.357633e-09	2.345926e+01	4.837695e+02
1.930000e-06	3.331937e-06	7.355199e-09	2.341394e+01	4.834673e+02
1.940000e-06	3.324406e-06	7.332846e-09	2.336101e+01	4.830601e+02
1.950000e-06	3.315685e-06	7.299804e-09	2.329973e+01	4.825170e+02
1.960000e-06	3.305591e-06	7.307708e-09	2.322880e+01	4.818319e+02
1.970000e-06	3.294652e-06	7.351043e-09	2.315193e+01	4.810345e+02
1.980000e-06	3.283521e-06	7.318100e-09	2.307371e+01	4.801837e+02
1.990000e-06	3.271701e-06	7.258115e-09	2.299065e+01	4.793446e+02
2.000000e-06	3.258309e-06	7.270172e-09	2.289655e+01	4.785574e+02
2.010000e-06	3.243590e-06	7.270370e-09	2.279312e+01	4.778133e+02
2.020000e-06	3.228194e-06	7.203230e-09	2.268493e+01	4.770512e+02
2.030000e-06	3.211947e-06	7.170119e-09	2.257075e+01	4.761813e+02
2.040000e-06	3.194694e-06	7.235579e-09	2.244951e+01	4.751238e+02
2.050000e-06	3.176798e-06	7.215925e-09	2.232376e+01	4.738473e+02
2.060000e-06	3.158285e-06	7.130062e-09	2.219367e+01	4.723836e+02
2.070000e-06	3.138908e-06	7.160239e-09	2.205750e+01	4.708125e+02
2.080000e-06	3.118767e-06	7.155365e-09	2.191596e+01	4.692216e+02
2.090000e-06	3.097739e-06	7.064131e-09	2.176820e+01	4.676613e+02
2.100000e-06	3.075391e-06	7.068123e-09	2.161116e+01	4.661208e+02
2.110000e-06	3.051928e-06	7.080136e-09	2.144628e+01	4.645352e+02
2.120000e-06	3.027683e-06	7.020505e-09	2.127591e+01	4.628223e+02
2.130000e-06	3.002602e-06	6.983642e-09	2.109966e+01	4.609282e+02
2.140000e-06	2.976754e-06	6.968816e-09	2.091802e+01	4.588561e+02
2.150000e-06	2.950224e-06	6.935127e-09	2.073160e+01	4.566636e+02
2.160000e-06	2.922934e-06	6.909007e-09	2.053983e+01	4.544298e+02
2.170000e-06	2.894860e-06	6.857235e-09	2.034254e+01	4.522115e+02
2.180000e-06	2.865830e-06	6.809010e-09	2.013855e+01	4.500132e+02
2.190000e-06	2.835581e-06	6.824414e-09	1.992598e+01	4.477871e+02
2.200000e-06	2.804303e-06	6.780461e-09	1.970619e+01	4.454624e+02
2.210000e-06	2.772259e-06	6.707156e-09	1.948101e+01	4.429861e+02
2.220000e-06	2.739478e-06	6.691305e-09	1.925065e+01	4.403515e+02
2.230000e-06	2.706016e-06	6.654118e-09	1.901551e+01	4.375985e+02
2.240000e-06	2.671803e-06	6.600421e-09	1.877510e+01	4.347872e+02
2.250000e-06	2.636824e-06	6.571746e-09	1.852929e+01	4.319609e+02
2.260000e-06	2.601289e-06	6.526475e-09	1.827958e+01	4.291221e+02
2.270000e-06	2.565156e-06	6.484087e-09	1.802567e+01	4.262331e+02
2.280000e-06	2.528182e-06	6.443735e-09	1.776585e+01	4.232422e+02
2.290000e-06	2.490248e-06	6.382257e-09	1.749929e+01	4.201156e+02
2.300000e-06	2.451395e-06	6.337822e-09	1.722626e+01	4.168576e+02
2.310000e-06	2.411902e-06	6.287682e-09	1.694874e+01	4.135051e+02
2.320000e-06	2.371927e-06	6.229168e-09	1.666783e+01	4.101019e+02
2.330000e-06	2.331379e-06	6.191028e-09	1.638289e+01	4.066689e+02
2.340000e-06	2.290202e-06	6.138773e-09	1.609353e+01	4.031890e+02
2.350000e-06	2.248419e-06	6.073795e-09	1.579992e+01	3.996175e+02
2.360000e-06	2.206040e-06	6.016644e-09	1.550212e+01	3.959092e+02
2.370000e-06	2.163080e-06	5.965621e-09	1.520023e+01	3.920474e+02
2.380000e-06	2.119618e-06	5.912839e-09	1.489482e+01	3.880553e+02
2.390000e-06	2.075763e-06	5.844077e-09	1.458665e+01	3.839825e+02
2.400000e-06	2.031482e-06	5.776480e-09	1.427548e+01	3.798750e+02
2.410000e-06	1.986573e-06	5.721790e-09	1.395990e+01	3.757469e+02
2.420000e-06	1.940935e-06	5.654326e-09	1.363919e+01	3.715711e+02
2.430000e-06	1.894698e-06	5.578530e-09	1.331428e+01	3.672938e+02
2.440000e-06	1.848033e-06	5.512124e-09	1.298636e+01	3.628645e+02
2.450000e-06	1.800968e-06	5.452450e-09	1.265563e+01	3.582637e+02
2.460000e-06	1.753293e-06	5.388019e-09	1.232061e+01	3.535108e+02
2.470000e-06	1.704956e-06	5.309302e-09	1.198094e+01	3.486502e+02
2.480000e-06	1.656025e-06	5.233967e-09	1.163710e+01	3.437236e+02
2.490000e-06	1.606586e-06	5.160135e-09	1.128968e+01	3.387467e+02
2.500000e-06	1.556753e-06	5.079211e-09	1.093950e+01	3.337036e+02
2.510000e-06	1.506426e-06	4.999206e-09	1.058584e+01	3.285609e+02
2.520000e-06	1.455594e-06	4.920636e-09	1.022864e+01	3.232908e+02
2.530000e-06	1.404339e-06	4.841432e-09	9.868468e+00	3.178882e+02
2.540000e-06	1.352698e-06	4.758816e-09	9.505578e+00	3.123697e+02
2.550000e-06	1.300605e-06	4.674305e-09	9.139511e+00	3.067568e+02
2.560000e-06	1.247967e-06	4.588953e-09	8.769619e+00	3.010554e+02
2.570000e-06	1.194823e-06	4.497775e-09	8.396174e+00	2.952460e+02
2.580000e-06	1.141132e-06	4.404766e-09	8.018878e+00	2.892931e+02
2.590000e-06	1.086837e-06	4.314009e-09	7.637337e+00	2.831687e+02
2.600000e-06	1.031990e-06	4.219048e-09	7.251923e+00	2.768739e+02
2.610000e-06	9.767671e-07	4.120691e-09	6.863865e+00	2.704443e+02
2.620000e-06	9.213728e-07	4.022321e-09	6.474602e+00	2.639325e+02
2.630000e-06	8.658682e-07	3.926632e-09	6.084564e+00	2.573766e+02
2.640000e-06	8.102598e-07	3.829464e-09	5.693797e+00	2.507729e+02
2.650000e-06	7.545364e-07	3.728537e-09	5.302222e+00	2.440696e+02
2.660000e-06	6.986979e-07	3.628712e-09	4.909838e+00	2.371895e+02
2.670000e-06	6.426961e-07	3.523596e-09	4.516306e+00	2.300687e+02
2.680000e-06	5.865158e-07	3.409058e-09	4.121520e+00	2.226925e+02
2.690000e-06	5.301727e-07	3.288746e-09	3.725590e+00	2.151066e+02
2.700000e-06	4.736945e-07	3.170088e-09	3.328710e+00	2.073975e+02
2.710000e-06	4.171140e-07	3.055132e-09	2.931112e+00	1.996491e+02
2.720000e-06	3.604050e-07	2.937360e-09	2.532611e+00	1.918994e+02
2.730000e-06	3.035819e-07	2.817157e-09	2.133308e+00	1.841190e+02
2.740000e-06	2.466962e-07	2.698646e-09	1.733565e+00	1.762228e+02
2.750000e-06	1.897618e-07	2.580065e-09	1.333480e+00	1.681094e+02
2.760000e-06	1.328096e-07	2.454934e-09	9.332700e-01	1.597067e+02
2.770000e-06	7.584710e-08	2.320482e-09	5.329871e-01	1.510038e+02
2.780000e-06	1.880805e-08	2.182383e-09	1.321666e-01	1.420511e+02
2.790000e-06	-3.828424e-08	2.045860e-09	-2.690282e-01	1.329337e+02
2.800000e-06	-9.535726e-08	1.909478e-09	-6.700874e-01	1.237291e+02
2.810000e-06	-1.523666e-07	1.771258e-09	-1.070699e+00	1.144735e+02
2.820000e-06	-2.093194e-07	1.628652e-09	-1.470914e+00	1.051486e+02
2.830000e-06	-2.662476e-07	1.483222e-09	-1.870955e+00	9.569508e+01
2.840000e-06	-3.230641e-07	1.337845e-09	-2.270212e+00	8.604199e+01
2.850000e-06	-3.797405e-07	1.189170e-09	-2.668484e+00	7.613866e+01
2.860000e-06	-4.363098e-07	1.034987e-09	-3.066004e+00	6.597331e+01
2.870000e-06	-4.927490e-07	8.765965e-10	-3.462609e+00	5.557303e+01
2.880000e-06	-5.490900e-07	7.169360e-10	-3.858524e+00	4.498775e+01
2.890000e-06	-6.052634e-07	5.550987e-10	-4.253262e+00	3.426762e+01
2.900000e-06	-6.611918e-07	3.889712e-10	-4.646278e+00	2.344461e+01
2.910000e-06	-7.169824e-07	2.202248e-10	-5.038325e+00	1.252548e+01
2.920000e-06	-7.727289e-07	5.132307e-11	-5.430063e+00	1.497102e+00
2.930000e-06	-8.283946e-07	-1.169368e-10	-5.821233e+00	-9.660049e+00
2.940000e-06	-8.839254e-07	-2.877966e-10	-6.211455e+00	-2.095744e+01
2.950000e-06	-9.392877e-07	-4.611728e-10	-6.600492e+00	-3.238944e+01
