# Temperatura_=_20.0
# Concentracion g/m^3_=_10000.0
# C_Vs_to_Am_M_A/Vsm_=_65563218390.804596
# pendiente_HvsI_1/m_=_3716.3
# ordenada_HvsI_A/m_=_1297.0
# frecuencia_Hz_=_269484.3367796205

Tiempo_(s)	Campo_(V.s)	Magnetizacion_(V.s)	Campo_(kA/m)	Magnetizacion_(A/m)
0.000000e+00	-3.331255e-06	-7.380594e-09	-2.347840e+01	-4.824678e+02
1.000000e-08	-3.330985e-06	-7.382231e-09	-2.347649e+01	-4.827701e+02
2.000000e-08	-3.329896e-06	-7.384535e-09	-2.346882e+01	-4.829025e+02
3.000000e-08	-3.327700e-06	-7.383416e-09	-2.345334e+01	-4.828403e+02
4.000000e-08	-3.324408e-06	-7.378520e-09	-2.343014e+01	-4.826112e+02
5.000000e-08	-3.320325e-06	-7.373427e-09	-2.340136e+01	-4.822877e+02
6.000000e-08	-3.315513e-06	-7.367045e-09	-2.336744e+01	-4.819545e+02
7.000000e-08	-3.309809e-06	-7.349887e-09	-2.332725e+01	-4.816666e+02
8.000000e-08	-3.303090e-06	-7.349411e-09	-2.327989e+01	-4.814184e+02
9.000000e-08	-3.295314e-06	-7.407957e-09	-2.322509e+01	-4.811419e+02
1.000000e-07	-3.286418e-06	-7.436034e-09	-2.316239e+01	-4.807383e+02
1.100000e-07	-3.276261e-06	-7.292332e-09	-2.309080e+01	-4.801281e+02
1.200000e-07	-3.265153e-06	-7.203789e-09	-2.301251e+01	-4.792960e+02
1.300000e-07	-3.253239e-06	-7.345614e-09	-2.292854e+01	-4.783044e+02
1.400000e-07	-3.240319e-06	-7.421855e-09	-2.283749e+01	-4.772681e+02
1.500000e-07	-3.226524e-06	-7.211972e-09	-2.274026e+01	-4.762992e+02
1.600000e-07	-3.211886e-06	-7.216597e-09	-2.263709e+01	-4.754503e+02
1.700000e-07	-3.195905e-06	-7.410696e-09	-2.252446e+01	-4.746853e+02
1.800000e-07	-3.178625e-06	-7.289608e-09	-2.240267e+01	-4.738935e+02
1.900000e-07	-3.160785e-06	-7.167758e-09	-2.227694e+01	-4.729409e+02
2.000000e-07	-3.142299e-06	-7.286718e-09	-2.214665e+01	-4.717330e+02
2.100000e-07	-3.122843e-06	-7.240076e-09	-2.200952e+01	-4.702574e+02
2.200000e-07	-3.102714e-06	-7.074915e-09	-2.186766e+01	-4.685854e+02
2.300000e-07	-3.081918e-06	-7.206742e-09	-2.172109e+01	-4.668325e+02
2.400000e-07	-3.060210e-06	-7.220940e-09	-2.156809e+01	-4.651008e+02
2.500000e-07	-3.037675e-06	-7.022304e-09	-2.140927e+01	-4.634325e+02
2.600000e-07	-3.014349e-06	-7.049909e-09	-2.124487e+01	-4.617979e+02
2.700000e-07	-2.990199e-06	-7.118686e-09	-2.107466e+01	-4.601199e+02
2.800000e-07	-2.965299e-06	-7.001652e-09	-2.089917e+01	-4.583196e+02
2.900000e-07	-2.939489e-06	-6.981557e-09	-2.071726e+01	-4.563556e+02
3.000000e-07	-2.912472e-06	-6.975982e-09	-2.052685e+01	-4.542375e+02
3.100000e-07	-2.884500e-06	-6.914067e-09	-2.032971e+01	-4.520107e+02
3.200000e-07	-2.855869e-06	-6.928301e-09	-2.012792e+01	-4.497232e+02
3.300000e-07	-2.826466e-06	-6.873981e-09	-1.992068e+01	-4.473988e+02
3.400000e-07	-2.796212e-06	-6.774455e-09	-1.970746e+01	-4.450293e+02
3.500000e-07	-2.765096e-06	-6.776170e-09	-1.948816e+01	-4.425879e+02
3.600000e-07	-2.733262e-06	-6.770310e-09	-1.926379e+01	-4.400531e+02
3.700000e-07	-2.700876e-06	-6.702989e-09	-1.903554e+01	-4.374234e+02
3.800000e-07	-2.667774e-06	-6.675677e-09	-1.880224e+01	-4.347158e+02
3.900000e-07	-2.633605e-06	-6.606494e-09	-1.856142e+01	-4.319487e+02
4.000000e-07	-2.598337e-06	-6.561113e-09	-1.831285e+01	-4.291238e+02
4.100000e-07	-2.562348e-06	-6.556342e-09	-1.805921e+01	-4.262206e+02
4.200000e-07	-2.525803e-06	-6.479362e-09	-1.780164e+01	-4.232090e+02
4.300000e-07	-2.488569e-06	-6.404420e-09	-1.753922e+01	-4.200720e+02
4.400000e-07	-2.450582e-06	-6.389676e-09	-1.727149e+01	-4.168217e+02
4.500000e-07	-2.411821e-06	-6.353166e-09	-1.699831e+01	-4.134982e+02
4.600000e-07	-2.372407e-06	-6.283523e-09	-1.672052e+01	-4.101466e+02
4.700000e-07	-2.332544e-06	-6.231141e-09	-1.643957e+01	-4.067877e+02
4.800000e-07	-2.292298e-06	-6.169269e-09	-1.615592e+01	-4.033990e+02
4.900000e-07	-2.251470e-06	-6.119447e-09	-1.586817e+01	-3.999208e+02
5.000000e-07	-2.209803e-06	-6.075337e-09	-1.557450e+01	-3.962858e+02
5.100000e-07	-2.167151e-06	-6.007735e-09	-1.527389e+01	-3.924566e+02
5.200000e-07	-2.123648e-06	-5.930243e-09	-1.496729e+01	-3.884483e+02
5.300000e-07	-2.079644e-06	-5.873648e-09	-1.465715e+01	-3.843236e+02
5.400000e-07	-2.035228e-06	-5.824314e-09	-1.434411e+01	-3.801598e+02
5.500000e-07	-1.990245e-06	-5.757204e-09	-1.402708e+01	-3.760068e+02
5.600000e-07	-1.944675e-06	-5.683440e-09	-1.370590e+01	-3.718595e+02
5.700000e-07	-1.898586e-06	-5.612323e-09	-1.338107e+01	-3.676596e+02
5.800000e-07	-1.851968e-06	-5.558835e-09	-1.305251e+01	-3.633268e+02
5.900000e-07	-1.804812e-06	-5.492894e-09	-1.272016e+01	-3.587998e+02
6.000000e-07	-1.757179e-06	-5.403298e-09	-1.238445e+01	-3.540666e+02
6.100000e-07	-1.709149e-06	-5.320020e-09	-1.204593e+01	-3.491660e+02
6.200000e-07	-1.660672e-06	-5.256236e-09	-1.170427e+01	-3.441631e+02
6.300000e-07	-1.611602e-06	-5.186785e-09	-1.135843e+01	-3.391124e+02
6.400000e-07	-1.561802e-06	-5.099824e-09	-1.100744e+01	-3.340325e+02
6.500000e-07	-1.511264e-06	-5.013581e-09	-1.065126e+01	-3.289028e+02
6.600000e-07	-1.460079e-06	-4.935314e-09	-1.029051e+01	-3.236832e+02
6.700000e-07	-1.408349e-06	-4.861844e-09	-9.925920e+00	-3.183407e+02
6.800000e-07	-1.356200e-06	-4.777044e-09	-9.558378e+00	-3.128671e+02
6.900000e-07	-1.303664e-06	-4.684469e-09	-9.188112e+00	-3.072766e+02
7.000000e-07	-1.250689e-06	-4.594458e-09	-8.814751e+00	-3.015884e+02
7.100000e-07	-1.197305e-06	-4.511713e-09	-8.438502e+00	-2.958072e+02
7.200000e-07	-1.143595e-06	-4.425081e-09	-8.059959e+00	-2.899158e+02
7.300000e-07	-1.089598e-06	-4.326551e-09	-7.679394e+00	-2.838854e+02
7.400000e-07	-1.035335e-06	-4.227364e-09	-7.296954e+00	-2.776963e+02
7.500000e-07	-9.807956e-07	-4.134574e-09	-6.912562e+00	-2.713533e+02
7.600000e-07	-9.259189e-07	-4.042013e-09	-6.525796e+00	-2.648855e+02
7.700000e-07	-8.707396e-07	-3.936383e-09	-6.136897e+00	-2.583274e+02
7.800000e-07	-8.153430e-07	-3.823736e-09	-5.746467e+00	-2.516940e+02
7.900000e-07	-7.597768e-07	-3.718845e-09	-5.354841e+00	-2.449658e+02
8.000000e-07	-7.040442e-07	-3.621681e-09	-4.962042e+00	-2.380940e+02
8.100000e-07	-6.481339e-07	-3.514353e-09	-4.567991e+00	-2.310259e+02
8.200000e-07	-5.921526e-07	-3.394035e-09	-4.173440e+00	-2.237358e+02
8.300000e-07	-5.361430e-07	-3.275842e-09	-3.778689e+00	-2.162426e+02
8.400000e-07	-4.800709e-07	-3.165522e-09	-3.383498e+00	-2.086032e+02
8.500000e-07	-4.239370e-07	-3.053013e-09	-2.987871e+00	-2.008835e+02
8.600000e-07	-3.677516e-07	-2.927464e-09	-2.591881e+00	-1.931238e+02
8.700000e-07	-3.115123e-07	-2.801774e-09	-2.195511e+00	-1.853160e+02
8.800000e-07	-2.552120e-07	-2.684267e-09	-1.798712e+00	-1.774063e+02
8.900000e-07	-1.988974e-07	-2.567002e-09	-1.401811e+00	-1.693218e+02
9.000000e-07	-1.425919e-07	-2.438782e-09	-1.004975e+00	-1.610043e+02
9.100000e-07	-8.626588e-08	-2.300227e-09	-6.079944e-01	-1.524345e+02
9.200000e-07	-2.990425e-08	-2.163291e-09	-2.107626e-01	-1.436347e+02
9.300000e-07	2.646118e-08	-2.030755e-09	1.864961e-01	-1.346501e+02
9.400000e-07	8.285047e-08	-1.893021e-09	5.839229e-01	-1.255221e+02
9.500000e-07	1.392500e-07	-1.744686e-09	9.814222e-01	-1.162688e+02
9.600000e-07	1.956105e-07	-1.596191e-09	1.378646e+00	-1.068824e+02
9.700000e-07	2.519517e-07	-1.452011e-09	1.775734e+00	-9.734197e+01
9.800000e-07	3.082523e-07	-1.305989e-09	2.172535e+00	-8.763007e+01
9.900000e-07	3.644981e-07	-1.151986e-09	2.568951e+00	-7.774308e+01
1.000000e-06	4.206806e-07	-9.948807e-10	2.964921e+00	-6.768855e+01
1.010000e-06	4.768079e-07	-8.402976e-10	3.360501e+00	-5.747388e+01
1.020000e-06	5.328855e-07	-6.854336e-10	3.755731e+00	-4.709595e+01
1.030000e-06	5.889120e-07	-5.236790e-10	4.150600e+00	-3.654056e+01
1.040000e-06	6.448142e-07	-3.548807e-10	4.544595e+00	-2.579307e+01
1.050000e-06	7.005484e-07	-1.864000e-10	4.937405e+00	-1.485354e+01
1.060000e-06	7.562140e-07	-1.962379e-11	5.329730e+00	-3.745833e+00
1.070000e-06	8.117536e-07	1.499494e-10	5.721169e+00	7.486767e+00
1.080000e-06	8.670865e-07	3.259081e-10	6.111150e+00	1.879810e+01
1.090000e-06	9.221920e-07	5.019374e-10	6.499529e+00	3.015892e+01
1.100000e-06	9.769200e-07	6.737442e-10	6.885247e+00	4.156807e+01
1.110000e-06	1.031309e-06	8.462836e-10	7.268579e+00	5.304804e+01
1.120000e-06	1.085461e-06	1.024187e-09	7.650237e+00	6.462678e+01
1.130000e-06	1.139387e-06	1.205756e-09	8.030299e+00	7.631584e+01
1.140000e-06	1.193025e-06	1.385123e-09	8.408335e+00	8.809681e+01
1.150000e-06	1.246295e-06	1.563095e-09	8.783778e+00	9.992343e+01
1.160000e-06	1.299167e-06	1.741025e-09	9.156418e+00	1.117376e+02
1.170000e-06	1.351586e-06	1.920829e-09	9.525862e+00	1.234901e+02
1.180000e-06	1.403602e-06	2.099502e-09	9.892462e+00	1.351552e+02
1.190000e-06	1.455127e-06	2.274712e-09	1.025561e+01	1.467314e+02
1.200000e-06	1.506015e-06	2.449493e-09	1.061426e+01	1.582306e+02
1.210000e-06	1.556175e-06	2.624223e-09	1.096779e+01	1.696616e+02
1.220000e-06	1.605578e-06	2.798074e-09	1.131598e+01	1.810174e+02
1.230000e-06	1.654331e-06	2.969696e-09	1.165958e+01	1.922724e+02
1.240000e-06	1.702618e-06	3.139134e-09	1.199991e+01	2.033883e+02
1.250000e-06	1.750574e-06	3.306334e-09	1.233790e+01	2.143243e+02
1.260000e-06	1.798158e-06	3.471840e-09	1.267326e+01	2.250468e+02
1.270000e-06	1.845211e-06	3.633693e-09	1.300489e+01	2.355337e+02
1.280000e-06	1.891712e-06	3.790425e-09	1.333262e+01	2.457748e+02
1.290000e-06	1.937718e-06	3.942427e-09	1.365687e+01	2.557689e+02
1.300000e-06	1.983200e-06	4.091660e-09	1.397742e+01	2.655220e+02
1.310000e-06	2.028138e-06	4.238415e-09	1.429414e+01	2.750437e+02
1.320000e-06	2.072591e-06	4.380787e-09	1.460744e+01	2.843427e+02
1.330000e-06	2.116725e-06	4.517892e-09	1.491849e+01	2.934213e+02
1.340000e-06	2.160549e-06	4.652572e-09	1.522736e+01	3.022690e+02
1.350000e-06	2.203730e-06	4.785322e-09	1.553169e+01	3.108617e+02
1.360000e-06	2.245919e-06	4.912525e-09	1.582904e+01	3.191658e+02
1.370000e-06	2.287108e-06	5.032397e-09	1.611934e+01	3.271507e+02
1.380000e-06	2.327568e-06	5.145763e-09	1.640450e+01	3.348016e+02
1.390000e-06	2.367552e-06	5.255618e-09	1.668630e+01	3.421281e+02
1.400000e-06	2.407023e-06	5.362342e-09	1.696449e+01	3.491615e+02
1.410000e-06	2.445863e-06	5.465466e-09	1.723823e+01	3.559421e+02
1.420000e-06	2.484037e-06	5.564297e-09	1.750728e+01	3.625023e+02
1.430000e-06	2.521446e-06	5.659705e-09	1.777093e+01	3.688534e+02
1.440000e-06	2.558141e-06	5.752688e-09	1.802955e+01	3.749847e+02
1.450000e-06	2.594344e-06	5.841267e-09	1.828471e+01	3.808749e+02
1.460000e-06	2.630039e-06	5.924056e-09	1.853628e+01	3.865100e+02
1.470000e-06	2.664930e-06	6.003054e-09	1.878220e+01	3.918961e+02
1.480000e-06	2.698680e-06	6.079840e-09	1.902006e+01	3.970618e+02
1.490000e-06	2.731382e-06	6.155572e-09	1.925054e+01	4.020465e+02
1.500000e-06	2.763422e-06	6.229378e-09	1.947636e+01	4.068821e+02
1.510000e-06	2.794820e-06	6.299334e-09	1.969765e+01	4.115788e+02
1.520000e-06	2.825487e-06	6.367044e-09	1.991379e+01	4.161221e+02
1.530000e-06	2.855408e-06	6.432667e-09	2.012467e+01	4.204843e+02
1.540000e-06	2.884492e-06	6.495213e-09	2.032965e+01	4.246426e+02
1.550000e-06	2.912877e-06	6.554447e-09	2.052971e+01	4.285944e+02
1.560000e-06	2.940698e-06	6.610585e-09	2.072578e+01	4.323616e+02
1.570000e-06	2.967639e-06	6.665525e-09	2.091566e+01	4.359801e+02
1.580000e-06	2.993342e-06	6.719010e-09	2.109681e+01	4.394825e+02
1.590000e-06	3.017976e-06	6.768695e-09	2.127043e+01	4.428813e+02
1.600000e-06	3.041780e-06	6.814709e-09	2.143820e+01	4.461641e+02
1.610000e-06	3.064749e-06	6.859473e-09	2.160008e+01	4.493004e+02
1.620000e-06	3.086913e-06	6.902391e-09	2.175629e+01	4.522584e+02
1.630000e-06	3.108292e-06	6.941611e-09	2.190697e+01	4.550210e+02
1.640000e-06	3.128926e-06	6.977881e-09	2.205240e+01	4.575939e+02
1.650000e-06	3.148876e-06	7.011523e-09	2.219300e+01	4.600013e+02
1.660000e-06	3.168063e-06	7.043523e-09	2.232823e+01	4.622737e+02
1.670000e-06	3.186253e-06	7.074653e-09	2.245643e+01	4.644332e+02
1.680000e-06	3.203477e-06	7.103934e-09	2.257783e+01	4.664851e+02
1.690000e-06	3.219843e-06	7.130769e-09	2.269317e+01	4.684191e+02
1.700000e-06	3.235184e-06	7.156666e-09	2.280130e+01	4.702194e+02
1.710000e-06	3.249512e-06	7.181782e-09	2.290228e+01	4.718764e+02
1.720000e-06	3.262889e-06	7.204181e-09	2.299656e+01	4.733956e+02
1.730000e-06	3.275401e-06	7.223047e-09	2.308474e+01	4.747969e+02
1.740000e-06	3.287002e-06	7.240262e-09	2.316651e+01	4.761058e+02
1.750000e-06	3.297334e-06	7.258347e-09	2.323933e+01	4.773406e+02
1.760000e-06	3.306403e-06	7.276835e-09	2.330324e+01	4.785025e+02
1.770000e-06	3.314556e-06	7.293845e-09	2.336070e+01	4.795744e+02
1.780000e-06	3.321933e-06	7.307413e-09	2.341269e+01	4.805290e+02
1.790000e-06	3.328393e-06	7.318391e-09	2.345823e+01	4.813449e+02
1.800000e-06	3.333903e-06	7.328305e-09	2.349706e+01	4.820215e+02
1.810000e-06	3.338576e-06	7.336452e-09	2.353000e+01	4.825845e+02
1.820000e-06	3.342502e-06	7.342573e-09	2.355766e+01	4.830790e+02
1.830000e-06	3.345476e-06	7.348900e-09	2.357863e+01	4.835491e+02
1.840000e-06	3.347168e-06	7.355485e-09	2.359055e+01	4.840158e+02
1.850000e-06	3.347771e-06	7.362740e-09	2.359480e+01	4.844616e+02
1.860000e-06	3.347558e-06	7.369855e-09	2.359330e+01	4.848337e+02
1.870000e-06	3.346483e-06	7.371714e-09	2.358572e+01	4.850659e+02
1.880000e-06	3.344520e-06	7.371544e-09	2.357189e+01	4.851111e+02
1.890000e-06	3.341706e-06	7.372929e-09	2.355205e+01	4.849676e+02
1.900000e-06	3.338168e-06	7.371650e-09	2.352712e+01	4.846864e+02
1.910000e-06	3.333976e-06	7.367826e-09	2.349757e+01	4.843506e+02
1.920000e-06	3.328832e-06	7.378029e-09	2.346132e+01	4.840365e+02
1.930000e-06	3.322519e-06	7.383845e-09	2.341683e+01	4.837735e+02
1.940000e-06	3.315112e-06	7.305869e-09	2.336462e+01	4.835255e+02
1.950000e-06	3.306469e-06	7.245273e-09	2.330370e+01	4.832050e+02
1.960000e-06	3.296411e-06	7.378693e-09	2.323282e+01	4.827153e+02
1.970000e-06	3.285479e-06	7.455815e-09	2.315577e+01	4.820024e+02
1.980000e-06	3.274482e-06	7.301641e-09	2.307827e+01	4.810871e+02
1.990000e-06	3.262864e-06	7.183404e-09	2.299638e+01	4.800614e+02
2.000000e-06	3.249434e-06	7.358983e-09	2.290173e+01	4.790464e+02
2.010000e-06	3.234616e-06	7.340868e-09	2.279729e+01	4.781330e+02
2.020000e-06	3.219346e-06	7.099285e-09	2.268967e+01	4.773343e+02
2.030000e-06	3.203250e-06	7.179551e-09	2.257623e+01	4.765755e+02
2.040000e-06	3.186038e-06	7.331528e-09	2.245492e+01	4.757275e+02
2.050000e-06	3.168231e-06	7.150434e-09	2.232942e+01	4.746671e+02
2.060000e-06	3.149800e-06	7.103456e-09	2.219952e+01	4.733343e+02
2.070000e-06	3.130472e-06	7.287973e-09	2.206330e+01	4.717578e+02
2.080000e-06	3.110527e-06	7.108626e-09	2.192273e+01	4.700357e+02
2.090000e-06	3.089677e-06	6.977340e-09	2.177577e+01	4.682846e+02
2.100000e-06	3.067338e-06	7.161462e-09	2.161833e+01	4.665831e+02
2.110000e-06	3.043916e-06	7.098304e-09	2.145325e+01	4.649396e+02
2.120000e-06	3.019792e-06	6.945233e-09	2.128323e+01	4.632978e+02
2.130000e-06	2.994790e-06	7.031195e-09	2.110702e+01	4.615739e+02
2.140000e-06	2.969024e-06	6.983561e-09	2.092542e+01	4.597024e+02
2.150000e-06	2.942575e-06	6.927892e-09	2.073902e+01	4.576656e+02
2.160000e-06	2.915334e-06	6.944315e-09	2.054702e+01	4.554930e+02
2.170000e-06	2.887391e-06	6.820127e-09	2.035008e+01	4.532353e+02
2.180000e-06	2.858536e-06	6.813842e-09	2.014671e+01	4.509319e+02
2.190000e-06	2.828398e-06	6.892802e-09	1.993430e+01	4.485913e+02
2.200000e-06	2.797225e-06	6.754174e-09	1.971460e+01	4.461942e+02
2.210000e-06	2.765291e-06	6.696557e-09	1.948953e+01	4.437135e+02
2.220000e-06	2.732616e-06	6.725839e-09	1.925924e+01	4.411359e+02
2.230000e-06	2.699271e-06	6.621121e-09	1.902423e+01	4.384698e+02
2.240000e-06	2.665102e-06	6.622945e-09	1.878341e+01	4.357352e+02
2.250000e-06	2.630203e-06	6.603217e-09	1.853744e+01	4.329446e+02
2.260000e-06	2.594824e-06	6.492450e-09	1.828810e+01	4.300893e+02
2.270000e-06	2.558898e-06	6.507512e-09	1.803489e+01	4.271418e+02
2.280000e-06	2.522223e-06	6.476791e-09	1.777641e+01	4.240752e+02
2.290000e-06	2.484533e-06	6.368943e-09	1.751077e+01	4.208846e+02
2.300000e-06	2.445781e-06	6.341289e-09	1.723765e+01	4.175967e+02
2.310000e-06	2.406331e-06	6.291016e-09	1.695961e+01	4.142574e+02
2.320000e-06	2.366451e-06	6.236236e-09	1.667854e+01	4.109042e+02
2.330000e-06	2.326037e-06	6.208041e-09	1.639371e+01	4.075390e+02
2.340000e-06	2.284981e-06	6.137962e-09	1.610435e+01	4.041199e+02
2.350000e-06	2.243292e-06	6.081348e-09	1.581053e+01	4.005791e+02
2.360000e-06	2.201075e-06	6.033057e-09	1.551298e+01	3.968586e+02
2.370000e-06	2.158315e-06	5.982145e-09	1.521161e+01	3.929440e+02
2.380000e-06	2.114968e-06	5.926016e-09	1.490611e+01	3.888746e+02
2.390000e-06	2.071196e-06	5.844895e-09	1.459761e+01	3.847250e+02
2.400000e-06	2.027078e-06	5.783652e-09	1.428667e+01	3.805648e+02
2.410000e-06	1.982418e-06	5.731257e-09	1.397191e+01	3.764205e+02
2.420000e-06	1.936951e-06	5.666581e-09	1.365146e+01	3.722605e+02
2.430000e-06	1.890829e-06	5.591288e-09	1.332640e+01	3.680113e+02
2.440000e-06	1.844320e-06	5.518435e-09	1.299860e+01	3.635964e+02
2.450000e-06	1.797290e-06	5.473518e-09	1.266715e+01	3.589749e+02
2.460000e-06	1.749695e-06	5.407180e-09	1.233170e+01	3.541597e+02
2.470000e-06	1.701549e-06	5.309292e-09	1.199237e+01	3.492058e+02
2.480000e-06	1.652754e-06	5.234124e-09	1.164846e+01	3.441779e+02
2.490000e-06	1.603406e-06	5.163210e-09	1.130067e+01	3.391160e+02
2.500000e-06	1.553647e-06	5.087016e-09	1.094997e+01	3.340195e+02
2.510000e-06	1.503527e-06	5.005430e-09	1.059673e+01	3.288556e+02
2.520000e-06	1.452959e-06	4.915676e-09	1.024033e+01	3.235844e+02
2.530000e-06	1.401882e-06	4.844044e-09	9.880345e+00	3.181830e+02
2.540000e-06	1.350365e-06	4.767341e-09	9.517253e+00	3.126551e+02
2.550000e-06	1.298395e-06	4.679131e-09	9.150976e+00	3.070199e+02
2.560000e-06	1.246005e-06	4.587612e-09	8.781734e+00	3.012917e+02
2.570000e-06	1.193169e-06	4.494852e-09	8.409349e+00	2.954651e+02
2.580000e-06	1.139776e-06	4.410669e-09	8.033045e+00	2.895154e+02
2.590000e-06	1.085774e-06	4.321339e-09	7.652440e+00	2.834153e+02
2.600000e-06	1.031183e-06	4.222702e-09	7.267687e+00	2.771553e+02
2.610000e-06	9.761946e-07	4.121309e-09	6.880135e+00	2.707525e+02
2.620000e-06	9.209667e-07	4.024896e-09	6.490894e+00	2.642415e+02
2.630000e-06	8.655117e-07	3.934743e-09	6.100051e+00	2.576508e+02
2.640000e-06	8.099219e-07	3.834817e-09	5.708259e+00	2.509805e+02
2.650000e-06	7.542385e-07	3.725786e-09	5.315807e+00	2.441953e+02
2.660000e-06	6.984481e-07	3.622540e-09	4.922602e+00	2.372409e+02
2.670000e-06	6.425468e-07	3.520533e-09	4.528614e+00	2.300736e+02
2.680000e-06	5.865301e-07	3.410084e-09	4.133813e+00	2.226873e+02
2.690000e-06	5.304258e-07	3.287840e-09	3.738395e+00	2.151205e+02
2.700000e-06	4.741935e-07	3.167249e-09	3.342074e+00	2.074387e+02
2.710000e-06	4.178135e-07	3.056516e-09	2.944713e+00	1.997003e+02
2.720000e-06	3.613544e-07	2.940563e-09	2.546794e+00	1.919245e+02
2.730000e-06	3.048539e-07	2.817893e-09	2.148584e+00	1.840805e+02
2.740000e-06	2.482821e-07	2.694042e-09	1.749870e+00	1.761015e+02
2.750000e-06	1.916098e-07	2.573254e-09	1.350449e+00	1.679173e+02
2.760000e-06	1.348463e-07	2.450396e-09	9.503851e-01	1.594857e+02
2.770000e-06	7.804867e-08	2.316698e-09	5.500803e-01	1.508076e+02
2.780000e-06	2.121897e-08	2.177707e-09	1.495494e-01	1.419190e+02
2.790000e-06	-3.561530e-08	2.040694e-09	-2.510135e-01	1.328666e+02
2.800000e-06	-9.241467e-08	1.906949e-09	-6.513306e-01	1.236824e+02
2.810000e-06	-1.492048e-07	1.769418e-09	-1.051582e+00	1.143722e+02
2.820000e-06	-2.059224e-07	1.624618e-09	-1.451323e+00	1.049198e+02
2.830000e-06	-2.625155e-07	1.477199e-09	-1.850186e+00	9.530410e+01
2.840000e-06	-3.190554e-07	1.330651e-09	-2.248675e+00	8.551340e+01
2.850000e-06	-3.755509e-07	1.180969e-09	-2.646850e+00	7.555027e+01
2.860000e-06	-4.319103e-07	1.024545e-09	-3.044066e+00	6.542378e+01
2.870000e-06	-4.881636e-07	8.657659e-10	-3.440535e+00	5.513735e+01
2.880000e-06	-5.443211e-07	7.089940e-10	-3.836328e+00	4.468209e+01
2.890000e-06	-6.003050e-07	5.510089e-10	-4.230898e+00	3.404180e+01
2.900000e-06	-6.561465e-07	3.851677e-10	-4.624463e+00	2.320680e+01
2.910000e-06	-7.118929e-07	2.138369e-10	-5.017359e+00	1.218766e+01
2.920000e-06	-7.675561e-07	4.255765e-11	-5.409669e+00	1.018560e+00
2.930000e-06	-8.231248e-07	-1.281139e-10	-5.801312e+00	-1.025337e+01
2.940000e-06	-8.785727e-07	-2.995164e-10	-6.192104e+00	-2.158754e+01
2.950000e-06	-9.337837e-07	-4.721515e-10	-6.581227e+00	-3.296706e+01
