# Temperatura_=_20.0
# Concentracion g/m^3_=_10000.0
# C_Vs_to_Am_M_A/Vsm_=_65563218390.804596
# pendiente_HvsI_1/m_=_3716.3
# ordenada_HvsI_A/m_=_1297.0
# frecuencia_Hz_=_269485.28082176944

Tiempo_(s)	Campo_(V.s)	Magnetizacion_(V.s)	Campo_(kA/m)	Magnetizacion_(A/m)
0.000000e+00	-3.333260e-06	-7.387240e-09	-2.347866e+01	-4.823456e+02
1.000000e-08	-3.332861e-06	-7.388763e-09	-2.347585e+01	-4.824435e+02
2.000000e-08	-3.331680e-06	-7.387094e-09	-2.346753e+01	-4.824294e+02
3.000000e-08	-3.329291e-06	-7.382997e-09	-2.345071e+01	-4.823193e+02
4.000000e-08	-3.325754e-06	-7.377903e-09	-2.342579e+01	-4.821367e+02
5.000000e-08	-3.321425e-06	-7.372919e-09	-2.339529e+01	-4.819066e+02
6.000000e-08	-3.316316e-06	-7.364265e-09	-2.335931e+01	-4.816447e+02
7.000000e-08	-3.310287e-06	-7.347083e-09	-2.331684e+01	-4.813462e+02
8.000000e-08	-3.303260e-06	-7.351726e-09	-2.326735e+01	-4.809827e+02
9.000000e-08	-3.295235e-06	-7.398654e-09	-2.321082e+01	-4.805117e+02
1.000000e-07	-3.286076e-06	-7.401479e-09	-2.314631e+01	-4.798973e+02
1.100000e-07	-3.275718e-06	-7.273953e-09	-2.307335e+01	-4.791338e+02
1.200000e-07	-3.264442e-06	-7.220716e-09	-2.299392e+01	-4.782577e+02
1.300000e-07	-3.252316e-06	-7.344719e-09	-2.290851e+01	-4.773388e+02
1.400000e-07	-3.239176e-06	-7.366208e-09	-2.281596e+01	-4.764511e+02
1.500000e-07	-3.225218e-06	-7.211786e-09	-2.271764e+01	-4.756370e+02
1.600000e-07	-3.210434e-06	-7.253701e-09	-2.261351e+01	-4.748814e+02
1.700000e-07	-3.194203e-06	-7.369626e-09	-2.249918e+01	-4.741125e+02
1.800000e-07	-3.176743e-06	-7.234332e-09	-2.237619e+01	-4.732296e+02
1.900000e-07	-3.158775e-06	-7.163389e-09	-2.224963e+01	-4.721461e+02
2.000000e-07	-3.140110e-06	-7.265921e-09	-2.211816e+01	-4.708270e+02
2.100000e-07	-3.120461e-06	-7.174231e-09	-2.197976e+01	-4.693022e+02
2.200000e-07	-3.100134e-06	-7.058889e-09	-2.183658e+01	-4.676480e+02
2.300000e-07	-3.079132e-06	-7.194982e-09	-2.168864e+01	-4.659495e+02
2.400000e-07	-3.057184e-06	-7.159017e-09	-2.153405e+01	-4.642607e+02
2.500000e-07	-3.034411e-06	-6.986465e-09	-2.137364e+01	-4.625840e+02
2.600000e-07	-3.010823e-06	-7.037914e-09	-2.120749e+01	-4.608778e+02
2.700000e-07	-2.986470e-06	-7.077063e-09	-2.103596e+01	-4.590844e+02
2.800000e-07	-2.961509e-06	-6.963761e-09	-2.086014e+01	-4.571625e+02
2.900000e-07	-2.935494e-06	-6.949331e-09	-2.067690e+01	-4.551072e+02
3.000000e-07	-2.908123e-06	-6.941293e-09	-2.048410e+01	-4.529469e+02
3.100000e-07	-2.879885e-06	-6.878913e-09	-2.028520e+01	-4.507228e+02
3.200000e-07	-2.851055e-06	-6.881154e-09	-2.008213e+01	-4.484644e+02
3.300000e-07	-2.821438e-06	-6.835642e-09	-1.987352e+01	-4.461739e+02
3.400000e-07	-2.790915e-06	-6.747951e-09	-1.965852e+01	-4.438288e+02
3.500000e-07	-2.759517e-06	-6.737782e-09	-1.943736e+01	-4.413968e+02
3.600000e-07	-2.727463e-06	-6.729292e-09	-1.921158e+01	-4.388546e+02
3.700000e-07	-2.694888e-06	-6.673407e-09	-1.898212e+01	-4.361986e+02
3.800000e-07	-2.661482e-06	-6.626358e-09	-1.874682e+01	-4.334422e+02
3.900000e-07	-2.626954e-06	-6.566635e-09	-1.850362e+01	-4.306054e+02
4.000000e-07	-2.591442e-06	-6.537881e-09	-1.825348e+01	-4.277019e+02
4.100000e-07	-2.555236e-06	-6.514817e-09	-1.799845e+01	-4.247345e+02
4.200000e-07	-2.518454e-06	-6.437842e-09	-1.773937e+01	-4.216983e+02
4.300000e-07	-2.481008e-06	-6.376397e-09	-1.747561e+01	-4.185886e+02
4.400000e-07	-2.442826e-06	-6.355810e-09	-1.720667e+01	-4.154065e+02
4.500000e-07	-2.403942e-06	-6.317248e-09	-1.693278e+01	-4.121578e+02
4.600000e-07	-2.364432e-06	-6.255072e-09	-1.665447e+01	-4.088457e+02
4.700000e-07	-2.324424e-06	-6.196741e-09	-1.637267e+01	-4.054627e+02
4.800000e-07	-2.284034e-06	-6.139288e-09	-1.608818e+01	-4.019893e+02
4.900000e-07	-2.243065e-06	-6.092715e-09	-1.579959e+01	-3.984002e+02
5.000000e-07	-2.201191e-06	-6.043432e-09	-1.550465e+01	-3.946770e+02
5.100000e-07	-2.158273e-06	-5.975768e-09	-1.520234e+01	-3.908190e+02
5.200000e-07	-2.114567e-06	-5.901539e-09	-1.489449e+01	-3.868464e+02
5.300000e-07	-2.070444e-06	-5.845873e-09	-1.458370e+01	-3.827930e+02
5.400000e-07	-2.025879e-06	-5.797462e-09	-1.426979e+01	-3.786910e+02
5.500000e-07	-1.980739e-06	-5.730642e-09	-1.395184e+01	-3.745569e+02
5.600000e-07	-1.935053e-06	-5.655569e-09	-1.363003e+01	-3.703827e+02
5.700000e-07	-1.888852e-06	-5.592099e-09	-1.330461e+01	-3.661392e+02
5.800000e-07	-1.842092e-06	-5.541319e-09	-1.297524e+01	-3.617866e+02
5.900000e-07	-1.794796e-06	-5.473539e-09	-1.264210e+01	-3.572891e+02
6.000000e-07	-1.747055e-06	-5.386105e-09	-1.230582e+01	-3.526272e+02
6.100000e-07	-1.698929e-06	-5.305802e-09	-1.196683e+01	-3.478036e+02
6.200000e-07	-1.650366e-06	-5.240445e-09	-1.162477e+01	-3.428405e+02
6.300000e-07	-1.601236e-06	-5.167347e-09	-1.127871e+01	-3.377723e+02
6.400000e-07	-1.551384e-06	-5.080395e-09	-1.092757e+01	-3.326329e+02
6.500000e-07	-1.500705e-06	-4.996529e-09	-1.057060e+01	-3.274445e+02
6.600000e-07	-1.449278e-06	-4.922533e-09	-1.020836e+01	-3.222081e+02
6.700000e-07	-1.397347e-06	-4.848969e-09	-9.842566e+00	-3.169016e+02
6.800000e-07	-1.345020e-06	-4.763316e-09	-9.473992e+00	-3.114852e+02
6.900000e-07	-1.292322e-06	-4.670064e-09	-9.102796e+00	-3.059155e+02
7.000000e-07	-1.239264e-06	-4.577722e-09	-8.729069e+00	-3.001631e+02
7.100000e-07	-1.185772e-06	-4.491869e-09	-8.352286e+00	-2.942266e+02
7.200000e-07	-1.131905e-06	-4.401548e-09	-7.972861e+00	-2.881359e+02
7.300000e-07	-1.077791e-06	-4.301170e-09	-7.591690e+00	-2.819420e+02
7.400000e-07	-1.023377e-06	-4.202339e-09	-7.208412e+00	-2.756942e+02
7.500000e-07	-9.686770e-07	-4.111787e-09	-6.823122e+00	-2.694167e+02
7.600000e-07	-9.137366e-07	-4.020784e-09	-6.436135e+00	-2.630942e+02
7.700000e-07	-8.585043e-07	-3.917066e-09	-6.047092e+00	-2.566753e+02
7.800000e-07	-8.030381e-07	-3.806314e-09	-5.656402e+00	-2.500941e+02
7.900000e-07	-7.473898e-07	-3.699490e-09	-5.264429e+00	-2.432987e+02
8.000000e-07	-6.915429e-07	-3.595726e-09	-4.871058e+00	-2.362750e+02
8.100000e-07	-6.355323e-07	-3.483257e-09	-4.476533e+00	-2.290521e+02
8.200000e-07	-5.794430e-07	-3.363325e-09	-4.081454e+00	-2.216869e+02
8.300000e-07	-5.233097e-07	-3.248751e-09	-3.686065e+00	-2.142360e+02
8.400000e-07	-4.670948e-07	-3.140133e-09	-3.290100e+00	-2.067287e+02
8.500000e-07	-4.108274e-07	-3.027386e-09	-2.893767e+00	-1.991537e+02
8.600000e-07	-3.545425e-07	-2.904292e-09	-2.497310e+00	-1.914657e+02
8.700000e-07	-2.982443e-07	-2.778659e-09	-2.100759e+00	-1.836076e+02
8.800000e-07	-2.419127e-07	-2.655308e-09	-1.703973e+00	-1.755349e+02
8.900000e-07	-1.855384e-07	-2.530555e-09	-1.306887e+00	-1.672326e+02
9.000000e-07	-1.291742e-07	-2.398986e-09	-9.098714e-01	-1.587155e+02
9.100000e-07	-7.275890e-08	-2.261761e-09	-5.124958e-01	-1.500164e+02
9.200000e-07	-1.631474e-08	-2.125429e-09	-1.149170e-01	-1.411690e+02
9.300000e-07	4.007385e-08	-1.990495e-09	2.822703e-01	-1.321942e+02
9.400000e-07	9.645321e-08	-1.851895e-09	6.793926e-01	-1.230962e+02
9.500000e-07	1.528279e-07	-1.707205e-09	1.076482e+00	-1.138659e+02
9.600000e-07	2.092290e-07	-1.559969e-09	1.473757e+00	-1.044879e+02
9.700000e-07	2.656197e-07	-1.412680e-09	1.870959e+00	-9.494587e+01
9.800000e-07	3.219342e-07	-1.264697e-09	2.267625e+00	-8.522554e+01
9.900000e-07	3.782184e-07	-1.112859e-09	2.664077e+00	-7.531582e+01
1.000000e-06	4.344802e-07	-9.577230e-10	3.060372e+00	-6.521121e+01
1.010000e-06	4.906976e-07	-8.025002e-10	3.456353e+00	-5.491522e+01
1.020000e-06	5.468619e-07	-6.465060e-10	3.851960e+00	-4.444252e+01
1.030000e-06	6.029733e-07	-4.840663e-10	4.247195e+00	-3.381637e+01
1.040000e-06	6.589903e-07	-3.151793e-10	4.641765e+00	-2.306041e+01
1.050000e-06	7.148944e-07	-1.457908e-10	5.035539e+00	-1.218792e+01
1.060000e-06	7.706416e-07	2.124248e-11	5.428209e+00	-1.195008e+00
1.070000e-06	8.261251e-07	1.893282e-10	5.819021e+00	9.936775e+00
1.080000e-06	8.813227e-07	3.619740e-10	6.207820e+00	2.122766e+01
1.090000e-06	9.362871e-07	5.357013e-10	6.594976e+00	3.268267e+01
1.100000e-06	9.910025e-07	7.095183e-10	6.980377e+00	4.427996e+01
1.110000e-06	1.045429e-06	8.865887e-10	7.363741e+00	5.597215e+01
1.120000e-06	1.099627e-06	1.068505e-09	7.745500e+00	6.770142e+01
1.130000e-06	1.153529e-06	1.250363e-09	8.125174e+00	7.942089e+01
1.140000e-06	1.207027e-06	1.427678e-09	8.501997e+00	9.111035e+01
1.150000e-06	1.260084e-06	1.602168e-09	8.875722e+00	1.027773e+02
1.160000e-06	1.312794e-06	1.777049e-09	9.246996e+00	1.144420e+02
1.170000e-06	1.365183e-06	1.955072e-09	9.616011e+00	1.261163e+02
1.180000e-06	1.417132e-06	2.132467e-09	9.981931e+00	1.377866e+02
1.190000e-06	1.468535e-06	2.307677e-09	1.034400e+01	1.494135e+02
1.200000e-06	1.519242e-06	2.483096e-09	1.070117e+01	1.609464e+02
1.210000e-06	1.569210e-06	2.657958e-09	1.105313e+01	1.723447e+02
1.220000e-06	1.618497e-06	2.829382e-09	1.140030e+01	1.835914e+02
1.230000e-06	1.667221e-06	2.996914e-09	1.174349e+01	1.946923e+02
1.240000e-06	1.715559e-06	3.162995e-09	1.208397e+01	2.056593e+02
1.250000e-06	1.763589e-06	3.328562e-09	1.242229e+01	2.164907e+02
1.260000e-06	1.811187e-06	3.493211e-09	1.275755e+01	2.271597e+02
1.270000e-06	1.858186e-06	3.652748e-09	1.308860e+01	2.376217e+02
1.280000e-06	1.904607e-06	3.806731e-09	1.341558e+01	2.478337e+02
1.290000e-06	1.950496e-06	3.959484e-09	1.373881e+01	2.577759e+02
1.300000e-06	1.995820e-06	4.109399e-09	1.405807e+01	2.674603e+02
1.310000e-06	2.040648e-06	4.254185e-09	1.437382e+01	2.769195e+02
1.320000e-06	2.085094e-06	4.394641e-09	1.468689e+01	2.861821e+02
1.330000e-06	2.129241e-06	4.532976e-09	1.499785e+01	2.952487e+02
1.340000e-06	2.172935e-06	4.669282e-09	1.530562e+01	3.040840e+02
1.350000e-06	2.215817e-06	4.801160e-09	1.560767e+01	3.126307e+02
1.360000e-06	2.257702e-06	4.924632e-09	1.590270e+01	3.208383e+02
1.370000e-06	2.298717e-06	5.039554e-09	1.619159e+01	3.286905e+02
1.380000e-06	2.339107e-06	5.150246e-09	1.647609e+01	3.362145e+02
1.390000e-06	2.379011e-06	5.258037e-09	1.675717e+01	3.434662e+02
1.400000e-06	2.418358e-06	5.364183e-09	1.703432e+01	3.505003e+02
1.410000e-06	2.457058e-06	5.469468e-09	1.730691e+01	3.573410e+02
1.420000e-06	2.495085e-06	5.572482e-09	1.757476e+01	3.639721e+02
1.430000e-06	2.532373e-06	5.671297e-09	1.783741e+01	3.703500e+02
1.440000e-06	2.569009e-06	5.764051e-09	1.809547e+01	3.764345e+02
1.450000e-06	2.605147e-06	5.848641e-09	1.835001e+01	3.822161e+02
1.460000e-06	2.640643e-06	5.927669e-09	1.860004e+01	3.877270e+02
1.470000e-06	2.675217e-06	6.005310e-09	1.884357e+01	3.930276e+02
1.480000e-06	2.708700e-06	6.082256e-09	1.907942e+01	3.981776e+02
1.490000e-06	2.741288e-06	6.159004e-09	1.930896e+01	4.032081e+02
1.500000e-06	2.773242e-06	6.235785e-09	1.953403e+01	4.081102e+02
1.510000e-06	2.804494e-06	6.310752e-09	1.975416e+01	4.128457e+02
1.520000e-06	2.834982e-06	6.381861e-09	1.996891e+01	4.173721e+02
1.530000e-06	2.864669e-06	6.447612e-09	2.017802e+01	4.216672e+02
1.540000e-06	2.893551e-06	6.507608e-09	2.038146e+01	4.257403e+02
1.550000e-06	2.921842e-06	6.564351e-09	2.058073e+01	4.296243e+02
1.560000e-06	2.949494e-06	6.619548e-09	2.077551e+01	4.333572e+02
1.570000e-06	2.976028e-06	6.673817e-09	2.096241e+01	4.369632e+02
1.580000e-06	3.001278e-06	6.726936e-09	2.114026e+01	4.404453e+02
1.590000e-06	3.025581e-06	6.777671e-09	2.131144e+01	4.437914e+02
1.600000e-06	3.049139e-06	6.824694e-09	2.147739e+01	4.469868e+02
1.610000e-06	3.071897e-06	6.869770e-09	2.163769e+01	4.500252e+02
1.620000e-06	3.093831e-06	6.912508e-09	2.179218e+01	4.529095e+02
1.630000e-06	3.114986e-06	6.950192e-09	2.194119e+01	4.556454e+02
1.640000e-06	3.135469e-06	6.984132e-09	2.208547e+01	4.582327e+02
1.650000e-06	3.155342e-06	7.017098e-09	2.222545e+01	4.606633e+02
1.660000e-06	3.174398e-06	7.051222e-09	2.235968e+01	4.629278e+02
1.670000e-06	3.192394e-06	7.082583e-09	2.248644e+01	4.650272e+02
1.680000e-06	3.209443e-06	7.109344e-09	2.260652e+01	4.669803e+02
1.690000e-06	3.225578e-06	7.134958e-09	2.272017e+01	4.688209e+02
1.700000e-06	3.240633e-06	7.160593e-09	2.282622e+01	4.705836e+02
1.710000e-06	3.254710e-06	7.185109e-09	2.292538e+01	4.722863e+02
1.720000e-06	3.267941e-06	7.206086e-09	2.301857e+01	4.739195e+02
1.730000e-06	3.280328e-06	7.224849e-09	2.310582e+01	4.754492e+02
1.740000e-06	3.291719e-06	7.244050e-09	2.318606e+01	4.768330e+02
1.750000e-06	3.301721e-06	7.261958e-09	2.325651e+01	4.780421e+02
1.760000e-06	3.310485e-06	7.276585e-09	2.331824e+01	4.790752e+02
1.770000e-06	3.318442e-06	7.288890e-09	2.337428e+01	4.799604e+02
1.780000e-06	3.325578e-06	7.300091e-09	2.342455e+01	4.807419e+02
1.790000e-06	3.331811e-06	7.310719e-09	2.346845e+01	4.814610e+02
1.800000e-06	3.337074e-06	7.320281e-09	2.350552e+01	4.821409e+02
1.810000e-06	3.341530e-06	7.328184e-09	2.353691e+01	4.827816e+02
1.820000e-06	3.345245e-06	7.336327e-09	2.356308e+01	4.833653e+02
1.830000e-06	3.347893e-06	7.344641e-09	2.358174e+01	4.838675e+02
1.840000e-06	3.349322e-06	7.350908e-09	2.359180e+01	4.842671e+02
1.850000e-06	3.349748e-06	7.354302e-09	2.359480e+01	4.845507e+02
1.860000e-06	3.349333e-06	7.354693e-09	2.359187e+01	4.847139e+02
1.870000e-06	3.348062e-06	7.353492e-09	2.358292e+01	4.847598e+02
1.880000e-06	3.345965e-06	7.353706e-09	2.356815e+01	4.846999e+02
1.890000e-06	3.343077e-06	7.355793e-09	2.354781e+01	4.845542e+02
1.900000e-06	3.339461e-06	7.356137e-09	2.352234e+01	4.843478e+02
1.910000e-06	3.335055e-06	7.355498e-09	2.349130e+01	4.841030e+02
1.920000e-06	3.329598e-06	7.364750e-09	2.345287e+01	4.838272e+02
1.930000e-06	3.322998e-06	7.358214e-09	2.340638e+01	4.835045e+02
1.940000e-06	3.315368e-06	7.285984e-09	2.335264e+01	4.830980e+02
1.950000e-06	3.306466e-06	7.249275e-09	2.328993e+01	4.825652e+02
1.960000e-06	3.296104e-06	7.362681e-09	2.321694e+01	4.818815e+02
1.970000e-06	3.285053e-06	7.400912e-09	2.313910e+01	4.810602e+02
1.980000e-06	3.273961e-06	7.260251e-09	2.306098e+01	4.801555e+02
1.990000e-06	3.261993e-06	7.205483e-09	2.297667e+01	4.792436e+02
2.000000e-06	3.248193e-06	7.336120e-09	2.287947e+01	4.783883e+02
2.010000e-06	3.233164e-06	7.273548e-09	2.277361e+01	4.776074e+02
2.020000e-06	3.217688e-06	7.112428e-09	2.266460e+01	4.768581e+02
2.030000e-06	3.201353e-06	7.217520e-09	2.254954e+01	4.760505e+02
2.040000e-06	3.183975e-06	7.296539e-09	2.242713e+01	4.750847e+02
2.050000e-06	3.166032e-06	7.127598e-09	2.230075e+01	4.738944e+02
2.060000e-06	3.147401e-06	7.148434e-09	2.216952e+01	4.724746e+02
2.070000e-06	3.127858e-06	7.275815e-09	2.203186e+01	4.708802e+02
2.080000e-06	3.107637e-06	7.078119e-09	2.188943e+01	4.691971e+02
2.090000e-06	3.086368e-06	7.017210e-09	2.173961e+01	4.675001e+02
2.100000e-06	3.063687e-06	7.173970e-09	2.157985e+01	4.658204e+02
2.110000e-06	3.040129e-06	7.067563e-09	2.141392e+01	4.641380e+02
2.120000e-06	3.015861e-06	6.951792e-09	2.124298e+01	4.623995e+02
2.130000e-06	2.990653e-06	7.037233e-09	2.106542e+01	4.605511e+02
2.140000e-06	2.964742e-06	6.977779e-09	2.088291e+01	4.585672e+02
2.150000e-06	2.938156e-06	6.920973e-09	2.069565e+01	4.564596e+02
2.160000e-06	2.910725e-06	6.935770e-09	2.050243e+01	4.542659e+02
2.170000e-06	2.882534e-06	6.832680e-09	2.030386e+01	4.520247e+02
2.180000e-06	2.853257e-06	6.820924e-09	2.009764e+01	4.497539e+02
2.190000e-06	2.822716e-06	6.869324e-09	1.988252e+01	4.474430e+02
2.200000e-06	2.791342e-06	6.756640e-09	1.966153e+01	4.450627e+02
2.210000e-06	2.759280e-06	6.708931e-09	1.943569e+01	4.425828e+02
2.220000e-06	2.726441e-06	6.712389e-09	1.920438e+01	4.399885e+02
2.230000e-06	2.692892e-06	6.633817e-09	1.896807e+01	4.372849e+02
2.240000e-06	2.658573e-06	6.623413e-09	1.872633e+01	4.344902e+02
2.250000e-06	2.623575e-06	6.579893e-09	1.847981e+01	4.316225e+02
2.260000e-06	2.588103e-06	6.499517e-09	1.822996e+01	4.286908e+02
2.270000e-06	2.551990e-06	6.506354e-09	1.797559e+01	4.256935e+02
2.280000e-06	2.514971e-06	6.459237e-09	1.771484e+01	4.226247e+02
2.290000e-06	2.476885e-06	6.370837e-09	1.744657e+01	4.194820e+02
2.300000e-06	2.437886e-06	6.336177e-09	1.717187e+01	4.162695e+02
2.310000e-06	2.398357e-06	6.284560e-09	1.689344e+01	4.129926e+02
2.320000e-06	2.358354e-06	6.237269e-09	1.661166e+01	4.096505e+02
2.330000e-06	2.317713e-06	6.193340e-09	1.632540e+01	4.062299e+02
2.340000e-06	2.276451e-06	6.126654e-09	1.603476e+01	4.027073e+02
2.350000e-06	2.234651e-06	6.074243e-09	1.574033e+01	3.990589e+02
2.360000e-06	2.192295e-06	6.021272e-09	1.544199e+01	3.952735e+02
2.370000e-06	2.149360e-06	5.972994e-09	1.513956e+01	3.913602e+02
2.380000e-06	2.105974e-06	5.910669e-09	1.483396e+01	3.873469e+02
2.390000e-06	2.062209e-06	5.829250e-09	1.452569e+01	3.832687e+02
2.400000e-06	2.017964e-06	5.774853e-09	1.421404e+01	3.791521e+02
2.410000e-06	1.973053e-06	5.717872e-09	1.389770e+01	3.750028e+02
2.420000e-06	1.927383e-06	5.644164e-09	1.357601e+01	3.708023e+02
2.430000e-06	1.881171e-06	5.567828e-09	1.325050e+01	3.665147e+02
2.440000e-06	1.834604e-06	5.500092e-09	1.292250e+01	3.621001e+02
2.450000e-06	1.787500e-06	5.453564e-09	1.259071e+01	3.575292e+02
2.460000e-06	1.739808e-06	5.383380e-09	1.225478e+01	3.527923e+02
2.470000e-06	1.691517e-06	5.290832e-09	1.191463e+01	3.479019e+02
2.480000e-06	1.642583e-06	5.219176e-09	1.156995e+01	3.428869e+02
2.490000e-06	1.593176e-06	5.147432e-09	1.122194e+01	3.377830e+02
2.500000e-06	1.543328e-06	5.065945e-09	1.087082e+01	3.326204e+02
2.510000e-06	1.493060e-06	4.978529e-09	1.051675e+01	3.274120e+02
2.520000e-06	1.442331e-06	4.891699e-09	1.015942e+01	3.221484e+02
2.530000e-06	1.391096e-06	4.818500e-09	9.798539e+00	3.167978e+02
2.540000e-06	1.339514e-06	4.740450e-09	9.435206e+00	3.113169e+02
2.550000e-06	1.287583e-06	4.654990e-09	9.069418e+00	3.056666e+02
2.560000e-06	1.235100e-06	4.563305e-09	8.699739e+00	2.998288e+02
2.570000e-06	1.182006e-06	4.470962e-09	8.325760e+00	2.938170e+02
2.580000e-06	1.128344e-06	4.384226e-09	7.947773e+00	2.876729e+02
2.590000e-06	1.074088e-06	4.289777e-09	7.565611e+00	2.814500e+02
2.600000e-06	1.019296e-06	4.188532e-09	7.179673e+00	2.751886e+02
2.610000e-06	9.641689e-07	4.087970e-09	6.791368e+00	2.688957e+02
2.620000e-06	9.088689e-07	3.994968e-09	6.401848e+00	2.625377e+02
2.630000e-06	8.534238e-07	3.905975e-09	6.011307e+00	2.560533e+02
2.640000e-06	7.978563e-07	3.804520e-09	5.619903e+00	2.493792e+02
2.650000e-06	7.421521e-07	3.697503e-09	5.227536e+00	2.424790e+02
2.660000e-06	6.863354e-07	3.596208e-09	4.834377e+00	2.353590e+02
2.670000e-06	6.303899e-07	3.492051e-09	4.440311e+00	2.280639e+02
2.680000e-06	5.742763e-07	3.377857e-09	4.045060e+00	2.206543e+02
2.690000e-06	5.180712e-07	3.255892e-09	3.649166e+00	2.131771e+02
2.700000e-06	4.617387e-07	3.139417e-09	3.252373e+00	2.056434e+02
2.710000e-06	4.052582e-07	3.029381e-09	2.854539e+00	1.980243e+02
2.720000e-06	3.486675e-07	2.911554e-09	2.455928e+00	1.902661e+02
2.730000e-06	2.919971e-07	2.788468e-09	2.056755e+00	1.823144e+02
2.740000e-06	2.352730e-07	2.667185e-09	1.657205e+00	1.741371e+02
2.750000e-06	1.785000e-07	2.546840e-09	1.257310e+00	1.657338e+02
2.760000e-06	1.216908e-07	2.420777e-09	8.571597e-01	1.571296e+02
2.770000e-06	6.484842e-08	2.285733e-09	4.567763e-01	1.483597e+02
2.780000e-06	7.926223e-09	2.147949e-09	5.583036e-02	1.394532e+02
2.790000e-06	-4.897752e-08	2.011706e-09	-3.449855e-01	1.304231e+02
2.800000e-06	-1.058022e-07	1.877235e-09	-7.452447e-01	1.212669e+02
2.810000e-06	-1.625912e-07	1.739481e-09	-1.145252e+00	1.119718e+02
2.820000e-06	-2.193508e-07	1.595390e-09	-1.545053e+00	1.025213e+02
2.830000e-06	-2.761175e-07	1.448507e-09	-1.944904e+00	9.290002e+01
2.840000e-06	-3.328208e-07	1.302189e-09	-2.344308e+00	8.309480e+01
2.850000e-06	-3.893917e-07	1.152239e-09	-2.742779e+00	7.309678e+01
2.860000e-06	-4.458290e-07	9.945706e-10	-3.140310e+00	6.290416e+01
2.870000e-06	-5.021725e-07	8.340752e-10	-3.537180e+00	5.252550e+01
2.880000e-06	-5.583330e-07	6.756681e-10	-3.932760e+00	4.198011e+01
2.890000e-06	-6.142695e-07	5.170096e-10	-4.326763e+00	3.129272e+01
2.900000e-06	-6.700514e-07	3.530373e-10	-4.719677e+00	2.048347e+01
2.910000e-06	-7.257273e-07	1.836713e-10	-5.111844e+00	9.558143e+00
2.920000e-06	-7.813160e-07	1.421510e-11	-5.503397e+00	-1.494837e+00
2.930000e-06	-8.368025e-07	-1.543087e-10	-5.894230e+00	-1.269676e+01
2.940000e-06	-8.921830e-07	-3.273652e-10	-6.284317e+00	-2.406292e+01
2.950000e-06	-9.474275e-07	-5.049176e-10	-6.673446e+00	-3.558681e+01
