# Temperatura_=_20.0
# Concentracion g/m^3_=_10000.0
# C_Vs_to_Am_M_A/Vsm_=_65563218390.804596
# pendiente_HvsI_1/m_=_3716.3
# ordenada_HvsI_A/m_=_1297.0
# frecuencia_Hz_=_269490.4994198509

Tiempo_(s)	Campo_(V.s)	Magnetizacion_(V.s)	Campo_(kA/m)	Magnetizacion_(A/m)
0.000000e+00	-3.329921e-06	-7.391077e-09	-2.347439e+01	-4.814451e+02
1.000000e-08	-3.329358e-06	-7.390538e-09	-2.347042e+01	-4.815881e+02
2.000000e-08	-3.327937e-06	-7.386140e-09	-2.346040e+01	-4.815399e+02
3.000000e-08	-3.325274e-06	-7.379098e-09	-2.344163e+01	-4.813279e+02
4.000000e-08	-3.321502e-06	-7.375258e-09	-2.341504e+01	-4.810279e+02
5.000000e-08	-3.317005e-06	-7.371105e-09	-2.338334e+01	-4.807294e+02
6.000000e-08	-3.311756e-06	-7.357391e-09	-2.334634e+01	-4.804872e+02
7.000000e-08	-3.305546e-06	-7.339295e-09	-2.330256e+01	-4.802859e+02
8.000000e-08	-3.298261e-06	-7.382117e-09	-2.325120e+01	-4.800394e+02
9.000000e-08	-3.289849e-06	-7.456023e-09	-2.319190e+01	-4.796327e+02
1.000000e-07	-3.280265e-06	-7.389670e-09	-2.312434e+01	-4.789841e+02
1.100000e-07	-3.269584e-06	-7.191038e-09	-2.304905e+01	-4.780977e+02
1.200000e-07	-3.257997e-06	-7.239420e-09	-2.296737e+01	-4.770730e+02
1.300000e-07	-3.245527e-06	-7.440988e-09	-2.287945e+01	-4.760635e+02
1.400000e-07	-3.232122e-06	-7.324766e-09	-2.278496e+01	-4.752018e+02
1.500000e-07	-3.218002e-06	-7.136142e-09	-2.268541e+01	-4.745307e+02
1.600000e-07	-3.202884e-06	-7.312839e-09	-2.257884e+01	-4.739763e+02
1.700000e-07	-3.186203e-06	-7.392649e-09	-2.246125e+01	-4.733798e+02
1.800000e-07	-3.168561e-06	-7.143446e-09	-2.233688e+01	-4.725711e+02
1.900000e-07	-3.150528e-06	-7.170947e-09	-2.220975e+01	-4.714480e+02
2.000000e-07	-3.131663e-06	-7.288624e-09	-2.207677e+01	-4.700186e+02
2.100000e-07	-3.111846e-06	-7.083906e-09	-2.193706e+01	-4.683872e+02
2.200000e-07	-3.091380e-06	-7.070170e-09	-2.179279e+01	-4.666934e+02
2.300000e-07	-3.070139e-06	-7.253367e-09	-2.164305e+01	-4.650395e+02
2.400000e-07	-3.047995e-06	-7.084658e-09	-2.148695e+01	-4.634442e+02
2.500000e-07	-3.025002e-06	-6.956446e-09	-2.132485e+01	-4.618462e+02
2.600000e-07	-3.001151e-06	-7.084363e-09	-2.115672e+01	-4.601500e+02
2.700000e-07	-2.976618e-06	-7.042480e-09	-2.098377e+01	-4.582851e+02
2.800000e-07	-2.951343e-06	-6.936451e-09	-2.080559e+01	-4.562444e+02
2.900000e-07	-2.924820e-06	-6.958590e-09	-2.061862e+01	-4.540814e+02
3.000000e-07	-2.897092e-06	-6.913294e-09	-2.042315e+01	-4.518718e+02
3.100000e-07	-2.868683e-06	-6.882305e-09	-2.022288e+01	-4.496653e+02
3.200000e-07	-2.839637e-06	-6.898096e-09	-2.001812e+01	-4.474570e+02
3.300000e-07	-2.809766e-06	-6.776801e-09	-1.980754e+01	-4.451941e+02
3.400000e-07	-2.779018e-06	-6.724265e-09	-1.959079e+01	-4.428114e+02
3.500000e-07	-2.747484e-06	-6.756719e-09	-1.936848e+01	-4.402723e+02
3.600000e-07	-2.715351e-06	-6.703994e-09	-1.914196e+01	-4.375900e+02
3.700000e-07	-2.682640e-06	-6.659702e-09	-1.891136e+01	-4.348170e+02
3.800000e-07	-2.649070e-06	-6.616451e-09	-1.867471e+01	-4.320116e+02
3.900000e-07	-2.614338e-06	-6.541489e-09	-1.842986e+01	-4.292025e+02
4.000000e-07	-2.578615e-06	-6.537778e-09	-1.817803e+01	-4.263736e+02
4.100000e-07	-2.542330e-06	-6.513926e-09	-1.792225e+01	-4.234766e+02
4.200000e-07	-2.505519e-06	-6.400879e-09	-1.766274e+01	-4.204627e+02
4.300000e-07	-2.467980e-06	-6.366644e-09	-1.739811e+01	-4.173121e+02
4.400000e-07	-2.429648e-06	-6.363138e-09	-1.712789e+01	-4.140432e+02
4.500000e-07	-2.390575e-06	-6.298653e-09	-1.685244e+01	-4.106980e+02
4.600000e-07	-2.350899e-06	-6.232008e-09	-1.657275e+01	-4.073134e+02
4.700000e-07	-2.310824e-06	-6.181327e-09	-1.629023e+01	-4.038967e+02
4.800000e-07	-2.270317e-06	-6.124705e-09	-1.600468e+01	-4.004218e+02
4.900000e-07	-2.229148e-06	-6.079546e-09	-1.571445e+01	-3.968458e+02
5.000000e-07	-2.187051e-06	-6.031422e-09	-1.541769e+01	-3.931355e+02
5.100000e-07	-2.143929e-06	-5.951947e-09	-1.511370e+01	-3.892860e+02
5.200000e-07	-2.100117e-06	-5.882739e-09	-1.480485e+01	-3.853210e+02
5.300000e-07	-2.055900e-06	-5.833404e-09	-1.449314e+01	-3.812752e+02
5.400000e-07	-2.011212e-06	-5.784325e-09	-1.417811e+01	-3.771713e+02
5.500000e-07	-1.965973e-06	-5.711813e-09	-1.385919e+01	-3.730063e+02
5.600000e-07	-1.920219e-06	-5.631018e-09	-1.353665e+01	-3.687558e+02
5.700000e-07	-1.873948e-06	-5.571002e-09	-1.321046e+01	-3.643912e+02
5.800000e-07	-1.827063e-06	-5.521682e-09	-1.287994e+01	-3.598987e+02
5.900000e-07	-1.779599e-06	-5.441268e-09	-1.254534e+01	-3.552866e+02
6.000000e-07	-1.731729e-06	-5.342631e-09	-1.220788e+01	-3.505767e+02
6.100000e-07	-1.683528e-06	-5.275171e-09	-1.186809e+01	-3.457867e+02
6.200000e-07	-1.634841e-06	-5.217442e-09	-1.152487e+01	-3.409151e+02
6.300000e-07	-1.585564e-06	-5.140192e-09	-1.117749e+01	-3.359416e+02
6.400000e-07	-1.535575e-06	-5.048641e-09	-1.082509e+01	-3.308405e+02
6.500000e-07	-1.484747e-06	-4.965714e-09	-1.046677e+01	-3.256008e+02
6.600000e-07	-1.433269e-06	-4.891240e-09	-1.010388e+01	-3.202369e+02
6.700000e-07	-1.381315e-06	-4.811505e-09	-9.737625e+00	-3.147827e+02
6.800000e-07	-1.328956e-06	-4.719633e-09	-9.368522e+00	-3.092702e+02
6.900000e-07	-1.276187e-06	-4.623736e-09	-8.996525e+00	-3.037064e+02
7.000000e-07	-1.223015e-06	-4.539560e-09	-8.621688e+00	-2.980620e+02
7.100000e-07	-1.169487e-06	-4.460072e-09	-8.244338e+00	-2.922829e+02
7.200000e-07	-1.115594e-06	-4.368720e-09	-7.864422e+00	-2.863167e+02
7.300000e-07	-1.061428e-06	-4.261891e-09	-7.482573e+00	-2.801433e+02
7.400000e-07	-1.007033e-06	-4.159139e-09	-7.099112e+00	-2.737883e+02
7.500000e-07	-9.523653e-07	-4.067268e-09	-6.713732e+00	-2.673138e+02
7.600000e-07	-8.974492e-07	-3.972013e-09	-6.326599e+00	-2.607865e+02
7.700000e-07	-8.422698e-07	-3.862267e-09	-5.937610e+00	-2.542431e+02
7.800000e-07	-7.868353e-07	-3.751850e-09	-5.546822e+00	-2.476681e+02
7.900000e-07	-7.312085e-07	-3.655512e-09	-5.154679e+00	-2.409983e+02
8.000000e-07	-6.753680e-07	-3.556837e-09	-4.761030e+00	-2.341515e+02
8.100000e-07	-6.193375e-07	-3.440375e-09	-4.366041e+00	-2.270650e+02
8.200000e-07	-5.632400e-07	-3.315657e-09	-3.970580e+00	-2.197242e+02
8.300000e-07	-5.071158e-07	-3.201884e-09	-3.574930e+00	-2.121690e+02
8.400000e-07	-4.509539e-07	-3.094902e-09	-3.179015e+00	-2.044736e+02
8.500000e-07	-3.947575e-07	-2.977939e-09	-2.782857e+00	-1.967114e+02
8.600000e-07	-3.385279e-07	-2.851161e-09	-2.386464e+00	-1.889211e+02
8.700000e-07	-2.822799e-07	-2.727687e-09	-1.989942e+00	-1.810897e+02
8.800000e-07	-2.259868e-07	-2.610771e-09	-1.593101e+00	-1.731585e+02
8.900000e-07	-1.696439e-07	-2.489973e-09	-1.195911e+00	-1.650491e+02
9.000000e-07	-1.132464e-07	-2.358162e-09	-7.983343e-01	-1.566956e+02
9.100000e-07	-5.678883e-08	-2.221241e-09	-4.003349e-01	-1.480709e+02
9.200000e-07	-3.452082e-10	-2.088694e-09	-2.433557e-03	-1.391940e+02
9.300000e-07	5.603919e-08	-1.954736e-09	3.950502e-01	-1.301192e+02
9.400000e-07	1.123792e-07	-1.812107e-09	7.922212e-01	-1.209102e+02
9.500000e-07	1.687250e-07	-1.664178e-09	1.189432e+00	-1.116123e+02
9.600000e-07	2.250888e-07	-1.518658e-09	1.586771e+00	-1.022341e+02
9.700000e-07	2.814508e-07	-1.377648e-09	1.984097e+00	-9.274500e+01
9.800000e-07	3.377848e-07	-1.232942e-09	2.381226e+00	-8.309085e+01
9.900000e-07	3.940573e-07	-1.079704e-09	2.777920e+00	-7.321915e+01
1.000000e-06	4.502888e-07	-9.221547e-10	3.174326e+00	-6.310305e+01
1.010000e-06	5.064712e-07	-7.673792e-10	3.570386e+00	-5.275301e+01
1.020000e-06	5.625992e-07	-6.108604e-10	3.966063e+00	-4.221075e+01
1.030000e-06	6.186591e-07	-4.474182e-10	4.361259e+00	-3.152859e+01
1.040000e-06	6.745995e-07	-2.800264e-10	4.755613e+00	-2.074473e+01
1.050000e-06	7.304254e-07	-1.139820e-10	5.149159e+00	-9.867105e+00
1.060000e-06	7.860847e-07	5.087806e-11	5.541531e+00	1.125471e+00
1.070000e-06	8.415225e-07	2.212829e-10	5.932342e+00	1.226543e+01
1.080000e-06	8.966643e-07	3.975185e-10	6.321066e+00	2.357163e+01
1.090000e-06	9.514626e-07	5.736018e-10	6.707368e+00	3.503158e+01
1.100000e-06	1.005994e-06	7.472786e-10	7.091791e+00	4.660131e+01
1.110000e-06	1.060315e-06	9.226471e-10	7.474726e+00	5.822336e+01
1.120000e-06	1.114410e-06	1.101312e-09	7.856068e+00	6.985310e+01
1.130000e-06	1.168227e-06	1.280769e-09	8.235459e+00	8.147768e+01
1.140000e-06	1.221651e-06	1.458044e-09	8.612070e+00	9.311589e+01
1.150000e-06	1.274591e-06	1.633544e-09	8.985276e+00	1.047978e+02
1.160000e-06	1.327101e-06	1.811050e-09	9.355444e+00	1.165353e+02
1.170000e-06	1.379237e-06	1.990821e-09	9.722980e+00	1.283012e+02
1.180000e-06	1.430985e-06	2.168922e-09	1.008778e+01	1.400301e+02
1.190000e-06	1.482247e-06	2.343859e-09	1.044915e+01	1.516424e+02
1.200000e-06	1.532781e-06	2.517604e-09	1.080540e+01	1.630788e+02
1.210000e-06	1.582412e-06	2.689915e-09	1.115527e+01	1.743257e+02
1.220000e-06	1.631331e-06	2.859848e-09	1.150012e+01	1.854166e+02
1.230000e-06	1.679839e-06	3.026760e-09	1.184208e+01	1.964060e+02
1.240000e-06	1.728019e-06	3.192041e-09	1.218173e+01	2.073310e+02
1.250000e-06	1.775797e-06	3.357696e-09	1.251854e+01	2.181816e+02
1.260000e-06	1.823074e-06	3.522540e-09	1.285182e+01	2.288954e+02
1.270000e-06	1.869829e-06	3.683049e-09	1.318143e+01	2.393833e+02
1.280000e-06	1.916092e-06	3.837957e-09	1.350756e+01	2.495701e+02
1.290000e-06	1.961811e-06	3.990465e-09	1.382986e+01	2.594282e+02
1.300000e-06	2.006929e-06	4.140607e-09	1.414792e+01	2.689874e+02
1.310000e-06	2.051597e-06	4.285111e-09	1.446281e+01	2.783123e+02
1.320000e-06	2.095967e-06	4.422625e-09	1.477559e+01	2.874633e+02
1.330000e-06	2.140029e-06	4.557370e-09	1.508621e+01	2.964599e+02
1.340000e-06	2.183610e-06	4.691946e-09	1.539343e+01	3.052672e+02
1.350000e-06	2.226337e-06	4.823040e-09	1.569464e+01	3.138121e+02
1.360000e-06	2.267953e-06	4.945369e-09	1.598801e+01	3.220188e+02
1.370000e-06	2.308679e-06	5.060064e-09	1.627511e+01	3.298449e+02
1.380000e-06	2.348898e-06	5.171679e-09	1.655863e+01	3.372981e+02
1.390000e-06	2.388610e-06	5.280849e-09	1.683859e+01	3.444286e+02
1.400000e-06	2.427688e-06	5.385508e-09	1.711407e+01	3.513011e+02
1.410000e-06	2.466139e-06	5.484647e-09	1.738513e+01	3.579649e+02
1.420000e-06	2.503922e-06	5.580962e-09	1.765149e+01	3.644368e+02
1.430000e-06	2.540953e-06	5.675180e-09	1.791254e+01	3.707027e+02
1.440000e-06	2.577398e-06	5.766378e-09	1.816945e+01	3.767346e+02
1.450000e-06	2.613433e-06	5.852991e-09	1.842349e+01	3.825113e+02
1.460000e-06	2.648788e-06	5.934804e-09	1.867272e+01	3.880313e+02
1.470000e-06	2.683060e-06	6.013475e-09	1.891433e+01	3.933124e+02
1.480000e-06	2.716246e-06	6.090086e-09	1.914827e+01	3.983836e+02
1.490000e-06	2.748637e-06	6.164402e-09	1.937661e+01	4.032728e+02
1.500000e-06	2.780355e-06	6.234716e-09	1.960021e+01	4.080001e+02
1.510000e-06	2.811308e-06	6.302830e-09	1.981842e+01	4.125762e+02
1.520000e-06	2.841537e-06	6.370662e-09	2.003151e+01	4.170037e+02
1.530000e-06	2.871003e-06	6.435945e-09	2.023923e+01	4.212796e+02
1.540000e-06	2.899676e-06	6.497371e-09	2.044136e+01	4.253952e+02
1.550000e-06	2.927760e-06	6.554617e-09	2.063935e+01	4.293378e+02
1.560000e-06	2.955157e-06	6.609847e-09	2.083248e+01	4.330943e+02
1.570000e-06	2.981374e-06	6.663682e-09	2.101730e+01	4.366591e+02
1.580000e-06	3.006372e-06	6.713948e-09	2.119352e+01	4.400408e+02
1.590000e-06	3.030524e-06	6.759801e-09	2.136378e+01	4.432640e+02
1.600000e-06	3.053891e-06	6.802607e-09	2.152851e+01	4.463611e+02
1.610000e-06	3.076419e-06	6.845531e-09	2.168733e+01	4.493583e+02
1.620000e-06	3.098142e-06	6.887699e-09	2.184046e+01	4.522602e+02
1.630000e-06	3.119093e-06	6.926339e-09	2.198815e+01	4.550454e+02
1.640000e-06	3.139374e-06	6.961082e-09	2.213112e+01	4.576750e+02
1.650000e-06	3.158952e-06	6.994464e-09	2.226914e+01	4.601116e+02
1.660000e-06	3.177533e-06	7.028439e-09	2.240013e+01	4.623400e+02
1.670000e-06	3.195069e-06	7.059221e-09	2.252375e+01	4.643767e+02
1.680000e-06	3.211764e-06	7.083928e-09	2.264144e+01	4.662641e+02
1.690000e-06	3.227483e-06	7.105645e-09	2.275226e+01	4.680510e+02
1.700000e-06	3.242140e-06	7.128457e-09	2.285558e+01	4.697711e+02
1.710000e-06	3.255888e-06	7.152061e-09	2.295249e+01	4.714308e+02
1.720000e-06	3.268762e-06	7.173114e-09	2.304325e+01	4.730114e+02
1.730000e-06	3.280754e-06	7.192299e-09	2.312779e+01	4.744830e+02
1.740000e-06	3.291681e-06	7.211826e-09	2.320482e+01	4.758219e+02
1.750000e-06	3.301322e-06	7.230910e-09	2.327279e+01	4.770189e+02
1.760000e-06	3.309899e-06	7.247319e-09	2.333325e+01	4.780790e+02
1.770000e-06	3.317684e-06	7.259988e-09	2.338813e+01	4.790132e+02
1.780000e-06	3.324620e-06	7.269582e-09	2.343702e+01	4.798321e+02
1.790000e-06	3.330636e-06	7.278886e-09	2.347943e+01	4.805455e+02
1.800000e-06	3.335731e-06	7.289559e-09	2.351535e+01	4.811684e+02
1.810000e-06	3.340046e-06	7.298471e-09	2.354577e+01	4.817238e+02
1.820000e-06	3.343538e-06	7.304941e-09	2.357039e+01	4.822387e+02
1.830000e-06	3.345812e-06	7.310383e-09	2.358642e+01	4.827289e+02
1.840000e-06	3.346834e-06	7.315694e-09	2.359362e+01	4.831834e+02
1.850000e-06	3.347001e-06	7.321299e-09	2.359480e+01	4.835601e+02
1.860000e-06	3.346356e-06	7.325808e-09	2.359025e+01	4.837999e+02
1.870000e-06	3.344823e-06	7.326315e-09	2.357944e+01	4.838567e+02
1.880000e-06	3.342427e-06	7.327744e-09	2.356256e+01	4.837278e+02
1.890000e-06	3.339220e-06	7.329182e-09	2.353995e+01	4.834654e+02
1.900000e-06	3.335352e-06	7.325363e-09	2.351268e+01	4.831572e+02
1.910000e-06	3.330664e-06	7.327486e-09	2.347963e+01	4.828826e+02
1.920000e-06	3.324842e-06	7.347137e-09	2.343859e+01	4.826670e+02
1.930000e-06	3.317902e-06	7.307703e-09	2.338966e+01	4.824600e+02
1.940000e-06	3.309893e-06	7.202797e-09	2.333321e+01	4.821551e+02
1.950000e-06	3.300526e-06	7.238057e-09	2.326717e+01	4.816445e+02
1.960000e-06	3.289870e-06	7.422641e-09	2.319205e+01	4.808815e+02
1.970000e-06	3.278854e-06	7.360450e-09	2.311440e+01	4.799158e+02
1.980000e-06	3.267788e-06	7.140623e-09	2.303639e+01	4.788797e+02
1.990000e-06	3.255470e-06	7.207744e-09	2.294955e+01	4.779268e+02
2.000000e-06	3.241238e-06	7.379923e-09	2.284922e+01	4.771554e+02
2.010000e-06	3.226037e-06	7.191043e-09	2.274206e+01	4.765547e+02
2.020000e-06	3.210346e-06	7.067285e-09	2.263145e+01	4.760046e+02
2.030000e-06	3.193592e-06	7.323101e-09	2.251334e+01	4.753306e+02
2.040000e-06	3.175976e-06	7.294054e-09	2.238916e+01	4.743855e+02
2.050000e-06	3.157922e-06	7.063603e-09	2.226188e+01	4.731154e+02
2.060000e-06	3.139041e-06	7.240011e-09	2.212877e+01	4.715778e+02
2.070000e-06	3.119343e-06	7.281455e-09	2.198991e+01	4.699024e+02
2.080000e-06	3.098963e-06	6.982528e-09	2.184625e+01	4.682199e+02
2.090000e-06	3.077296e-06	7.080975e-09	2.169351e+01	4.665972e+02
2.100000e-06	3.054290e-06	7.209851e-09	2.153132e+01	4.650130e+02
2.110000e-06	3.030533e-06	7.005260e-09	2.136385e+01	4.633828e+02
2.120000e-06	3.005985e-06	6.987738e-09	2.119079e+01	4.616158e+02
2.130000e-06	2.980576e-06	7.059100e-09	2.101168e+01	4.596682e+02
2.140000e-06	2.954565e-06	6.939179e-09	2.082831e+01	4.575636e+02
2.150000e-06	2.927761e-06	6.957705e-09	2.063935e+01	4.553716e+02
2.160000e-06	2.900098e-06	6.918783e-09	2.044434e+01	4.531615e+02
2.170000e-06	2.871701e-06	6.775724e-09	2.024416e+01	4.509594e+02
2.180000e-06	2.842094e-06	6.886627e-09	2.003544e+01	4.487357e+02
2.190000e-06	2.811250e-06	6.869470e-09	1.981800e+01	4.464263e+02
2.200000e-06	2.779706e-06	6.700307e-09	1.959564e+01	4.439748e+02
2.210000e-06	2.747416e-06	6.733274e-09	1.936800e+01	4.413667e+02
2.220000e-06	2.714319e-06	6.694526e-09	1.913469e+01	4.386362e+02
2.230000e-06	2.680518e-06	6.602197e-09	1.889641e+01	4.358435e+02
2.240000e-06	2.645954e-06	6.639042e-09	1.865275e+01	4.330367e+02
2.250000e-06	2.610806e-06	6.544071e-09	1.840497e+01	4.302242e+02
2.260000e-06	2.575223e-06	6.474443e-09	1.815412e+01	4.273721e+02
2.270000e-06	2.538988e-06	6.517661e-09	1.789868e+01	4.244276e+02
2.280000e-06	2.501781e-06	6.417699e-09	1.763639e+01	4.213524e+02
2.290000e-06	2.463469e-06	6.335921e-09	1.736631e+01	4.181444e+02
2.300000e-06	2.424310e-06	6.323614e-09	1.709026e+01	4.148362e+02
2.310000e-06	2.384653e-06	6.259483e-09	1.681069e+01	4.114710e+02
2.320000e-06	2.344507e-06	6.216139e-09	1.652768e+01	4.080741e+02
2.330000e-06	2.303774e-06	6.166611e-09	1.624054e+01	4.046368e+02
2.340000e-06	2.262411e-06	6.098562e-09	1.594894e+01	4.011222e+02
2.350000e-06	2.220406e-06	6.048018e-09	1.565283e+01	3.974885e+02
2.360000e-06	2.177826e-06	5.995604e-09	1.535266e+01	3.937142e+02
2.370000e-06	2.134732e-06	5.948599e-09	1.504887e+01	3.898088e+02
2.380000e-06	2.091208e-06	5.878619e-09	1.474204e+01	3.858039e+02
2.390000e-06	2.047278e-06	5.797254e-09	1.443236e+01	3.817313e+02
2.400000e-06	2.002751e-06	5.747268e-09	1.411847e+01	3.776026e+02
2.410000e-06	1.957599e-06	5.690902e-09	1.380017e+01	3.734034e+02
2.420000e-06	1.911821e-06	5.617635e-09	1.347745e+01	3.691048e+02
2.430000e-06	1.865483e-06	5.532867e-09	1.315079e+01	3.646832e+02
2.440000e-06	1.818758e-06	5.476345e-09	1.282140e+01	3.601348e+02
2.450000e-06	1.771535e-06	5.440407e-09	1.248850e+01	3.554763e+02
2.460000e-06	1.723767e-06	5.348391e-09	1.215175e+01	3.507296e+02
2.470000e-06	1.675355e-06	5.255817e-09	1.181047e+01	3.459049e+02
2.480000e-06	1.626312e-06	5.193352e-09	1.146474e+01	3.409912e+02
2.490000e-06	1.576857e-06	5.120516e-09	1.111611e+01	3.359631e+02
2.500000e-06	1.527002e-06	5.039486e-09	1.076466e+01	3.307996e+02
2.510000e-06	1.476705e-06	4.952268e-09	1.041009e+01	3.255009e+02
2.520000e-06	1.425890e-06	4.875648e-09	1.005186e+01	3.200921e+02
2.530000e-06	1.374604e-06	4.807267e-09	9.690321e+00	3.146095e+02
2.540000e-06	1.322948e-06	4.721773e-09	9.326170e+00	3.090760e+02
2.550000e-06	1.270874e-06	4.631612e-09	8.959073e+00	3.034821e+02
2.560000e-06	1.218315e-06	4.540236e-09	8.588551e+00	2.977845e+02
2.570000e-06	1.165166e-06	4.451997e-09	8.213878e+00	2.919260e+02
2.580000e-06	1.111365e-06	4.369878e-09	7.834604e+00	2.858659e+02
2.590000e-06	1.057024e-06	4.277305e-09	7.451526e+00	2.796045e+02
2.600000e-06	1.002278e-06	4.177901e-09	7.065595e+00	2.731871e+02
2.610000e-06	9.471765e-07	4.076623e-09	6.677153e+00	2.666824e+02
2.620000e-06	8.918502e-07	3.984483e-09	6.287129e+00	2.601474e+02
2.630000e-06	8.363832e-07	3.892702e-09	5.896112e+00	2.535959e+02
2.640000e-06	7.807800e-07	3.784065e-09	5.504135e+00	2.469885e+02
2.650000e-06	7.250562e-07	3.678766e-09	5.111309e+00	2.402487e+02
2.660000e-06	6.692388e-07	3.583002e-09	4.717822e+00	2.332986e+02
2.670000e-06	6.132975e-07	3.482286e-09	4.323462e+00	2.260951e+02
2.680000e-06	5.572356e-07	3.365097e-09	3.928252e+00	2.186495e+02
2.690000e-06	5.010776e-07	3.240198e-09	3.532364e+00	2.110212e+02
2.700000e-06	4.447530e-07	3.125916e-09	3.135302e+00	2.032887e+02
2.710000e-06	3.882952e-07	3.014545e-09	2.737301e+00	1.955130e+02
2.720000e-06	3.317306e-07	2.893514e-09	2.338546e+00	1.877099e+02
2.730000e-06	2.750689e-07	2.770197e-09	1.939108e+00	1.798432e+02
2.740000e-06	2.183519e-07	2.651246e-09	1.539279e+00	1.718412e+02
2.750000e-06	1.616200e-07	2.532127e-09	1.139346e+00	1.636274e+02
2.760000e-06	1.048730e-07	2.404640e-09	7.393056e-01	1.551514e+02
2.770000e-06	4.805240e-08	2.268192e-09	3.387471e-01	1.464073e+02
2.780000e-06	-8.796569e-09	2.130718e-09	-6.201171e-02	1.374330e+02
2.790000e-06	-6.563917e-08	1.993808e-09	-4.627256e-01	1.282905e+02
2.800000e-06	-1.224502e-07	1.857281e-09	-8.632172e-01	1.190383e+02
2.810000e-06	-1.792479e-07	1.716837e-09	-1.263614e+00	1.097063e+02
2.820000e-06	-2.360558e-07	1.570516e-09	-1.664084e+00	1.002842e+02
2.830000e-06	-2.927709e-07	1.424074e-09	-2.063898e+00	9.072790e+01
2.840000e-06	-3.493598e-07	1.278460e-09	-2.462824e+00	8.098068e+01
2.850000e-06	-4.057752e-07	1.128413e-09	-2.860526e+00	7.099934e+01
2.860000e-06	-4.620238e-07	9.695467e-10	-3.257053e+00	6.077370e+01
2.870000e-06	-5.181738e-07	8.073789e-10	-3.652884e+00	5.033036e+01
2.880000e-06	-5.742205e-07	6.476414e-10	-4.047987e+00	3.971901e+01
2.890000e-06	-6.300879e-07	4.864607e-10	-4.441826e+00	2.898834e+01
2.900000e-06	-6.857706e-07	3.182099e-10	-4.834363e+00	1.816373e+01
2.910000e-06	-7.413645e-07	1.466473e-10	-5.226274e+00	7.238504e+00
2.920000e-06	-7.969044e-07	-2.094990e-11	-5.617805e+00	-3.816638e+00
2.930000e-06	-8.523585e-07	-1.872411e-10	-6.008731e+00	-1.503088e+01
2.940000e-06	-9.076907e-07	-3.595005e-10	-6.398797e+00	-2.641002e+01
2.950000e-06	-9.628502e-07	-5.379559e-10	-6.787646e+00	-3.792593e+01
