# Temperatura_=_20.0
# Concentracion g/m^3_=_10000.0
# C_Vs_to_Am_M_A/Vsm_=_65563218390.804596
# pendiente_HvsI_1/m_=_3716.3
# ordenada_HvsI_A/m_=_1297.0
# frecuencia_Hz_=_269489.6695655861

Tiempo_(s)	Campo_(V.s)	Magnetizacion_(V.s)	Campo_(kA/m)	Magnetizacion_(A/m)
0.000000e+00	-3.326631e-06	-7.345441e-09	-2.348055e+01	-4.801539e+02
1.000000e-08	-3.326063e-06	-7.344193e-09	-2.347654e+01	-4.802317e+02
2.000000e-08	-3.324711e-06	-7.341251e-09	-2.346700e+01	-4.801661e+02
3.000000e-08	-3.322207e-06	-7.337861e-09	-2.344932e+01	-4.800103e+02
4.000000e-08	-3.318580e-06	-7.334965e-09	-2.342373e+01	-4.798208e+02
5.000000e-08	-3.314125e-06	-7.331731e-09	-2.339228e+01	-4.796322e+02
6.000000e-08	-3.308897e-06	-7.324291e-09	-2.335538e+01	-4.794408e+02
7.000000e-08	-3.302760e-06	-7.314881e-09	-2.331207e+01	-4.792024e+02
8.000000e-08	-3.295585e-06	-7.334011e-09	-2.326142e+01	-4.788509e+02
9.000000e-08	-3.287346e-06	-7.364723e-09	-2.320327e+01	-4.783287e+02
1.000000e-07	-3.277943e-06	-7.319983e-09	-2.313690e+01	-4.776182e+02
1.100000e-07	-3.267374e-06	-7.216380e-09	-2.306229e+01	-4.767573e+02
1.200000e-07	-3.255925e-06	-7.245573e-09	-2.298149e+01	-4.758309e+02
1.300000e-07	-3.243647e-06	-7.337894e-09	-2.289483e+01	-4.749373e+02
1.400000e-07	-3.230410e-06	-7.269524e-09	-2.280139e+01	-4.741438e+02
1.500000e-07	-3.216348e-06	-7.174846e-09	-2.270214e+01	-4.734530e+02
1.600000e-07	-3.201294e-06	-7.274403e-09	-2.259588e+01	-4.727954e+02
1.700000e-07	-3.184808e-06	-7.304439e-09	-2.247952e+01	-4.720570e+02
1.800000e-07	-3.167248e-06	-7.161386e-09	-2.235557e+01	-4.711276e+02
1.900000e-07	-3.149123e-06	-7.176562e-09	-2.222764e+01	-4.699493e+02
2.000000e-07	-3.130200e-06	-7.218088e-09	-2.209408e+01	-4.685401e+02
2.100000e-07	-3.110352e-06	-7.096704e-09	-2.195398e+01	-4.669805e+02
2.200000e-07	-3.089879e-06	-7.092700e-09	-2.180947e+01	-4.653707e+02
2.300000e-07	-3.068707e-06	-7.176500e-09	-2.166004e+01	-4.637797e+02
2.400000e-07	-3.046699e-06	-7.058519e-09	-2.150469e+01	-4.622137e+02
2.500000e-07	-3.023891e-06	-6.980070e-09	-2.134371e+01	-4.606192e+02
2.600000e-07	-3.000225e-06	-7.051733e-09	-2.117666e+01	-4.589176e+02
2.700000e-07	-2.975796e-06	-7.012139e-09	-2.100424e+01	-4.570515e+02
2.800000e-07	-2.950626e-06	-6.925802e-09	-2.082657e+01	-4.550164e+02
2.900000e-07	-2.924352e-06	-6.934956e-09	-2.064113e+01	-4.528601e+02
3.000000e-07	-2.896834e-06	-6.903006e-09	-2.044689e+01	-4.506530e+02
3.100000e-07	-2.868483e-06	-6.857457e-09	-2.024678e+01	-4.484461e+02
3.200000e-07	-2.839504e-06	-6.851812e-09	-2.004224e+01	-4.462423e+02
3.300000e-07	-2.809723e-06	-6.780631e-09	-1.983203e+01	-4.439971e+02
3.400000e-07	-2.779121e-06	-6.733348e-09	-1.961603e+01	-4.416471e+02
3.500000e-07	-2.747723e-06	-6.732344e-09	-1.939442e+01	-4.391491e+02
3.600000e-07	-2.715667e-06	-6.690888e-09	-1.916815e+01	-4.365050e+02
3.700000e-07	-2.683109e-06	-6.641413e-09	-1.893834e+01	-4.337593e+02
3.800000e-07	-2.649808e-06	-6.598262e-09	-1.870330e+01	-4.309708e+02
3.900000e-07	-2.615370e-06	-6.544125e-09	-1.846022e+01	-4.281762e+02
4.000000e-07	-2.579834e-06	-6.523236e-09	-1.820939e+01	-4.253689e+02
4.100000e-07	-2.543612e-06	-6.490625e-09	-1.795373e+01	-4.225033e+02
4.200000e-07	-2.506840e-06	-6.409061e-09	-1.769417e+01	-4.195237e+02
4.300000e-07	-2.469385e-06	-6.367723e-09	-1.742980e+01	-4.163977e+02
4.400000e-07	-2.431197e-06	-6.344397e-09	-1.716026e+01	-4.131348e+02
4.500000e-07	-2.392268e-06	-6.285102e-09	-1.688548e+01	-4.097792e+02
4.600000e-07	-2.352718e-06	-6.219132e-09	-1.660633e+01	-4.063817e+02
4.700000e-07	-2.312716e-06	-6.169519e-09	-1.632398e+01	-4.029688e+02
4.800000e-07	-2.272283e-06	-6.120536e-09	-1.603859e+01	-3.995271e+02
4.900000e-07	-2.231250e-06	-6.072468e-09	-1.574896e+01	-3.960126e+02
5.000000e-07	-2.189350e-06	-6.019486e-09	-1.545322e+01	-3.923770e+02
5.100000e-07	-2.146491e-06	-5.950966e-09	-1.515070e+01	-3.885957e+02
5.200000e-07	-2.102838e-06	-5.889798e-09	-1.484259e+01	-3.846789e+02
5.300000e-07	-2.058676e-06	-5.835701e-09	-1.453087e+01	-3.806617e+02
5.400000e-07	-2.014081e-06	-5.773741e-09	-1.421610e+01	-3.765796e+02
5.500000e-07	-1.968975e-06	-5.703159e-09	-1.389773e+01	-3.724458e+02
5.600000e-07	-1.923356e-06	-5.637689e-09	-1.357574e+01	-3.682451e+02
5.700000e-07	-1.877195e-06	-5.577606e-09	-1.324992e+01	-3.639455e+02
5.800000e-07	-1.830458e-06	-5.517477e-09	-1.292003e+01	-3.595199e+02
5.900000e-07	-1.783177e-06	-5.443914e-09	-1.258631e+01	-3.549624e+02
6.000000e-07	-1.735381e-06	-5.360898e-09	-1.224894e+01	-3.502887e+02
6.100000e-07	-1.687208e-06	-5.288436e-09	-1.190892e+01	-3.455215e+02
6.200000e-07	-1.638659e-06	-5.219851e-09	-1.156624e+01	-3.406719e+02
6.300000e-07	-1.589574e-06	-5.142756e-09	-1.121978e+01	-3.357299e+02
6.400000e-07	-1.539801e-06	-5.057930e-09	-1.086847e+01	-3.306714e+02
6.500000e-07	-1.489179e-06	-4.979290e-09	-1.051116e+01	-3.254770e+02
6.600000e-07	-1.437820e-06	-4.904855e-09	-1.014865e+01	-3.201482e+02
6.700000e-07	-1.385964e-06	-4.824593e-09	-9.782631e+00	-3.147105e+02
6.800000e-07	-1.333717e-06	-4.734880e-09	-9.413851e+00	-3.091986e+02
6.900000e-07	-1.281083e-06	-4.644621e-09	-9.042341e+00	-3.036323e+02
7.000000e-07	-1.228042e-06	-4.561696e-09	-8.667957e+00	-2.979999e+02
7.100000e-07	-1.174601e-06	-4.477204e-09	-8.290757e+00	-2.922601e+02
7.200000e-07	-1.120819e-06	-4.383363e-09	-7.911144e+00	-2.863641e+02
7.300000e-07	-1.066790e-06	-4.284754e-09	-7.529789e+00	-2.802838e+02
7.400000e-07	-1.012561e-06	-4.191299e-09	-7.147016e+00	-2.740306e+02
7.500000e-07	-9.580529e-07	-4.098837e-09	-6.762281e+00	-2.676498e+02
7.600000e-07	-9.032597e-07	-4.000658e-09	-6.375530e+00	-2.611944e+02
7.700000e-07	-8.482182e-07	-3.895485e-09	-5.987028e+00	-2.546919e+02
7.800000e-07	-7.928907e-07	-3.789265e-09	-5.596506e+00	-2.481249e+02
7.900000e-07	-7.373050e-07	-3.687428e-09	-5.204163e+00	-2.414377e+02
8.000000e-07	-6.815219e-07	-3.583874e-09	-4.810426e+00	-2.345654e+02
8.100000e-07	-6.255944e-07	-3.471256e-09	-4.415670e+00	-2.274694e+02
8.200000e-07	-5.695381e-07	-3.353577e-09	-4.020004e+00	-2.201581e+02
8.300000e-07	-5.134018e-07	-3.240717e-09	-3.623774e+00	-2.126808e+02
8.400000e-07	-4.572358e-07	-3.130000e-09	-3.227334e+00	-2.050985e+02
8.500000e-07	-4.010314e-07	-3.012945e-09	-2.830623e+00	-1.974485e+02
8.600000e-07	-3.447787e-07	-2.888424e-09	-2.433571e+00	-1.897244e+02
8.700000e-07	-2.884689e-07	-2.764293e-09	-2.036117e+00	-1.818811e+02
8.800000e-07	-2.321486e-07	-2.642978e-09	-1.638588e+00	-1.738618e+02
8.900000e-07	-1.758345e-07	-2.518310e-09	-1.241103e+00	-1.656306e+02
9.000000e-07	-1.194861e-07	-2.387906e-09	-8.433758e-01	-1.571890e+02
9.100000e-07	-6.311332e-08	-2.254085e-09	-4.454764e-01	-1.485707e+02
9.200000e-07	-6.739041e-09	-2.121237e-09	-4.756657e-02	-1.398160e+02
9.300000e-07	4.961964e-08	-1.986545e-09	3.502332e-01	-1.309451e+02
9.400000e-07	1.059610e-07	-1.845472e-09	7.479107e-01	-1.219455e+02
9.500000e-07	1.623125e-07	-1.700655e-09	1.145660e+00	-1.127814e+02
9.600000e-07	2.186736e-07	-1.556078e-09	1.543476e+00	-1.034171e+02
9.700000e-07	2.750164e-07	-1.410501e-09	1.941164e+00	-9.384093e+01
9.800000e-07	3.313414e-07	-1.260492e-09	2.338726e+00	-8.407183e+01
9.900000e-07	3.876276e-07	-1.107084e-09	2.736014e+00	-7.414732e+01
1.000000e-06	4.438606e-07	-9.532996e-10	3.132927e+00	-6.409903e+01
1.010000e-06	5.000200e-07	-8.006378e-10	3.529320e+00	-5.393232e+01
1.020000e-06	5.561372e-07	-6.447030e-10	3.925416e+00	-4.362258e+01
1.030000e-06	6.121880e-07	-4.818498e-10	4.321042e+00	-3.313059e+01
1.040000e-06	6.680741e-07	-3.140702e-10	4.715506e+00	-2.242734e+01
1.050000e-06	7.238307e-07	-1.457163e-10	5.109056e+00	-1.151375e+01
1.060000e-06	7.794649e-07	2.197670e-11	5.501743e+00	-4.237267e-01
1.070000e-06	8.348579e-07	1.921833e-10	5.892726e+00	1.079025e+01
1.080000e-06	8.899641e-07	3.657705e-10	6.281685e+00	2.207980e+01
1.090000e-06	9.448242e-07	5.395762e-10	6.668908e+00	3.341831e+01
1.100000e-06	9.994126e-07	7.126516e-10	7.054212e+00	4.480453e+01
1.110000e-06	1.053734e-06	8.877085e-10	7.437632e+00	5.625213e+01
1.120000e-06	1.107796e-06	1.065573e-09	7.819224e+00	6.777319e+01
1.130000e-06	1.161549e-06	1.244926e-09	8.198629e+00	7.936605e+01
1.140000e-06	1.214891e-06	1.423206e-09	8.575137e+00	9.101321e+01
1.150000e-06	1.267863e-06	1.600020e-09	8.949033e+00	1.026879e+02
1.160000e-06	1.320497e-06	1.776627e-09	9.320541e+00	1.143624e+02
1.170000e-06	1.372705e-06	1.953728e-09	9.689043e+00	1.260125e+02
1.180000e-06	1.424403e-06	2.130861e-09	1.005395e+01	1.376150e+02
1.190000e-06	1.475427e-06	2.306696e-09	1.041409e+01	1.491448e+02
1.200000e-06	1.525713e-06	2.480599e-09	1.076903e+01	1.605739e+02
1.210000e-06	1.575278e-06	2.652263e-09	1.111887e+01	1.718776e+02
1.220000e-06	1.624220e-06	2.822162e-09	1.146433e+01	1.830432e+02
1.230000e-06	1.672708e-06	2.991706e-09	1.180658e+01	1.940732e+02
1.240000e-06	1.720864e-06	3.160066e-09	1.214648e+01	2.049791e+02
1.250000e-06	1.768655e-06	3.325039e-09	1.248380e+01	2.157660e+02
1.260000e-06	1.815947e-06	3.487701e-09	1.281760e+01	2.264171e+02
1.270000e-06	1.862712e-06	3.647398e-09	1.314769e+01	2.368880e+02
1.280000e-06	1.908931e-06	3.803138e-09	1.347392e+01	2.471186e+02
1.290000e-06	1.954607e-06	3.954985e-09	1.379632e+01	2.570570e+02
1.300000e-06	1.999787e-06	4.102972e-09	1.411521e+01	2.666841e+02
1.310000e-06	2.044513e-06	4.247168e-09	1.443091e+01	2.760225e+02
1.320000e-06	2.088900e-06	4.385738e-09	1.474420e+01	2.851240e+02
1.330000e-06	2.132925e-06	4.521554e-09	1.505495e+01	2.940383e+02
1.340000e-06	2.176362e-06	4.656451e-09	1.536154e+01	3.027814e+02
1.350000e-06	2.218888e-06	4.786824e-09	1.566171e+01	3.113206e+02
1.360000e-06	2.260396e-06	4.910039e-09	1.595468e+01	3.195862e+02
1.370000e-06	2.301130e-06	5.027208e-09	1.624220e+01	3.275049e+02
1.380000e-06	2.341355e-06	5.139462e-09	1.652612e+01	3.350374e+02
1.390000e-06	2.381122e-06	5.247785e-09	1.680681e+01	3.421995e+02
1.400000e-06	2.420283e-06	5.353244e-09	1.708322e+01	3.490551e+02
1.410000e-06	2.458784e-06	5.455358e-09	1.735498e+01	3.556847e+02
1.420000e-06	2.496602e-06	5.553658e-09	1.762191e+01	3.621467e+02
1.430000e-06	2.533672e-06	5.648418e-09	1.788357e+01	3.684531e+02
1.440000e-06	2.570177e-06	5.740283e-09	1.814123e+01	3.745708e+02
1.450000e-06	2.606209e-06	5.827282e-09	1.839555e+01	3.804476e+02
1.460000e-06	2.641516e-06	5.909202e-09	1.864477e+01	3.860465e+02
1.470000e-06	2.675763e-06	5.989039e-09	1.888650e+01	3.913692e+02
1.480000e-06	2.708935e-06	6.067614e-09	1.912063e+01	3.964560e+02
1.490000e-06	2.741344e-06	6.143748e-09	1.934938e+01	4.013648e+02
1.500000e-06	2.773154e-06	6.216622e-09	1.957391e+01	4.061404e+02
1.510000e-06	2.804274e-06	6.286738e-09	1.979357e+01	4.107949e+02
1.520000e-06	2.834553e-06	6.355496e-09	2.000729e+01	4.153062e+02
1.530000e-06	2.863989e-06	6.421743e-09	2.021506e+01	4.196359e+02
1.540000e-06	2.892733e-06	6.483387e-09	2.041794e+01	4.237542e+02
1.550000e-06	2.920915e-06	6.541083e-09	2.061686e+01	4.276572e+02
1.560000e-06	2.948280e-06	6.596263e-09	2.081001e+01	4.313685e+02
1.570000e-06	2.974498e-06	6.649790e-09	2.099507e+01	4.349252e+02
1.580000e-06	2.999607e-06	6.701408e-09	2.117230e+01	4.383587e+02
1.590000e-06	3.023843e-06	6.750086e-09	2.134337e+01	4.416810e+02
1.600000e-06	3.047300e-06	6.795995e-09	2.150893e+01	4.448832e+02
1.610000e-06	3.069932e-06	6.840798e-09	2.166868e+01	4.479451e+02
1.620000e-06	3.091724e-06	6.883538e-09	2.182249e+01	4.508476e+02
1.630000e-06	3.112726e-06	6.920768e-09	2.197073e+01	4.535814e+02
1.640000e-06	3.133049e-06	6.953146e-09	2.211418e+01	4.561480e+02
1.650000e-06	3.152671e-06	6.985548e-09	2.225268e+01	4.585542e+02
1.660000e-06	3.171409e-06	7.020878e-09	2.238494e+01	4.608075e+02
1.670000e-06	3.189170e-06	7.053684e-09	2.251030e+01	4.629143e+02
1.680000e-06	3.206042e-06	7.081366e-09	2.262939e+01	4.648829e+02
1.690000e-06	3.221961e-06	7.107397e-09	2.274176e+01	4.667273e+02
1.700000e-06	3.236828e-06	7.131554e-09	2.284669e+01	4.684662e+02
1.710000e-06	3.250706e-06	7.153754e-09	2.294464e+01	4.701167e+02
1.720000e-06	3.263677e-06	7.174538e-09	2.303620e+01	4.716845e+02
1.730000e-06	3.275714e-06	7.193910e-09	2.312116e+01	4.731583e+02
1.740000e-06	3.286642e-06	7.212789e-09	2.319830e+01	4.745114e+02
1.750000e-06	3.296342e-06	7.230814e-09	2.326676e+01	4.757134e+02
1.760000e-06	3.305009e-06	7.247027e-09	2.332794e+01	4.767460e+02
1.770000e-06	3.312868e-06	7.260669e-09	2.338341e+01	4.776158e+02
1.780000e-06	3.319878e-06	7.271932e-09	2.343289e+01	4.783568e+02
1.790000e-06	3.325918e-06	7.281448e-09	2.347552e+01	4.790199e+02
1.800000e-06	3.331050e-06	7.290562e-09	2.351175e+01	4.796544e+02
1.810000e-06	3.335467e-06	7.300138e-09	2.354292e+01	4.802884e+02
1.820000e-06	3.339059e-06	7.308784e-09	2.356828e+01	4.809166e+02
1.830000e-06	3.341441e-06	7.315356e-09	2.358509e+01	4.815024e+02
1.840000e-06	3.342579e-06	7.321303e-09	2.359312e+01	4.819918e+02
1.850000e-06	3.342817e-06	7.327850e-09	2.359480e+01	4.823346e+02
1.860000e-06	3.342252e-06	7.332597e-09	2.359081e+01	4.825050e+02
1.870000e-06	3.340789e-06	7.333342e-09	2.358049e+01	4.825125e+02
1.880000e-06	3.338457e-06	7.332794e-09	2.356402e+01	4.823990e+02
1.890000e-06	3.335355e-06	7.332832e-09	2.354213e+01	4.822224e+02
1.900000e-06	3.331588e-06	7.331452e-09	2.351554e+01	4.820319e+02
1.910000e-06	3.327031e-06	7.331682e-09	2.348338e+01	4.818459e+02
1.920000e-06	3.321371e-06	7.336953e-09	2.344343e+01	4.816412e+02
1.930000e-06	3.314558e-06	7.311531e-09	2.339534e+01	4.813603e+02
1.940000e-06	3.306697e-06	7.257647e-09	2.333985e+01	4.809367e+02
1.950000e-06	3.297531e-06	7.281268e-09	2.327516e+01	4.803280e+02
1.960000e-06	3.287058e-06	7.364304e-09	2.320123e+01	4.795413e+02
1.970000e-06	3.276100e-06	7.313223e-09	2.312389e+01	4.786390e+02
1.980000e-06	3.264950e-06	7.203886e-09	2.304519e+01	4.777171e+02
1.990000e-06	3.252692e-06	7.239873e-09	2.295866e+01	4.768652e+02
2.000000e-06	3.238686e-06	7.310410e-09	2.285980e+01	4.761238e+02
2.010000e-06	3.223648e-06	7.188996e-09	2.275366e+01	4.754613e+02
2.020000e-06	3.208090e-06	7.126049e-09	2.264385e+01	4.747828e+02
2.030000e-06	3.191536e-06	7.252264e-09	2.252701e+01	4.739691e+02
2.040000e-06	3.174083e-06	7.217960e-09	2.240382e+01	4.729291e+02
2.050000e-06	3.156127e-06	7.107640e-09	2.227707e+01	4.716391e+02
2.060000e-06	3.137430e-06	7.190642e-09	2.214510e+01	4.701494e+02
2.070000e-06	3.117897e-06	7.176496e-09	2.200723e+01	4.685561e+02
2.080000e-06	3.097616e-06	7.017459e-09	2.186408e+01	4.669505e+02
2.090000e-06	3.076086e-06	7.083850e-09	2.171212e+01	4.653751e+02
2.100000e-06	3.053232e-06	7.128654e-09	2.155080e+01	4.638061e+02
2.110000e-06	3.029608e-06	6.985360e-09	2.138406e+01	4.621729e+02
2.120000e-06	3.005214e-06	6.981288e-09	2.121187e+01	4.604011e+02
2.130000e-06	2.979923e-06	7.025841e-09	2.103336e+01	4.584554e+02
2.140000e-06	2.953981e-06	6.920812e-09	2.085026e+01	4.563572e+02
2.150000e-06	2.927314e-06	6.903463e-09	2.066203e+01	4.541700e+02
2.160000e-06	2.899819e-06	6.892534e-09	2.046796e+01	4.519601e+02
2.170000e-06	2.871571e-06	6.799187e-09	2.026857e+01	4.497583e+02
2.180000e-06	2.842198e-06	6.825895e-09	2.006125e+01	4.475439e+02
2.190000e-06	2.811607e-06	6.813593e-09	1.984533e+01	4.452590e+02
2.200000e-06	2.780212e-06	6.707518e-09	1.962373e+01	4.428449e+02
2.210000e-06	2.748097e-06	6.694167e-09	1.939705e+01	4.402776e+02
2.220000e-06	2.715219e-06	6.663620e-09	1.916499e+01	4.375806e+02
2.230000e-06	2.681614e-06	6.595165e-09	1.892779e+01	4.348093e+02
2.240000e-06	2.647200e-06	6.587327e-09	1.868488e+01	4.320166e+02
2.250000e-06	2.612134e-06	6.521414e-09	1.843738e+01	4.292207e+02
2.260000e-06	2.576625e-06	6.464339e-09	1.818674e+01	4.263946e+02
2.270000e-06	2.540532e-06	6.467904e-09	1.793198e+01	4.234838e+02
2.280000e-06	2.503505e-06	6.398618e-09	1.767063e+01	4.204396e+02
2.290000e-06	2.465367e-06	6.326278e-09	1.740144e+01	4.172479e+02
2.300000e-06	2.426346e-06	6.297016e-09	1.712602e+01	4.139367e+02
2.310000e-06	2.386830e-06	6.245878e-09	1.684710e+01	4.105572e+02
2.320000e-06	2.346860e-06	6.193263e-09	1.656498e+01	4.071525e+02
2.330000e-06	2.306241e-06	6.136987e-09	1.627828e+01	4.037312e+02
2.340000e-06	2.264975e-06	6.077998e-09	1.598700e+01	4.002635e+02
2.350000e-06	2.223133e-06	6.030051e-09	1.569167e+01	3.966994e+02
2.360000e-06	2.180697e-06	5.976390e-09	1.539214e+01	3.929988e+02
2.370000e-06	2.137675e-06	5.920339e-09	1.508848e+01	3.891530e+02
2.380000e-06	2.094233e-06	5.856314e-09	1.478184e+01	3.851861e+02
2.390000e-06	2.050448e-06	5.793258e-09	1.447279e+01	3.811365e+02
2.400000e-06	2.006143e-06	5.738273e-09	1.416007e+01	3.770316e+02
2.410000e-06	1.961161e-06	5.669195e-09	1.384258e+01	3.728714e+02
2.420000e-06	1.915494e-06	5.599661e-09	1.352024e+01	3.686304e+02
2.430000e-06	1.869287e-06	5.528672e-09	1.319409e+01	3.642762e+02
2.440000e-06	1.822692e-06	5.463158e-09	1.286522e+01	3.597902e+02
2.450000e-06	1.775613e-06	5.408451e-09	1.253291e+01	3.551774e+02
2.460000e-06	1.727902e-06	5.329322e-09	1.219615e+01	3.504592e+02
2.470000e-06	1.679547e-06	5.247200e-09	1.185484e+01	3.456549e+02
2.480000e-06	1.630589e-06	5.181045e-09	1.150928e+01	3.407662e+02
2.490000e-06	1.581151e-06	5.110482e-09	1.116033e+01	3.357749e+02
2.500000e-06	1.531308e-06	5.030610e-09	1.080852e+01	3.306563e+02
2.510000e-06	1.481003e-06	4.940797e-09	1.045345e+01	3.253993e+02
2.520000e-06	1.430230e-06	4.855713e-09	1.009508e+01	3.200172e+02
2.530000e-06	1.379040e-06	4.782032e-09	9.733762e+00	3.145424e+02
2.540000e-06	1.327453e-06	4.698769e-09	9.369639e+00	3.090056e+02
2.550000e-06	1.275423e-06	4.609623e-09	9.002395e+00	3.034134e+02
2.560000e-06	1.222940e-06	4.524294e-09	8.631947e+00	2.977389e+02
2.570000e-06	1.169903e-06	4.441355e-09	8.257594e+00	2.919338e+02
2.580000e-06	1.116177e-06	4.353656e-09	7.878379e+00	2.859554e+02
2.590000e-06	1.061858e-06	4.255633e-09	7.494972e+00	2.797928e+02
2.600000e-06	1.007061e-06	4.158618e-09	7.108199e+00	2.734751e+02
2.610000e-06	9.519406e-07	4.062329e-09	6.719138e+00	2.670552e+02
2.620000e-06	8.966697e-07	3.966299e-09	6.329016e+00	2.605781e+02
2.630000e-06	8.412864e-07	3.870270e-09	5.938100e+00	2.540518e+02
2.640000e-06	7.857877e-07	3.768697e-09	5.546371e+00	2.474389e+02
2.650000e-06	7.301935e-07	3.668963e-09	5.153967e+00	2.406749e+02
2.660000e-06	6.744787e-07	3.569985e-09	4.760712e+00	2.337031e+02
2.670000e-06	6.186265e-07	3.463137e-09	4.366487e+00	2.265053e+02
2.680000e-06	5.626307e-07	3.346144e-09	3.971249e+00	2.191110e+02
2.690000e-06	5.065369e-07	3.225871e-09	3.575319e+00	2.115795e+02
2.700000e-06	4.503832e-07	3.112638e-09	3.178966e+00	2.039649e+02
2.710000e-06	3.940656e-07	3.001239e-09	2.781456e+00	1.962853e+02
2.720000e-06	3.376257e-07	2.882597e-09	2.383083e+00	1.885145e+02
2.730000e-06	2.811666e-07	2.761103e-09	1.984574e+00	1.805978e+02
2.740000e-06	2.246095e-07	2.641360e-09	1.585374e+00	1.724846e+02
2.750000e-06	1.679544e-07	2.519835e-09	1.185483e+00	1.641552e+02
2.760000e-06	1.112676e-07	2.389684e-09	7.853668e-01	1.556282e+02
2.770000e-06	5.451543e-08	2.253007e-09	3.847894e-01	1.469439e+02
2.780000e-06	-2.267755e-09	2.119417e-09	-1.600662e-02	1.381362e+02
2.790000e-06	-5.900977e-08	1.988173e-09	-4.165121e-01	1.292105e+02
2.800000e-06	-1.156853e-07	1.854365e-09	-8.165486e-01	1.201414e+02
2.810000e-06	-1.723515e-07	1.715744e-09	-1.216518e+00	1.108898e+02
2.820000e-06	-2.290309e-07	1.573218e-09	-1.616582e+00	1.014288e+02
2.830000e-06	-2.856332e-07	1.427609e-09	-2.016101e+00	9.176100e+01
2.840000e-06	-3.420960e-07	1.277339e-09	-2.414636e+00	8.191660e+01
2.850000e-06	-3.984868e-07	1.123287e-09	-2.812663e+00	7.193353e+01
2.860000e-06	-4.548195e-07	9.686228e-10	-3.210279e+00	6.183308e+01
2.870000e-06	-5.109877e-07	8.148741e-10	-3.606734e+00	5.160612e+01
2.880000e-06	-5.670241e-07	6.585913e-10	-4.002259e+00	4.121852e+01
2.890000e-06	-6.228825e-07	4.967384e-10	-4.396528e+00	3.063263e+01
2.900000e-06	-6.785587e-07	3.307844e-10	-4.789510e+00	1.983155e+01
2.910000e-06	-7.342115e-07	1.639834e-10	-5.182328e+00	8.832108e+00
2.920000e-06	-7.897853e-07	-3.057534e-12	-5.574588e+00	-2.320700e+00
2.930000e-06	-8.451960e-07	-1.732243e-10	-5.965696e+00	-1.357345e+01
2.940000e-06	-9.004446e-07	-3.465368e-10	-6.355660e+00	-2.488628e+01
2.950000e-06	-9.555090e-07	-5.194780e-10	-6.744325e+00	-3.624471e+01
