# Temperatura_=_20.0
# Concentracion g/m^3_=_10000.0
# C_Vs_to_Am_M_A/Vsm_=_65563218390.804596
# pendiente_HvsI_1/m_=_3716.3
# ordenada_HvsI_A/m_=_1297.0
# frecuencia_Hz_=_269573.9193705479

Tiempo_(s)	Campo_(V.s)	Magnetizacion_(V.s)	Campo_(kA/m)	Magnetizacion_(A/m)
0.000000e+00	-8.161617e-06	-1.144361e-08	-5.700546e+01	-7.477659e+02
1.000000e-08	-8.158163e-06	-1.144185e-08	-5.698134e+01	-7.476427e+02
2.000000e-08	-8.152603e-06	-1.144116e-08	-5.694251e+01	-7.474099e+02
3.000000e-08	-8.145047e-06	-1.143870e-08	-5.688973e+01	-7.470746e+02
4.000000e-08	-8.135251e-06	-1.143355e-08	-5.682130e+01	-7.466836e+02
5.000000e-08	-8.122988e-06	-1.142950e-08	-5.673566e+01	-7.462981e+02
6.000000e-08	-8.108203e-06	-1.142244e-08	-5.663239e+01	-7.459488e+02
7.000000e-08	-8.091057e-06	-1.141689e-08	-5.651263e+01	-7.456016e+02
8.000000e-08	-8.071666e-06	-1.142318e-08	-5.637719e+01	-7.451608e+02
9.000000e-08	-8.049724e-06	-1.141102e-08	-5.622394e+01	-7.445181e+02
1.000000e-07	-8.025032e-06	-1.139113e-08	-5.605148e+01	-7.436263e+02
1.100000e-07	-7.997821e-06	-1.138677e-08	-5.586142e+01	-7.425556e+02
1.200000e-07	-7.968611e-06	-1.136085e-08	-5.565740e+01	-7.414935e+02
1.300000e-07	-7.937801e-06	-1.132540e-08	-5.544220e+01	-7.406758e+02
1.400000e-07	-7.905227e-06	-1.134956e-08	-5.521469e+01	-7.402757e+02
1.500000e-07	-7.870509e-06	-1.131384e-08	-5.497220e+01	-7.403057e+02
1.600000e-07	-7.833861e-06	-1.129029e-08	-5.471623e+01	-7.405850e+02
1.700000e-07	-7.795229e-06	-1.131797e-08	-5.444640e+01	-7.407983e+02
1.800000e-07	-7.754276e-06	-1.128144e-08	-5.416036e+01	-7.406196e+02
1.900000e-07	-7.711197e-06	-1.127614e-08	-5.385947e+01	-7.398458e+02
2.000000e-07	-7.665992e-06	-1.125842e-08	-5.354373e+01	-7.384727e+02
2.100000e-07	-7.618572e-06	-1.122642e-08	-5.321253e+01	-7.366783e+02
2.200000e-07	-7.568735e-06	-1.120669e-08	-5.286443e+01	-7.347246e+02
2.300000e-07	-7.516250e-06	-1.118217e-08	-5.249785e+01	-7.328303e+02
2.400000e-07	-7.461431e-06	-1.115848e-08	-5.211496e+01	-7.310791e+02
2.500000e-07	-7.404435e-06	-1.112031e-08	-5.171687e+01	-7.294043e+02
2.600000e-07	-7.345215e-06	-1.109767e-08	-5.130324e+01	-7.276519e+02
2.700000e-07	-7.283812e-06	-1.107458e-08	-5.087436e+01	-7.256772e+02
2.800000e-07	-7.220316e-06	-1.103112e-08	-5.043087e+01	-7.234232e+02
2.900000e-07	-7.154714e-06	-1.100644e-08	-4.997267e+01	-7.209392e+02
3.000000e-07	-7.086938e-06	-1.096395e-08	-4.949928e+01	-7.183390e+02
3.100000e-07	-7.017072e-06	-1.091703e-08	-4.901129e+01	-7.157287e+02
3.200000e-07	-6.945205e-06	-1.087214e-08	-4.850934e+01	-7.131492e+02
3.300000e-07	-6.871220e-06	-1.082799e-08	-4.799258e+01	-7.105635e+02
3.400000e-07	-6.794875e-06	-1.079461e-08	-4.745934e+01	-7.078904e+02
3.500000e-07	-6.716229e-06	-1.075344e-08	-4.691003e+01	-7.050569e+02
3.600000e-07	-6.635464e-06	-1.071704e-08	-4.634592e+01	-7.020368e+02
3.700000e-07	-6.552737e-06	-1.066442e-08	-4.576811e+01	-6.988530e+02
3.800000e-07	-6.468221e-06	-1.060949e-08	-4.517781e+01	-6.955483e+02
3.900000e-07	-6.381969e-06	-1.055390e-08	-4.457537e+01	-6.921473e+02
4.000000e-07	-6.294028e-06	-1.049581e-08	-4.396114e+01	-6.886360e+02
4.100000e-07	-6.204275e-06	-1.043950e-08	-4.333425e+01	-6.849723e+02
4.200000e-07	-6.112672e-06	-1.037703e-08	-4.269444e+01	-6.811167e+02
4.300000e-07	-6.019430e-06	-1.031817e-08	-4.204319e+01	-6.770612e+02
4.400000e-07	-5.924520e-06	-1.025540e-08	-4.138028e+01	-6.728366e+02
4.500000e-07	-5.827904e-06	-1.018778e-08	-4.070546e+01	-6.684910e+02
4.600000e-07	-5.729622e-06	-1.011586e-08	-4.001900e+01	-6.640561e+02
4.700000e-07	-5.629744e-06	-1.004722e-08	-3.932140e+01	-6.595222e+02
4.800000e-07	-5.528355e-06	-9.977067e-09	-3.861324e+01	-6.548394e+02
4.900000e-07	-5.425411e-06	-9.900043e-09	-3.789421e+01	-6.499455e+02
5.000000e-07	-5.321031e-06	-9.818507e-09	-3.716517e+01	-6.448021e+02
5.100000e-07	-5.215275e-06	-9.731090e-09	-3.642650e+01	-6.394169e+02
5.200000e-07	-5.108026e-06	-9.643974e-09	-3.567742e+01	-6.338377e+02
5.300000e-07	-4.999354e-06	-9.558405e-09	-3.491839e+01	-6.281220e+02
5.400000e-07	-4.889323e-06	-9.473051e-09	-3.414987e+01	-6.222999e+02
5.500000e-07	-4.777945e-06	-9.383971e-09	-3.337194e+01	-6.163538e+02
5.600000e-07	-4.665259e-06	-9.289678e-09	-3.258487e+01	-6.102242e+02
5.700000e-07	-4.551172e-06	-9.187051e-09	-3.178802e+01	-6.038398e+02
5.800000e-07	-4.435598e-06	-9.080484e-09	-3.098079e+01	-5.971509e+02
5.900000e-07	-4.318627e-06	-8.971912e-09	-3.016380e+01	-5.901499e+02
6.000000e-07	-4.200366e-06	-8.857884e-09	-2.933779e+01	-5.828667e+02
6.100000e-07	-4.080898e-06	-8.742636e-09	-2.850336e+01	-5.753458e+02
6.200000e-07	-3.960261e-06	-8.626618e-09	-2.766076e+01	-5.676188e+02
6.300000e-07	-3.838428e-06	-8.507745e-09	-2.680981e+01	-5.596886e+02
6.400000e-07	-3.715359e-06	-8.382634e-09	-2.595022e+01	-5.515306e+02
6.500000e-07	-3.591103e-06	-8.250820e-09	-2.508234e+01	-5.431056e+02
6.600000e-07	-3.465804e-06	-8.115189e-09	-2.420718e+01	-5.343757e+02
6.700000e-07	-3.339533e-06	-7.979579e-09	-2.332523e+01	-5.253121e+02
6.800000e-07	-3.212257e-06	-7.839798e-09	-2.243627e+01	-5.158949e+02
6.900000e-07	-3.084043e-06	-7.691563e-09	-2.154074e+01	-5.061097e+02
7.000000e-07	-2.954895e-06	-7.535371e-09	-2.063870e+01	-4.959459e+02
7.100000e-07	-2.824764e-06	-7.370687e-09	-1.972979e+01	-4.854013e+02
7.200000e-07	-2.693741e-06	-7.199991e-09	-1.881465e+01	-4.744858e+02
7.300000e-07	-2.561879e-06	-7.025037e-09	-1.789365e+01	-4.632193e+02
7.400000e-07	-2.429256e-06	-6.848553e-09	-1.696733e+01	-4.516204e+02
7.500000e-07	-2.296014e-06	-6.669186e-09	-1.603669e+01	-4.396895e+02
7.600000e-07	-2.162187e-06	-6.482778e-09	-1.510197e+01	-4.273984e+02
7.700000e-07	-2.027777e-06	-6.288852e-09	-1.416317e+01	-4.146933e+02
7.800000e-07	-1.892844e-06	-6.087776e-09	-1.322072e+01	-4.015135e+02
7.900000e-07	-1.757424e-06	-5.879925e-09	-1.227487e+01	-3.878170e+02
8.000000e-07	-1.621579e-06	-5.663848e-09	-1.132605e+01	-3.735962e+02
8.100000e-07	-1.485268e-06	-5.439523e-09	-1.037397e+01	-3.588751e+02
8.200000e-07	-1.348541e-06	-5.206753e-09	-9.418991e+00	-3.436858e+02
8.300000e-07	-1.211478e-06	-4.967119e-09	-8.461666e+00	-3.280375e+02
8.400000e-07	-1.074099e-06	-4.720257e-09	-7.502129e+00	-3.118958e+02
8.500000e-07	-9.364577e-07	-4.466070e-09	-6.540763e+00	-2.951834e+02
8.600000e-07	-7.986307e-07	-4.202239e-09	-5.578099e+00	-2.778038e+02
8.700000e-07	-6.606651e-07	-3.926095e-09	-4.614468e+00	-2.596725e+02
8.800000e-07	-5.225225e-07	-3.638935e-09	-3.649600e+00	-2.407395e+02
8.900000e-07	-3.842471e-07	-3.338610e-09	-2.683804e+00	-2.209895e+02
9.000000e-07	-2.458989e-07	-3.022344e-09	-1.717501e+00	-2.004234e+02
9.100000e-07	-1.075021e-07	-2.691808e-09	-7.508571e-01	-1.790320e+02
9.200000e-07	3.088775e-08	-2.349555e-09	2.157379e-01	-1.567798e+02
9.300000e-07	1.692343e-07	-1.995956e-09	1.182030e+00	-1.336084e+02
9.400000e-07	3.075292e-07	-1.629054e-09	2.147962e+00	-1.094559e+02
9.500000e-07	4.457812e-07	-1.247852e-09	3.113595e+00	-8.427963e+01
9.600000e-07	5.839704e-07	-8.527421e-10	4.078788e+00	-5.807028e+01
9.700000e-07	7.220277e-07	-4.402967e-10	5.043060e+00	-3.085157e+01
9.800000e-07	8.599310e-07	-1.045708e-11	6.006256e+00	-2.672959e+00
9.900000e-07	9.976552e-07	4.363986e-10	6.968202e+00	2.639279e+01
1.000000e-06	1.135102e-06	8.965417e-10	7.928213e+00	5.623890e+01
1.010000e-06	1.272193e-06	1.362591e-09	8.885734e+00	8.670358e+01
1.020000e-06	1.408932e-06	1.829458e-09	9.840799e+00	1.175526e+02
1.030000e-06	1.545298e-06	2.296583e-09	1.079326e+01	1.484817e+02
1.040000e-06	1.681257e-06	2.763353e-09	1.174287e+01	1.791455e+02
1.050000e-06	1.816732e-06	3.222570e-09	1.268911e+01	2.092064e+02
1.060000e-06	1.951680e-06	3.666872e-09	1.363167e+01	2.383827e+02
1.070000e-06	2.086120e-06	4.093042e-09	1.457067e+01	2.664763e+02
1.080000e-06	2.219996e-06	4.500216e-09	1.550574e+01	2.933685e+02
1.090000e-06	2.353293e-06	4.886087e-09	1.643676e+01	3.189930e+02
1.100000e-06	2.486040e-06	5.250712e-09	1.736394e+01	3.433039e+02
1.110000e-06	2.618132e-06	5.598256e-09	1.828655e+01	3.662596e+02
1.120000e-06	2.749331e-06	5.927566e-09	1.920292e+01	3.878298e+02
1.130000e-06	2.879590e-06	6.236592e-09	2.011273e+01	4.080185e+02
1.140000e-06	3.009003e-06	6.522770e-09	2.101662e+01	4.268826e+02
1.150000e-06	3.137458e-06	6.789032e-09	2.191383e+01	4.445298e+02
1.160000e-06	3.264909e-06	7.037756e-09	2.280401e+01	4.610931e+02
1.170000e-06	3.391421e-06	7.271011e-09	2.368765e+01	4.766925e+02
1.180000e-06	3.516996e-06	7.492458e-09	2.456474e+01	4.914057e+02
1.190000e-06	3.641693e-06	7.701968e-09	2.543570e+01	5.052645e+02
1.200000e-06	3.765389e-06	7.899750e-09	2.629966e+01	5.182761e+02
1.210000e-06	3.887839e-06	8.084826e-09	2.715492e+01	5.304577e+02
1.220000e-06	4.008990e-06	8.256683e-09	2.800111e+01	5.418609e+02
1.230000e-06	4.128891e-06	8.418090e-09	2.883857e+01	5.525731e+02
1.240000e-06	4.247674e-06	8.573531e-09	2.966822e+01	5.626953e+02
1.250000e-06	4.365308e-06	8.721942e-09	3.048984e+01	5.723116e+02
1.260000e-06	4.481609e-06	8.860800e-09	3.130215e+01	5.814686e+02
1.270000e-06	4.596388e-06	8.991679e-09	3.210384e+01	5.901768e+02
1.280000e-06	4.709573e-06	9.116688e-09	3.289439e+01	5.984303e+02
1.290000e-06	4.821335e-06	9.235457e-09	3.367500e+01	6.062303e+02
1.300000e-06	4.931852e-06	9.346503e-09	3.444691e+01	6.135972e+02
1.310000e-06	5.041166e-06	9.450549e-09	3.521042e+01	6.205655e+02
1.320000e-06	5.149223e-06	9.551913e-09	3.596516e+01	6.271683e+02
1.330000e-06	5.255838e-06	9.649423e-09	3.670982e+01	6.334246e+02
1.340000e-06	5.360848e-06	9.740257e-09	3.744327e+01	6.393429e+02
1.350000e-06	5.464363e-06	9.823323e-09	3.816628e+01	6.449370e+02
1.360000e-06	5.566419e-06	9.900873e-09	3.887909e+01	6.502446e+02
1.370000e-06	5.666955e-06	9.976401e-09	3.958130e+01	6.553304e+02
1.380000e-06	5.765923e-06	1.005036e-08	4.027254e+01	6.602677e+02
1.390000e-06	5.863105e-06	1.012240e-08	4.095132e+01	6.651055e+02
1.400000e-06	5.958509e-06	1.019342e-08	4.161768e+01	6.698421e+02
1.410000e-06	6.052343e-06	1.026263e-08	4.227307e+01	6.744228e+02
1.420000e-06	6.144677e-06	1.032743e-08	4.291798e+01	6.787677e+02
1.430000e-06	6.235291e-06	1.038676e-08	4.355088e+01	6.828187e+02
1.440000e-06	6.323954e-06	1.044130e-08	4.417016e+01	6.865763e+02
1.450000e-06	6.410773e-06	1.049326e-08	4.477655e+01	6.901078e+02
1.460000e-06	6.495887e-06	1.054399e-08	4.537104e+01	6.935164e+02
1.470000e-06	6.579244e-06	1.059450e-08	4.595326e+01	6.968901e+02
1.480000e-06	6.660657e-06	1.064508e-08	4.652189e+01	7.002560e+02
1.490000e-06	6.740082e-06	1.069393e-08	4.707664e+01	7.035685e+02
1.500000e-06	6.817570e-06	1.074065e-08	4.761786e+01	7.067370e+02
1.510000e-06	6.892917e-06	1.078446e-08	4.814413e+01	7.096775e+02
1.520000e-06	6.965996e-06	1.082412e-08	4.865455e+01	7.123598e+02
1.530000e-06	7.036955e-06	1.086250e-08	4.915018e+01	7.148233e+02
1.540000e-06	7.106022e-06	1.089918e-08	4.963257e+01	7.171541e+02
1.550000e-06	7.173085e-06	1.093254e-08	5.010099e+01	7.194381e+02
1.560000e-06	7.237957e-06	1.096440e-08	5.055408e+01	7.217167e+02
1.570000e-06	7.300741e-06	1.099496e-08	5.099260e+01	7.239698e+02
1.580000e-06	7.361685e-06	1.102612e-08	5.141827e+01	7.261334e+02
1.590000e-06	7.420642e-06	1.105657e-08	5.183006e+01	7.281382e+02
1.600000e-06	7.477339e-06	1.108364e-08	5.222607e+01	7.299464e+02
1.610000e-06	7.531876e-06	1.110762e-08	5.260699e+01	7.315671e+02
1.620000e-06	7.584070e-06	1.112989e-08	5.297154e+01	7.330446e+02
1.630000e-06	7.633708e-06	1.115170e-08	5.331824e+01	7.344308e+02
1.640000e-06	7.681011e-06	1.117148e-08	5.364864e+01	7.357603e+02
1.650000e-06	7.726334e-06	1.118949e-08	5.396519e+01	7.370416e+02
1.660000e-06	7.769622e-06	1.120838e-08	5.426754e+01	7.382656e+02
1.670000e-06	7.810569e-06	1.122732e-08	5.455354e+01	7.394213e+02
1.680000e-06	7.849275e-06	1.124414e-08	5.482388e+01	7.405057e+02
1.690000e-06	7.886079e-06	1.125984e-08	5.508094e+01	7.415228e+02
1.700000e-06	7.920731e-06	1.127383e-08	5.532297e+01	7.424733e+02
1.710000e-06	7.953029e-06	1.128624e-08	5.554856e+01	7.433473e+02
1.720000e-06	7.983225e-06	1.129798e-08	5.575947e+01	7.441273e+02
1.730000e-06	8.011387e-06	1.130846e-08	5.595617e+01	7.448000e+02
1.740000e-06	8.037239e-06	1.131917e-08	5.613673e+01	7.453696e+02
1.750000e-06	8.060606e-06	1.132934e-08	5.629995e+01	7.458609e+02
1.760000e-06	8.081833e-06	1.133703e-08	5.644821e+01	7.463075e+02
1.770000e-06	8.100967e-06	1.134481e-08	5.658185e+01	7.467331e+02
1.780000e-06	8.117694e-06	1.135298e-08	5.669868e+01	7.471367e+02
1.790000e-06	8.131976e-06	1.136036e-08	5.679843e+01	7.474944e+02
1.800000e-06	8.143736e-06	1.136670e-08	5.688057e+01	7.477760e+02
1.810000e-06	8.152939e-06	1.137045e-08	5.694485e+01	7.479659e+02
1.820000e-06	8.159759e-06	1.137137e-08	5.699248e+01	7.480738e+02
1.830000e-06	8.164421e-06	1.137099e-08	5.702505e+01	7.481267e+02
1.840000e-06	8.166777e-06	1.137087e-08	5.704150e+01	7.481463e+02
1.850000e-06	8.166671e-06	1.136997e-08	5.704076e+01	7.481302e+02
1.860000e-06	8.164397e-06	1.136805e-08	5.702488e+01	7.480491e+02
1.870000e-06	8.159958e-06	1.136724e-08	5.699387e+01	7.478682e+02
1.880000e-06	8.153253e-06	1.136591e-08	5.694704e+01	7.475762e+02
1.890000e-06	8.144365e-06	1.136079e-08	5.688496e+01	7.472031e+02
1.900000e-06	8.133288e-06	1.135344e-08	5.680760e+01	7.468084e+02
1.910000e-06	8.119823e-06	1.134848e-08	5.671355e+01	7.464423e+02
1.920000e-06	8.104067e-06	1.133471e-08	5.660350e+01	7.461029e+02
1.930000e-06	8.086177e-06	1.131351e-08	5.647855e+01	7.457193e+02
1.940000e-06	8.065449e-06	1.130683e-08	5.633377e+01	7.451804e+02
1.950000e-06	8.041341e-06	1.129898e-08	5.616539e+01	7.444019e+02
1.960000e-06	8.014577e-06	1.128475e-08	5.597845e+01	7.433961e+02
1.970000e-06	7.985963e-06	1.130743e-08	5.577859e+01	7.423014e+02
1.980000e-06	7.955878e-06	1.126946e-08	5.556846e+01	7.413437e+02
1.990000e-06	7.924238e-06	1.124131e-08	5.534747e+01	7.407392e+02
2.000000e-06	7.890435e-06	1.126060e-08	5.511137e+01	7.405831e+02
2.010000e-06	7.854799e-06	1.126105e-08	5.486247e+01	7.407816e+02
2.020000e-06	7.817182e-06	1.133497e-08	5.459973e+01	7.410683e+02
2.030000e-06	7.776915e-06	1.134238e-08	5.431848e+01	7.411045e+02
2.040000e-06	7.734566e-06	1.130068e-08	5.402269e+01	7.406167e+02
2.050000e-06	7.690215e-06	1.130611e-08	5.371292e+01	7.395056e+02
2.060000e-06	7.643710e-06	1.126285e-08	5.338810e+01	7.378739e+02
2.070000e-06	7.595072e-06	1.124223e-08	5.304838e+01	7.359606e+02
2.080000e-06	7.543973e-06	1.121072e-08	5.269148e+01	7.340192e+02
2.090000e-06	7.490431e-06	1.117574e-08	5.231751e+01	7.322023e+02
2.100000e-06	7.434529e-06	1.117563e-08	5.192706e+01	7.305084e+02
2.110000e-06	7.376476e-06	1.112275e-08	5.152158e+01	7.288124e+02
2.120000e-06	7.316431e-06	1.110054e-08	5.110219e+01	7.269532e+02
2.130000e-06	7.254135e-06	1.105297e-08	5.066708e+01	7.248271e+02
2.140000e-06	7.189769e-06	1.101449e-08	5.021751e+01	7.224367e+02
2.150000e-06	7.123311e-06	1.099682e-08	4.975333e+01	7.198745e+02
2.160000e-06	7.054639e-06	1.094663e-08	4.927369e+01	7.172589e+02
2.170000e-06	6.983701e-06	1.092924e-08	4.877821e+01	7.146654e+02
2.180000e-06	6.910520e-06	1.088273e-08	4.826708e+01	7.120912e+02
2.190000e-06	6.835371e-06	1.084082e-08	4.774219e+01	7.094689e+02
2.200000e-06	6.757847e-06	1.078323e-08	4.720072e+01	7.067155e+02
2.210000e-06	6.678046e-06	1.072317e-08	4.664334e+01	7.037806e+02
2.220000e-06	6.596391e-06	1.068976e-08	4.607302e+01	7.006668e+02
2.230000e-06	6.512953e-06	1.064053e-08	4.549024e+01	6.974126e+02
2.240000e-06	6.427634e-06	1.060774e-08	4.489432e+01	6.940549e+02
2.250000e-06	6.340320e-06	1.055504e-08	4.428447e+01	6.905982e+02
2.260000e-06	6.251247e-06	1.049868e-08	4.366233e+01	6.870103e+02
2.270000e-06	6.160454e-06	1.043555e-08	4.302818e+01	6.832460e+02
2.280000e-06	6.067994e-06	1.036740e-08	4.238239e+01	6.792804e+02
2.290000e-06	5.973752e-06	1.031269e-08	4.172414e+01	6.751276e+02
2.300000e-06	5.877794e-06	1.025023e-08	4.105392e+01	6.708317e+02
2.310000e-06	5.780346e-06	1.018801e-08	4.037329e+01	6.664362e+02
2.320000e-06	5.681377e-06	1.011765e-08	3.968203e+01	6.619518e+02
2.330000e-06	5.580910e-06	1.004716e-08	3.898031e+01	6.573450e+02
2.340000e-06	5.478698e-06	9.972323e-09	3.826640e+01	6.525548e+02
2.350000e-06	5.374762e-06	9.897939e-09	3.754045e+01	6.475278e+02
2.360000e-06	5.269435e-06	9.828047e-09	3.680479e+01	6.422494e+02
2.370000e-06	5.162867e-06	9.751385e-09	3.606045e+01	6.367517e+02
2.380000e-06	5.055017e-06	9.665903e-09	3.530717e+01	6.310924e+02
2.390000e-06	4.945839e-06	9.571184e-09	3.454460e+01	6.253182e+02
2.400000e-06	4.835143e-06	9.474396e-09	3.377144e+01	6.194343e+02
2.410000e-06	4.722958e-06	9.382330e-09	3.298788e+01	6.133977e+02
2.420000e-06	4.609467e-06	9.289940e-09	3.219519e+01	6.071382e+02
2.430000e-06	4.494652e-06	9.197441e-09	3.139325e+01	6.005925e+02
2.440000e-06	4.378435e-06	9.102458e-09	3.058153e+01	5.937327e+02
2.450000e-06	4.260662e-06	8.999419e-09	2.975894e+01	5.865736e+02
2.460000e-06	4.141408e-06	8.883220e-09	2.892600e+01	5.791564e+02
2.470000e-06	4.020886e-06	8.762081e-09	2.808420e+01	5.715215e+02
2.480000e-06	3.899284e-06	8.641262e-09	2.723486e+01	5.636860e+02
2.490000e-06	3.776553e-06	8.518987e-09	2.637764e+01	5.556368e+02
2.500000e-06	3.652729e-06	8.396642e-09	2.551277e+01	5.473392e+02
2.510000e-06	3.527910e-06	8.266867e-09	2.464097e+01	5.387533e+02
2.520000e-06	3.402003e-06	8.133465e-09	2.376156e+01	5.298455e+02
2.530000e-06	3.274972e-06	7.991676e-09	2.287430e+01	5.205924e+02
2.540000e-06	3.146867e-06	7.844937e-09	2.197954e+01	5.109775e+02
2.550000e-06	3.017830e-06	7.692199e-09	2.107827e+01	5.009881e+02
2.560000e-06	2.887972e-06	7.534080e-09	2.017127e+01	4.906176e+02
2.570000e-06	2.757314e-06	7.373086e-09	1.925868e+01	4.798700e+02
2.580000e-06	2.625898e-06	7.207010e-09	1.834079e+01	4.687616e+02
2.590000e-06	2.493712e-06	7.033634e-09	1.741753e+01	4.573135e+02
2.600000e-06	2.360723e-06	6.852148e-09	1.648866e+01	4.455364e+02
2.610000e-06	2.227044e-06	6.668639e-09	1.555497e+01	4.334158e+02
2.620000e-06	2.092802e-06	6.478801e-09	1.461734e+01	4.209082e+02
2.630000e-06	1.957978e-06	6.280333e-09	1.367565e+01	4.079528e+02
2.640000e-06	1.822561e-06	6.071471e-09	1.272982e+01	3.944963e+02
2.650000e-06	1.686631e-06	5.856763e-09	1.178041e+01	3.805144e+02
2.660000e-06	1.550236e-06	5.636827e-09	1.082775e+01	3.660184e+02
2.670000e-06	1.413492e-06	5.408257e-09	9.872645e+00	3.510404e+02
2.680000e-06	1.276483e-06	5.170998e-09	8.915700e+00	3.356039e+02
2.690000e-06	1.139279e-06	4.927960e-09	7.957382e+00	3.196956e+02
2.700000e-06	1.001820e-06	4.678148e-09	6.997292e+00	3.032563e+02
2.710000e-06	8.641199e-07	4.417050e-09	6.035514e+00	2.861944e+02
2.720000e-06	7.262270e-07	4.141965e-09	5.072390e+00	2.684162e+02
2.730000e-06	5.881175e-07	3.855677e-09	4.107753e+00	2.498544e+02
2.740000e-06	4.499002e-07	3.561783e-09	3.142364e+00	2.304790e+02
2.750000e-06	3.116241e-07	3.255703e-09	2.176563e+00	2.102870e+02
2.760000e-06	1.732430e-07	2.937027e-09	1.210030e+00	1.892765e+02
2.770000e-06	3.482581e-08	2.606555e-09	2.432436e-01	1.674250e+02
2.780000e-06	-1.035512e-07	2.260592e-09	-7.232618e-01	1.446829e+02
2.790000e-06	-2.418803e-07	1.895700e-09	-1.689432e+00	1.209870e+02
2.800000e-06	-3.801469e-07	1.513118e-09	-2.655167e+00	9.628323e+01
2.810000e-06	-5.183874e-07	1.116651e-09	-3.620718e+00	7.054627e+01
2.820000e-06	-6.564674e-07	7.080090e-10	-4.585149e+00	4.378540e+01
2.830000e-06	-7.943395e-07	2.861708e-10	-5.548128e+00	1.603919e+01
2.840000e-06	-9.320208e-07	-1.512131e-10	-6.509773e+00	-1.263076e+01
2.850000e-06	-1.069447e-06	-6.031762e-10	-7.469639e+00	-4.213545e+01
2.860000e-06	-1.206645e-06	-1.064801e-09	-8.427908e+00	-7.234110e+01
2.870000e-06	-1.343612e-06	-1.531151e-09	-9.384567e+00	-1.030479e+02
2.880000e-06	-1.480300e-06	-2.002127e-09	-1.033928e+01	-1.339817e+02
2.890000e-06	-1.616700e-06	-2.475358e-09	-1.129197e+01	-1.648107e+02
2.900000e-06	-1.752719e-06	-2.942137e-09	-1.224201e+01	-1.951873e+02
2.910000e-06	-1.888210e-06	-3.396586e-09	-1.318835e+01	-2.247989e+02
2.920000e-06	-2.023114e-06	-3.835501e-09	-1.413060e+01	-2.534079e+02
2.930000e-06	-2.157372e-06	-4.258497e-09	-1.506834e+01	-2.808613e+02
2.940000e-06	-2.290981e-06	-4.662336e-09	-1.600154e+01	-3.070732e+02
2.950000e-06	-2.423942e-06	-5.043859e-09	-1.693022e+01	-3.319915e+02
