# Temperatura_=_20.0
# Concentracion g/m^3_=_10000.0
# C_Vs_to_Am_M_A/Vsm_=_65563218390.804596
# pendiente_HvsI_1/m_=_3716.3
# ordenada_HvsI_A/m_=_1297.0
# frecuencia_Hz_=_269583.98576232494

Tiempo_(s)	Campo_(V.s)	Magnetizacion_(V.s)	Campo_(kA/m)	Magnetizacion_(A/m)
0.000000e+00	-8.176559e-06	-1.140013e-08	-5.699608e+01	-7.453302e+02
1.000000e-08	-8.173437e-06	-1.139732e-08	-5.697431e+01	-7.452684e+02
2.000000e-08	-8.168124e-06	-1.139410e-08	-5.693728e+01	-7.451182e+02
3.000000e-08	-8.160773e-06	-1.139093e-08	-5.688604e+01	-7.448342e+02
4.000000e-08	-8.151183e-06	-1.138740e-08	-5.681919e+01	-7.444335e+02
5.000000e-08	-8.139105e-06	-1.138304e-08	-5.673499e+01	-7.439853e+02
6.000000e-08	-8.124584e-06	-1.137828e-08	-5.663378e+01	-7.435610e+02
7.000000e-08	-8.107707e-06	-1.137363e-08	-5.651613e+01	-7.431740e+02
8.000000e-08	-8.088511e-06	-1.135851e-08	-5.638232e+01	-7.427534e+02
9.000000e-08	-8.066870e-06	-1.135204e-08	-5.623147e+01	-7.421737e+02
1.000000e-07	-8.042555e-06	-1.135398e-08	-5.606198e+01	-7.413315e+02
1.100000e-07	-8.015640e-06	-1.134377e-08	-5.587436e+01	-7.402264e+02
1.200000e-07	-7.986584e-06	-1.133208e-08	-5.567182e+01	-7.389941e+02
1.300000e-07	-7.955825e-06	-1.131685e-08	-5.545741e+01	-7.378639e+02
1.400000e-07	-7.923383e-06	-1.127936e-08	-5.523127e+01	-7.370546e+02
1.500000e-07	-7.888914e-06	-1.128661e-08	-5.499100e+01	-7.366593e+02
1.600000e-07	-7.852510e-06	-1.127146e-08	-5.473724e+01	-7.365828e+02
1.700000e-07	-7.814151e-06	-1.123064e-08	-5.446985e+01	-7.365703e+02
1.800000e-07	-7.773417e-06	-1.125610e-08	-5.418591e+01	-7.363157e+02
1.900000e-07	-7.730471e-06	-1.122797e-08	-5.388655e+01	-7.355976e+02
2.000000e-07	-7.685422e-06	-1.119367e-08	-5.357252e+01	-7.343721e+02
2.100000e-07	-7.638115e-06	-1.119011e-08	-5.324276e+01	-7.327758e+02
2.200000e-07	-7.588359e-06	-1.114384e-08	-5.289593e+01	-7.310395e+02
2.300000e-07	-7.535996e-06	-1.111948e-08	-5.253092e+01	-7.293607e+02
2.400000e-07	-7.481284e-06	-1.110824e-08	-5.214955e+01	-7.278050e+02
2.500000e-07	-7.424445e-06	-1.107523e-08	-5.175334e+01	-7.262863e+02
2.600000e-07	-7.365424e-06	-1.105145e-08	-5.134192e+01	-7.246309e+02
2.700000e-07	-7.304244e-06	-1.102459e-08	-5.091546e+01	-7.226864e+02
2.800000e-07	-7.240999e-06	-1.098878e-08	-5.047460e+01	-7.204107e+02
2.900000e-07	-7.175629e-06	-1.093847e-08	-5.001893e+01	-7.178932e+02
3.000000e-07	-7.108032e-06	-1.090219e-08	-4.954773e+01	-7.153008e+02
3.100000e-07	-7.038239e-06	-1.086057e-08	-4.906123e+01	-7.127812e+02
3.200000e-07	-6.966322e-06	-1.081828e-08	-4.855992e+01	-7.103818e+02
3.300000e-07	-6.892305e-06	-1.079466e-08	-4.804397e+01	-7.080277e+02
3.400000e-07	-6.816102e-06	-1.074863e-08	-4.751278e+01	-7.055676e+02
3.500000e-07	-6.737630e-06	-1.070637e-08	-4.696578e+01	-7.028586e+02
3.600000e-07	-6.656991e-06	-1.065955e-08	-4.640367e+01	-6.998397e+02
3.700000e-07	-6.574388e-06	-1.060530e-08	-4.582787e+01	-6.965560e+02
3.800000e-07	-6.489944e-06	-1.055477e-08	-4.523924e+01	-6.931223e+02
3.900000e-07	-6.403778e-06	-1.050088e-08	-4.463861e+01	-6.896527e+02
4.000000e-07	-6.315910e-06	-1.044697e-08	-4.402611e+01	-6.861967e+02
4.100000e-07	-6.226266e-06	-1.039305e-08	-4.340123e+01	-6.827171e+02
4.200000e-07	-6.134835e-06	-1.034213e-08	-4.276390e+01	-6.791161e+02
4.300000e-07	-6.041607e-06	-1.027967e-08	-4.211404e+01	-6.752924e+02
4.400000e-07	-5.946662e-06	-1.021399e-08	-4.145220e+01	-6.711936e+02
4.500000e-07	-5.850074e-06	-1.014598e-08	-4.077892e+01	-6.668365e+02
4.600000e-07	-5.751855e-06	-1.007565e-08	-4.009427e+01	-6.622889e+02
4.700000e-07	-5.651989e-06	-1.000868e-08	-3.939814e+01	-6.576260e+02
4.800000e-07	-5.550549e-06	-9.936512e-09	-3.869104e+01	-6.528899e+02
4.900000e-07	-5.447644e-06	-9.860972e-09	-3.797371e+01	-6.480714e+02
5.000000e-07	-5.343302e-06	-9.784392e-09	-3.724638e+01	-6.431212e+02
5.100000e-07	-5.237474e-06	-9.704118e-09	-3.650869e+01	-6.379794e+02
5.200000e-07	-5.130171e-06	-9.617997e-09	-3.576072e+01	-6.326044e+02
5.300000e-07	-5.021454e-06	-9.533507e-09	-3.500289e+01	-6.269868e+02
5.400000e-07	-4.911365e-06	-9.447272e-09	-3.423549e+01	-6.211443e+02
5.500000e-07	-4.799971e-06	-9.355097e-09	-3.345901e+01	-6.151042e+02
5.600000e-07	-4.687202e-06	-9.258464e-09	-3.267293e+01	-6.088854e+02
5.700000e-07	-4.572962e-06	-9.158347e-09	-3.187660e+01	-6.024884e+02
5.800000e-07	-4.457277e-06	-9.057635e-09	-3.107019e+01	-5.958956e+02
5.900000e-07	-4.340186e-06	-8.955489e-09	-3.025400e+01	-5.890783e+02
6.000000e-07	-4.221789e-06	-8.847176e-09	-2.942869e+01	-5.820052e+02
6.100000e-07	-4.102255e-06	-8.732184e-09	-2.859546e+01	-5.746495e+02
6.200000e-07	-3.981514e-06	-8.613464e-09	-2.775381e+01	-5.669932e+02
6.300000e-07	-3.859536e-06	-8.490621e-09	-2.690354e+01	-5.590302e+02
6.400000e-07	-3.736417e-06	-8.363663e-09	-2.604532e+01	-5.507667e+02
6.500000e-07	-3.612100e-06	-8.232315e-09	-2.517875e+01	-5.422174e+02
6.600000e-07	-3.486661e-06	-8.098697e-09	-2.430436e+01	-5.333972e+02
6.700000e-07	-3.360210e-06	-7.963365e-09	-2.342290e+01	-5.243091e+02
6.800000e-07	-3.232810e-06	-7.822780e-09	-2.253484e+01	-5.149354e+02
6.900000e-07	-3.104425e-06	-7.673248e-09	-2.163992e+01	-5.052371e+02
7.000000e-07	-2.974997e-06	-7.516781e-09	-2.073771e+01	-4.951633e+02
7.100000e-07	-2.844710e-06	-7.355324e-09	-1.982953e+01	-4.846705e+02
7.200000e-07	-2.713600e-06	-7.187846e-09	-1.891560e+01	-4.737382e+02
7.300000e-07	-2.581598e-06	-7.013661e-09	-1.799546e+01	-4.623765e+02
7.400000e-07	-2.448816e-06	-6.833137e-09	-1.706988e+01	-4.506170e+02
7.500000e-07	-2.315373e-06	-6.647885e-09	-1.613969e+01	-4.384936e+02
7.600000e-07	-2.181280e-06	-6.456170e-09	-1.520498e+01	-4.260216e+02
7.700000e-07	-2.046591e-06	-6.257937e-09	-1.426611e+01	-4.131864e+02
7.800000e-07	-1.911430e-06	-6.055428e-09	-1.332394e+01	-3.999462e+02
7.900000e-07	-1.775828e-06	-5.849584e-09	-1.237871e+01	-3.862462e+02
8.000000e-07	-1.639759e-06	-5.635070e-09	-1.143022e+01	-3.720361e+02
8.100000e-07	-1.503208e-06	-5.410735e-09	-1.047836e+01	-3.572806e+02
8.200000e-07	-1.366213e-06	-5.176910e-09	-9.523414e+00	-3.419597e+02
8.300000e-07	-1.228850e-06	-4.932556e-09	-8.565902e+00	-3.260609e+02
8.400000e-07	-1.091160e-06	-4.679661e-09	-7.606111e+00	-3.095705e+02
8.500000e-07	-9.532110e-07	-4.419091e-09	-6.644517e+00	-2.924678e+02
8.600000e-07	-8.150909e-07	-4.148931e-09	-5.681728e+00	-2.747247e+02
8.700000e-07	-6.767891e-07	-3.868250e-09	-4.717672e+00	-2.563067e+02
8.800000e-07	-5.383555e-07	-3.578827e-09	-3.752697e+00	-2.371714e+02
8.900000e-07	-3.998605e-07	-3.275757e-09	-2.787295e+00	-2.172643e+02
9.000000e-07	-2.612665e-07	-2.956416e-09	-1.821202e+00	-1.965172e+02
9.100000e-07	-1.225767e-07	-2.621979e-09	-8.544413e-01	-1.748531e+02
9.200000e-07	1.615080e-08	-2.273711e-09	1.125819e-01	-1.522003e+02
9.300000e-07	1.548527e-07	-1.911472e-09	1.079427e+00	-1.285112e+02
9.400000e-07	2.934782e-07	-1.533267e-09	2.045739e+00	-1.037738e+02
9.500000e-07	4.320584e-07	-1.140421e-09	3.011735e+00	-7.800926e+01
9.600000e-07	5.705786e-07	-7.358699e-10	3.977314e+00	-5.125538e+01
9.700000e-07	7.089856e-07	-3.175803e-10	4.942103e+00	-2.354600e+01
9.800000e-07	8.472066e-07	1.183950e-10	5.905596e+00	5.096314e+00
9.900000e-07	9.852396e-07	5.713021e-10	6.867778e+00	3.464289e+01
1.000000e-06	1.123039e-06	1.037262e-09	7.828329e+00	6.501884e+01
1.010000e-06	1.260485e-06	1.512428e-09	8.786423e+00	9.605820e+01
1.020000e-06	1.397599e-06	1.991785e-09	9.742197e+00	1.274798e+02
1.030000e-06	1.534317e-06	2.469118e-09	1.069521e+01	1.589032e+02
1.040000e-06	1.670564e-06	2.939459e-09	1.164495e+01	1.899059e+02
1.050000e-06	1.806360e-06	3.398312e-09	1.259153e+01	2.201007e+02
1.060000e-06	1.941735e-06	3.840373e-09	1.353519e+01	2.492009e+02
1.070000e-06	2.076618e-06	4.263191e-09	1.447542e+01	2.770465e+02
1.080000e-06	2.210906e-06	4.665447e-09	1.541149e+01	3.035827e+02
1.090000e-06	2.344562e-06	5.046028e-09	1.634317e+01	3.288066e+02
1.100000e-06	2.477604e-06	5.404789e-09	1.727055e+01	3.527151e+02
1.110000e-06	2.609964e-06	5.745983e-09	1.819319e+01	3.752782e+02
1.120000e-06	2.741553e-06	6.070118e-09	1.911046e+01	3.964531e+02
1.130000e-06	2.872291e-06	6.371237e-09	2.002178e+01	4.162208e+02
1.140000e-06	3.002055e-06	6.648712e-09	2.092633e+01	4.346218e+02
1.150000e-06	3.130863e-06	6.907351e-09	2.182420e+01	4.517653e+02
1.160000e-06	3.258714e-06	7.147833e-09	2.271541e+01	4.678022e+02
1.170000e-06	3.385600e-06	7.371841e-09	2.359989e+01	4.828788e+02
1.180000e-06	3.511570e-06	7.583469e-09	2.447799e+01	4.970958e+02
1.190000e-06	3.636643e-06	7.784304e-09	2.534983e+01	5.104938e+02
1.200000e-06	3.760708e-06	7.973547e-09	2.621465e+01	5.230748e+02
1.210000e-06	3.883549e-06	8.151773e-09	2.707093e+01	5.348410e+02
1.220000e-06	4.005095e-06	8.319042e-09	2.791818e+01	5.458310e+02
1.230000e-06	4.125342e-06	8.475852e-09	2.875639e+01	5.561291e+02
1.240000e-06	4.244370e-06	8.624624e-09	2.958609e+01	5.658463e+02
1.250000e-06	4.362212e-06	8.764979e-09	3.040753e+01	5.750846e+02
1.260000e-06	4.478744e-06	8.897324e-09	3.121984e+01	5.839069e+02
1.270000e-06	4.593793e-06	9.022679e-09	3.202180e+01	5.923279e+02
1.280000e-06	4.707327e-06	9.141519e-09	3.281321e+01	6.003299e+02
1.290000e-06	4.819513e-06	9.255240e-09	3.359522e+01	6.078900e+02
1.300000e-06	4.930391e-06	9.364111e-09	3.436811e+01	6.150036e+02
1.310000e-06	5.039983e-06	9.466378e-09	3.513205e+01	6.216911e+02
1.320000e-06	5.148374e-06	9.562519e-09	3.588761e+01	6.279904e+02
1.330000e-06	5.255376e-06	9.652265e-09	3.663348e+01	6.339429e+02
1.340000e-06	5.360798e-06	9.735667e-09	3.736834e+01	6.395867e+02
1.350000e-06	5.464670e-06	9.813227e-09	3.809240e+01	6.449590e+02
1.360000e-06	5.567013e-06	9.888394e-09	3.880580e+01	6.501035e+02
1.370000e-06	5.667905e-06	9.963134e-09	3.950908e+01	6.550706e+02
1.380000e-06	5.767240e-06	1.003707e-08	4.020151e+01	6.599070e+02
1.390000e-06	5.864800e-06	1.010939e-08	4.088157e+01	6.646363e+02
1.400000e-06	5.960580e-06	1.017833e-08	4.154922e+01	6.692449e+02
1.410000e-06	6.054718e-06	1.024241e-08	4.220543e+01	6.736849e+02
1.420000e-06	6.147378e-06	1.030182e-08	4.285133e+01	6.778974e+02
1.430000e-06	6.238414e-06	1.035946e-08	4.348591e+01	6.818466e+02
1.440000e-06	6.327543e-06	1.041533e-08	4.410720e+01	6.855452e+02
1.450000e-06	6.414765e-06	1.046818e-08	4.471520e+01	6.890551e+02
1.460000e-06	6.500189e-06	1.051795e-08	4.531066e+01	6.924599e+02
1.470000e-06	6.583859e-06	1.056670e-08	4.589389e+01	6.958236e+02
1.480000e-06	6.665635e-06	1.061592e-08	4.646393e+01	6.991571e+02
1.490000e-06	6.745381e-06	1.066347e-08	4.701981e+01	7.024121e+02
1.500000e-06	6.823159e-06	1.070747e-08	4.756197e+01	7.055070e+02
1.510000e-06	6.898878e-06	1.074933e-08	4.808979e+01	7.083707e+02
1.520000e-06	6.972383e-06	1.079038e-08	4.860216e+01	7.109800e+02
1.530000e-06	7.043802e-06	1.082926e-08	4.910000e+01	7.133725e+02
1.540000e-06	7.113278e-06	1.086485e-08	4.958430e+01	7.156265e+02
1.550000e-06	7.180638e-06	1.089697e-08	5.005384e+01	7.178233e+02
1.560000e-06	7.245778e-06	1.092848e-08	5.050791e+01	7.200104e+02
1.570000e-06	7.308878e-06	1.096032e-08	5.094776e+01	7.221854e+02
1.580000e-06	7.370114e-06	1.099158e-08	5.137461e+01	7.243048e+02
1.590000e-06	7.429350e-06	1.102119e-08	5.178753e+01	7.263097e+02
1.600000e-06	7.486366e-06	1.104781e-08	5.218497e+01	7.281528e+02
1.610000e-06	7.541212e-06	1.107271e-08	5.256728e+01	7.298133e+02
1.620000e-06	7.593784e-06	1.109535e-08	5.293374e+01	7.312977e+02
1.630000e-06	7.643836e-06	1.111604e-08	5.328264e+01	7.326313e+02
1.640000e-06	7.691454e-06	1.113564e-08	5.361457e+01	7.338500e+02
1.650000e-06	7.736994e-06	1.115472e-08	5.393202e+01	7.349950e+02
1.660000e-06	7.780555e-06	1.117388e-08	5.423566e+01	7.361083e+02
1.670000e-06	7.821853e-06	1.119155e-08	5.452354e+01	7.372244e+02
1.680000e-06	7.860883e-06	1.120832e-08	5.479560e+01	7.383557e+02
1.690000e-06	7.897911e-06	1.122571e-08	5.505371e+01	7.394804e+02
1.700000e-06	7.932794e-06	1.124220e-08	5.529687e+01	7.405413e+02
1.710000e-06	7.965420e-06	1.125623e-08	5.552429e+01	7.414646e+02
1.720000e-06	7.995935e-06	1.126762e-08	5.573701e+01	7.421936e+02
1.730000e-06	8.024399e-06	1.127730e-08	5.593542e+01	7.427219e+02
1.740000e-06	8.050592e-06	1.128639e-08	5.611800e+01	7.431055e+02
1.750000e-06	8.074291e-06	1.129431e-08	5.628320e+01	7.434425e+02
1.760000e-06	8.095776e-06	1.130162e-08	5.643297e+01	7.438280e+02
1.770000e-06	8.115176e-06	1.131032e-08	5.656820e+01	7.443055e+02
1.780000e-06	8.132183e-06	1.131939e-08	5.668675e+01	7.448431e+02
1.790000e-06	8.146774e-06	1.132729e-08	5.678845e+01	7.453497e+02
1.800000e-06	8.158942e-06	1.133280e-08	5.687327e+01	7.457241e+02
1.810000e-06	8.168500e-06	1.133485e-08	5.693990e+01	7.459097e+02
1.820000e-06	8.175574e-06	1.133483e-08	5.698921e+01	7.459229e+02
1.830000e-06	8.180379e-06	1.133472e-08	5.702271e+01	7.458393e+02
1.840000e-06	8.182909e-06	1.133595e-08	5.704034e+01	7.457454e+02
1.850000e-06	8.183076e-06	1.133519e-08	5.704150e+01	7.456860e+02
1.860000e-06	8.180984e-06	1.133417e-08	5.702692e+01	7.456397e+02
1.870000e-06	8.176695e-06	1.133333e-08	5.699702e+01	7.455385e+02
1.880000e-06	8.170115e-06	1.133123e-08	5.695116e+01	7.453179e+02
1.890000e-06	8.161353e-06	1.132805e-08	5.689008e+01	7.449644e+02
1.900000e-06	8.150486e-06	1.132135e-08	5.681433e+01	7.445277e+02
1.910000e-06	8.137272e-06	1.131355e-08	5.672222e+01	7.440860e+02
1.920000e-06	8.121710e-06	1.129669e-08	5.661374e+01	7.436857e+02
1.930000e-06	8.103929e-06	1.129635e-08	5.648980e+01	7.432942e+02
1.940000e-06	8.083394e-06	1.128763e-08	5.634665e+01	7.428036e+02
1.950000e-06	8.059600e-06	1.125841e-08	5.618079e+01	7.420895e+02
1.960000e-06	8.033103e-06	1.124394e-08	5.599609e+01	7.410962e+02
1.970000e-06	8.004602e-06	1.122467e-08	5.579742e+01	7.398974e+02
1.980000e-06	7.974467e-06	1.122731e-08	5.558736e+01	7.386898e+02
1.990000e-06	7.942822e-06	1.120864e-08	5.536678e+01	7.377120e+02
2.000000e-06	7.909231e-06	1.114492e-08	5.513262e+01	7.371268e+02
2.010000e-06	7.873690e-06	1.118854e-08	5.488488e+01	7.369280e+02
2.020000e-06	7.836126e-06	1.124410e-08	5.462303e+01	7.369243e+02
2.030000e-06	7.796039e-06	1.123667e-08	5.434360e+01	7.368162e+02
2.040000e-06	7.753809e-06	1.123953e-08	5.404922e+01	7.363279e+02
2.050000e-06	7.709588e-06	1.118839e-08	5.374098e+01	7.353277e+02
2.060000e-06	7.663201e-06	1.118117e-08	5.341763e+01	7.338756e+02
2.070000e-06	7.614769e-06	1.117824e-08	5.308002e+01	7.321739e+02
2.080000e-06	7.563887e-06	1.112634e-08	5.272534e+01	7.304511e+02
2.090000e-06	7.510481e-06	1.113353e-08	5.235307e+01	7.288412e+02
2.100000e-06	7.454818e-06	1.110036e-08	5.196506e+01	7.273241e+02
2.110000e-06	7.396985e-06	1.106550e-08	5.156192e+01	7.257541e+02
2.120000e-06	7.337042e-06	1.104626e-08	5.114408e+01	7.239554e+02
2.130000e-06	7.274786e-06	1.099332e-08	5.071012e+01	7.218278e+02
2.140000e-06	7.210367e-06	1.097467e-08	5.026107e+01	7.194031e+02
2.150000e-06	7.143955e-06	1.093199e-08	4.979813e+01	7.168232e+02
2.160000e-06	7.075379e-06	1.091692e-08	4.932012e+01	7.142570e+02
2.170000e-06	7.004526e-06	1.088207e-08	4.882623e+01	7.118047e+02
2.180000e-06	6.931421e-06	1.082674e-08	4.831663e+01	7.094458e+02
2.190000e-06	6.856230e-06	1.080123e-08	4.779250e+01	7.070546e+02
2.200000e-06	6.778808e-06	1.074199e-08	4.725282e+01	7.044734e+02
2.210000e-06	6.699190e-06	1.071494e-08	4.669783e+01	7.015971e+02
2.220000e-06	6.617645e-06	1.066061e-08	4.612940e+01	6.984233e+02
2.230000e-06	6.534237e-06	1.061367e-08	4.554800e+01	6.950423e+02
2.240000e-06	6.448898e-06	1.057338e-08	4.495312e+01	6.915780e+02
2.250000e-06	6.361566e-06	1.051365e-08	4.434436e+01	6.881152e+02
2.260000e-06	6.272472e-06	1.046431e-08	4.372332e+01	6.846561e+02
2.270000e-06	6.181752e-06	1.039812e-08	4.309094e+01	6.811245e+02
2.280000e-06	6.089313e-06	1.035109e-08	4.244658e+01	6.774133e+02
2.290000e-06	5.995047e-06	1.028483e-08	4.178948e+01	6.734426e+02
2.300000e-06	5.899085e-06	1.022411e-08	4.112056e+01	6.691977e+02
2.310000e-06	5.801629e-06	1.015779e-08	4.044123e+01	6.647274e+02
2.320000e-06	5.702685e-06	1.009228e-08	3.975152e+01	6.601093e+02
2.330000e-06	5.602088e-06	1.002409e-08	3.905029e+01	6.554048e+02
2.340000e-06	5.499784e-06	9.943051e-09	3.833717e+01	6.506283e+02
2.350000e-06	5.395950e-06	9.875153e-09	3.761337e+01	6.457460e+02
2.360000e-06	5.290680e-06	9.800171e-09	3.687957e+01	6.406988e+02
2.370000e-06	5.184084e-06	9.727902e-09	3.613653e+01	6.354339e+02
2.380000e-06	5.076112e-06	9.638663e-09	3.538389e+01	6.299266e+02
2.390000e-06	4.966736e-06	9.550626e-09	3.462146e+01	6.241838e+02
2.400000e-06	4.855953e-06	9.457119e-09	3.384924e+01	6.182310e+02
2.410000e-06	4.743690e-06	9.363895e-09	3.306668e+01	6.120928e+02
2.420000e-06	4.630053e-06	9.270880e-09	3.227456e+01	6.057787e+02
2.430000e-06	4.515062e-06	9.173243e-09	3.147300e+01	5.992787e+02
2.440000e-06	4.398628e-06	9.076832e-09	3.066138e+01	5.925682e+02
2.450000e-06	4.280774e-06	8.972225e-09	2.983985e+01	5.856161e+02
2.460000e-06	4.161612e-06	8.864153e-09	2.900922e+01	5.783928e+02
2.470000e-06	4.041169e-06	8.745577e-09	2.816964e+01	5.708757e+02
2.480000e-06	3.919485e-06	8.627732e-09	2.732142e+01	5.630533e+02
2.490000e-06	3.796650e-06	8.505213e-09	2.646518e+01	5.549260e+02
2.500000e-06	3.672725e-06	8.380524e-09	2.560135e+01	5.465056e+02
2.510000e-06	3.547676e-06	8.247140e-09	2.472967e+01	5.378082e+02
2.520000e-06	3.421517e-06	8.109658e-09	2.385026e+01	5.288436e+02
2.530000e-06	3.294325e-06	7.971483e-09	2.296364e+01	5.196045e+02
2.540000e-06	3.166123e-06	7.827416e-09	2.206999e+01	5.100609e+02
2.550000e-06	3.036959e-06	7.676507e-09	2.116963e+01	5.001655e+02
2.560000e-06	2.906904e-06	7.517229e-09	2.026306e+01	4.898690e+02
2.570000e-06	2.776029e-06	7.355694e-09	1.935077e+01	4.791387e+02
2.580000e-06	2.644396e-06	7.186519e-09	1.843320e+01	4.679708e+02
2.590000e-06	2.512033e-06	7.009756e-09	1.751055e+01	4.563890e+02
2.600000e-06	2.378889e-06	6.826074e-09	1.658245e+01	4.444289e+02
2.610000e-06	2.245041e-06	6.640891e-09	1.564943e+01	4.321166e+02
2.620000e-06	2.110640e-06	6.451439e-09	1.471257e+01	4.194517e+02
2.630000e-06	1.975692e-06	6.254588e-09	1.377189e+01	4.064035e+02
2.640000e-06	1.840154e-06	6.048164e-09	1.282710e+01	3.929211e+02
2.650000e-06	1.704042e-06	5.832137e-09	1.187831e+01	3.789502e+02
2.660000e-06	1.567462e-06	5.609332e-09	1.092626e+01	3.644479e+02
2.670000e-06	1.430538e-06	5.377845e-09	9.971804e+00	3.493879e+02
2.680000e-06	1.293324e-06	5.138408e-09	9.015331e+00	3.337554e+02
2.690000e-06	1.155841e-06	4.890850e-09	8.056987e+00	3.175383e+02
2.700000e-06	1.018107e-06	4.635270e-09	7.096884e+00	3.007192e+02
2.710000e-06	8.800921e-07	4.369478e-09	6.134829e+00	2.832735e+02
2.720000e-06	7.417872e-07	4.091291e-09	5.170752e+00	2.651696e+02
2.730000e-06	6.033333e-07	3.802203e-09	4.205636e+00	2.463689e+02
2.740000e-06	4.648115e-07	3.504132e-09	3.240047e+00	2.268232e+02
2.750000e-06	3.261845e-07	3.196104e-09	2.273724e+00	2.064704e+02
2.760000e-06	1.875102e-07	2.875591e-09	1.307071e+00	1.852362e+02
2.770000e-06	4.881182e-08	2.540562e-09	3.402510e-01	1.630443e+02
2.780000e-06	-8.989424e-08	2.187016e-09	-6.266229e-01	1.398340e+02
2.790000e-06	-2.285563e-07	1.813850e-09	-1.593190e+00	1.155761e+02
2.800000e-06	-3.671522e-07	1.423865e-09	-2.559296e+00	9.027808e+01
2.810000e-06	-5.056969e-07	1.021316e-09	-3.525045e+00	6.397280e+01
2.820000e-06	-6.441293e-07	6.067514e-10	-4.490011e+00	3.669796e+01
2.830000e-06	-7.823811e-07	1.772586e-10	-5.453718e+00	8.480755e+00
2.840000e-06	-9.204386e-07	-2.672415e-10	-6.416072e+00	-2.065678e+01
2.850000e-06	-1.058271e-06	-7.259617e-10	-7.376852e+00	-5.066681e+01
2.860000e-06	-1.195853e-06	-1.195758e-09	-8.335891e+00	-8.142993e+01
2.870000e-06	-1.333124e-06	-1.673261e-09	-9.292763e+00	-1.127185e+02
2.880000e-06	-1.470059e-06	-2.153653e-09	-1.024729e+01	-1.441927e+02
2.890000e-06	-1.606666e-06	-2.631258e-09	-1.119953e+01	-1.754403e+02
2.900000e-06	-1.742854e-06	-3.099154e-09	-1.214886e+01	-2.060482e+02
2.910000e-06	-1.878518e-06	-3.552572e-09	-1.309453e+01	-2.356776e+02
2.920000e-06	-2.013644e-06	-3.990303e-09	-1.403644e+01	-2.641104e+02
2.930000e-06	-2.148229e-06	-4.408302e-09	-1.497459e+01	-2.912488e+02
2.940000e-06	-2.282170e-06	-4.804798e-09	-1.590825e+01	-3.170736e+02
2.950000e-06	-2.415394e-06	-5.181135e-09	-1.683691e+01	-3.415870e+02
