# Temperatura_=_20.0
# Concentracion g/m^3_=_10000.0
# C_Vs_to_Am_M_A/Vsm_=_65563218390.804596
# pendiente_HvsI_1/m_=_3716.3
# ordenada_HvsI_A/m_=_1297.0
# frecuencia_Hz_=_269586.324088631

Tiempo_(s)	Campo_(V.s)	Magnetizacion_(V.s)	Campo_(kA/m)	Magnetizacion_(A/m)
0.000000e+00	-8.259490e-06	-1.155615e-08	-5.699882e+01	-7.552736e+02
1.000000e-08	-8.256700e-06	-1.156163e-08	-5.697956e+01	-7.554531e+02
2.000000e-08	-8.251628e-06	-1.156078e-08	-5.694456e+01	-7.555799e+02
3.000000e-08	-8.244578e-06	-1.155688e-08	-5.689591e+01	-7.554667e+02
4.000000e-08	-8.235320e-06	-1.155425e-08	-5.683202e+01	-7.550390e+02
5.000000e-08	-8.223547e-06	-1.155014e-08	-5.675077e+01	-7.543829e+02
6.000000e-08	-8.209295e-06	-1.154138e-08	-5.665242e+01	-7.536918e+02
7.000000e-08	-8.192580e-06	-1.151570e-08	-5.653707e+01	-7.531431e+02
8.000000e-08	-8.173624e-06	-1.152555e-08	-5.640626e+01	-7.527784e+02
9.000000e-08	-8.152358e-06	-1.158054e-08	-5.625950e+01	-7.524650e+02
1.000000e-07	-8.128416e-06	-1.155246e-08	-5.609428e+01	-7.519684e+02
1.100000e-07	-8.101733e-06	-1.150577e-08	-5.591013e+01	-7.511001e+02
1.200000e-07	-8.072749e-06	-1.152951e-08	-5.571012e+01	-7.498539e+02
1.300000e-07	-8.042028e-06	-1.145802e-08	-5.549811e+01	-7.484458e+02
1.400000e-07	-8.009662e-06	-1.139298e-08	-5.527475e+01	-7.472252e+02
1.500000e-07	-7.975251e-06	-1.152399e-08	-5.503728e+01	-7.464980e+02
1.600000e-07	-7.938755e-06	-1.140192e-08	-5.478543e+01	-7.463564e+02
1.700000e-07	-7.900263e-06	-1.136662e-08	-5.451979e+01	-7.466112e+02
1.800000e-07	-7.859371e-06	-1.149326e-08	-5.423759e+01	-7.468665e+02
1.900000e-07	-7.816194e-06	-1.136203e-08	-5.393963e+01	-7.467007e+02
2.000000e-07	-7.770954e-06	-1.137846e-08	-5.362743e+01	-7.458575e+02
2.100000e-07	-7.723570e-06	-1.135468e-08	-5.330043e+01	-7.443479e+02
2.200000e-07	-7.673782e-06	-1.128159e-08	-5.295684e+01	-7.424147e+02
2.300000e-07	-7.621303e-06	-1.130113e-08	-5.259468e+01	-7.403852e+02
2.400000e-07	-7.566468e-06	-1.126670e-08	-5.221627e+01	-7.384986e+02
2.500000e-07	-7.509503e-06	-1.124551e-08	-5.182315e+01	-7.368013e+02
2.600000e-07	-7.450273e-06	-1.120182e-08	-5.141441e+01	-7.351583e+02
2.700000e-07	-7.388871e-06	-1.118340e-08	-5.099066e+01	-7.333622e+02
2.800000e-07	-7.325380e-06	-1.115458e-08	-5.055251e+01	-7.312673e+02
2.900000e-07	-7.259710e-06	-1.109805e-08	-5.009932e+01	-7.288696e+02
3.000000e-07	-7.191794e-06	-1.108548e-08	-4.963064e+01	-7.262926e+02
3.100000e-07	-7.121730e-06	-1.101261e-08	-4.914713e+01	-7.236968e+02
3.200000e-07	-7.049572e-06	-1.100158e-08	-4.864916e+01	-7.211748e+02
3.300000e-07	-6.975205e-06	-1.096911e-08	-4.813596e+01	-7.186976e+02
3.400000e-07	-6.898490e-06	-1.089732e-08	-4.760654e+01	-7.161402e+02
3.500000e-07	-6.819422e-06	-1.087067e-08	-4.706089e+01	-7.133644e+02
3.600000e-07	-6.738226e-06	-1.081230e-08	-4.650056e+01	-7.103046e+02
3.700000e-07	-6.655142e-06	-1.077674e-08	-4.592719e+01	-7.070013e+02
3.800000e-07	-6.570211e-06	-1.072215e-08	-4.534109e+01	-7.035669e+02
3.900000e-07	-6.483488e-06	-1.067166e-08	-4.474261e+01	-7.001080e+02
4.000000e-07	-6.395064e-06	-1.061267e-08	-4.413240e+01	-6.966551e+02
4.100000e-07	-6.304823e-06	-1.055696e-08	-4.350964e+01	-6.931448e+02
4.200000e-07	-6.212680e-06	-1.050976e-08	-4.287376e+01	-6.894606e+02
4.300000e-07	-6.118788e-06	-1.043597e-08	-4.222582e+01	-6.855060e+02
4.400000e-07	-6.023228e-06	-1.037516e-08	-4.156635e+01	-6.812612e+02
4.500000e-07	-5.925933e-06	-1.030550e-08	-4.089492e+01	-6.767900e+02
4.600000e-07	-5.826941e-06	-1.024200e-08	-4.021177e+01	-6.721946e+02
4.700000e-07	-5.726348e-06	-1.017026e-08	-3.951758e+01	-6.675496e+02
4.800000e-07	-5.624252e-06	-1.009460e-08	-3.881301e+01	-6.628556e+02
4.900000e-07	-5.520625e-06	-1.001853e-08	-3.809789e+01	-6.580419e+02
5.000000e-07	-5.415417e-06	-9.941014e-09	-3.737184e+01	-6.530114e+02
5.100000e-07	-5.308707e-06	-9.860245e-09	-3.663544e+01	-6.476991e+02
5.200000e-07	-5.200577e-06	-9.766256e-09	-3.588923e+01	-6.421068e+02
5.300000e-07	-5.091071e-06	-9.680154e-09	-3.513353e+01	-6.362945e+02
5.400000e-07	-4.980219e-06	-9.592260e-09	-3.436854e+01	-6.303359e+02
5.500000e-07	-4.867937e-06	-9.502383e-09	-3.359368e+01	-6.242691e+02
5.600000e-07	-4.754137e-06	-9.402571e-09	-3.280834e+01	-6.180711e+02
5.700000e-07	-4.638860e-06	-9.300859e-09	-3.201282e+01	-6.116717e+02
5.800000e-07	-4.522192e-06	-9.199637e-09	-3.120769e+01	-6.049935e+02
5.900000e-07	-4.404240e-06	-9.096590e-09	-3.039370e+01	-5.979933e+02
6.000000e-07	-4.285073e-06	-8.985209e-09	-2.957133e+01	-5.906788e+02
6.100000e-07	-4.164630e-06	-8.862627e-09	-2.874015e+01	-5.830937e+02
6.200000e-07	-4.042831e-06	-8.743912e-09	-2.789961e+01	-5.752838e+02
6.300000e-07	-3.919719e-06	-8.623901e-09	-2.705002e+01	-5.672660e+02
6.400000e-07	-3.795443e-06	-8.498719e-09	-2.619238e+01	-5.590187e+02
6.500000e-07	-3.670044e-06	-8.362607e-09	-2.532701e+01	-5.504945e+02
6.600000e-07	-3.543619e-06	-8.223880e-09	-2.445455e+01	-5.416452e+02
6.700000e-07	-3.416322e-06	-8.087169e-09	-2.357607e+01	-5.324395e+02
6.800000e-07	-3.288014e-06	-7.945251e-09	-2.269061e+01	-5.228663e+02
6.900000e-07	-3.158587e-06	-7.791941e-09	-2.179744e+01	-5.129241e+02
7.000000e-07	-3.028110e-06	-7.629696e-09	-2.089702e+01	-5.026093e+02
7.100000e-07	-2.896684e-06	-7.464695e-09	-1.999004e+01	-4.919139e+02
7.200000e-07	-2.764404e-06	-7.295512e-09	-1.907718e+01	-4.808331e+02
7.300000e-07	-2.631309e-06	-7.119996e-09	-1.815869e+01	-4.693739e+02
7.400000e-07	-2.497477e-06	-6.937042e-09	-1.723511e+01	-4.575545e+02
7.500000e-07	-2.363029e-06	-6.752042e-09	-1.630728e+01	-4.453902e+02
7.600000e-07	-2.227963e-06	-6.563337e-09	-1.537519e+01	-4.328720e+02
7.700000e-07	-2.092172e-06	-6.367162e-09	-1.443810e+01	-4.199547e+02
7.800000e-07	-1.955661e-06	-6.160927e-09	-1.349604e+01	-4.065649e+02
7.900000e-07	-1.818580e-06	-5.947475e-09	-1.255004e+01	-3.926290e+02
8.000000e-07	-1.681067e-06	-5.728305e-09	-1.160106e+01	-3.781064e+02
8.100000e-07	-1.543150e-06	-5.499172e-09	-1.064929e+01	-3.630070e+02
8.200000e-07	-1.404768e-06	-5.260225e-09	-9.694319e+00	-3.473805e+02
8.300000e-07	-1.265937e-06	-5.012233e-09	-8.736243e+00	-3.312795e+02
8.400000e-07	-1.126793e-06	-4.760147e-09	-7.776006e+00	-3.147163e+02
8.500000e-07	-9.874047e-07	-4.502105e-09	-6.814089e+00	-2.976367e+02
8.600000e-07	-8.477774e-07	-4.232898e-09	-5.850520e+00	-2.799276e+02
8.700000e-07	-7.079852e-07	-3.948923e-09	-4.885813e+00	-2.614526e+02
8.800000e-07	-5.680397e-07	-3.652611e-09	-3.920047e+00	-2.420993e+02
8.900000e-07	-4.279998e-07	-3.344971e-09	-2.953631e+00	-2.218113e+02
9.000000e-07	-2.879330e-07	-3.019587e-09	-1.987028e+00	-2.005896e+02
9.100000e-07	-1.477638e-07	-2.678928e-09	-1.019720e+00	-1.784664e+02
9.200000e-07	-7.474602e-09	-2.324961e-09	-5.158230e-02	-1.554670e+02
9.300000e-07	1.328200e-07	-1.959516e-09	9.165920e-01	-1.315805e+02
9.400000e-07	2.730466e-07	-1.581640e-09	1.884297e+00	-1.067546e+02
9.500000e-07	4.132400e-07	-1.188683e-09	2.851773e+00	-8.091281e+01
9.600000e-07	5.533436e-07	-7.802135e-10	3.818629e+00	-5.398409e+01
9.700000e-07	6.933269e-07	-3.561491e-10	4.784656e+00	-2.593179e+01
9.800000e-07	8.331639e-07	8.576246e-11	5.749672e+00	3.225502e+00
9.900000e-07	9.727805e-07	5.480542e-10	6.713167e+00	3.340103e+01
1.000000e-06	1.112118e-06	1.025738e-09	7.674740e+00	6.443167e+01
1.010000e-06	1.251157e-06	1.511299e-09	8.634245e+00	9.607400e+01
1.020000e-06	1.389826e-06	1.996978e-09	9.591201e+00	1.280099e+02
1.030000e-06	1.528074e-06	2.478217e-09	1.054526e+01	1.598689e+02
1.040000e-06	1.665912e-06	2.953001e-09	1.149647e+01	1.912689e+02
1.050000e-06	1.803239e-06	3.417562e-09	1.244417e+01	2.218667e+02
1.060000e-06	1.940100e-06	3.864768e-09	1.338865e+01	2.513996e+02
1.070000e-06	2.076415e-06	4.293625e-09	1.432936e+01	2.797022e+02
1.080000e-06	2.212026e-06	4.705146e-09	1.526521e+01	3.066903e+02
1.090000e-06	2.346940e-06	5.095000e-09	1.619626e+01	3.323242e+02
1.100000e-06	2.481254e-06	5.460279e-09	1.712315e+01	3.565721e+02
1.110000e-06	2.614947e-06	5.802479e-09	1.804578e+01	3.793948e+02
1.120000e-06	2.747881e-06	6.125083e-09	1.896315e+01	4.007606e+02
1.130000e-06	2.880009e-06	6.425083e-09	1.987497e+01	4.206760e+02
1.140000e-06	3.011301e-06	6.702578e-09	2.078101e+01	4.392114e+02
1.150000e-06	3.141698e-06	6.962913e-09	2.168089e+01	4.564988e+02
1.160000e-06	3.271067e-06	7.208477e-09	2.257366e+01	4.726992e+02
1.170000e-06	3.399286e-06	7.439501e-09	2.345851e+01	4.879553e+02
1.180000e-06	3.526423e-06	7.656642e-09	2.433588e+01	5.023546e+02
1.190000e-06	3.652667e-06	7.861297e-09	2.520709e+01	5.159258e+02
1.200000e-06	3.777974e-06	8.052541e-09	2.607184e+01	5.286677e+02
1.210000e-06	3.902180e-06	8.230674e-09	2.692898e+01	5.405922e+02
1.220000e-06	4.025217e-06	8.397405e-09	2.777806e+01	5.517549e+02
1.230000e-06	4.146987e-06	8.556273e-09	2.861839e+01	5.622531e+02
1.240000e-06	4.267387e-06	8.707885e-09	2.944928e+01	5.721942e+02
1.250000e-06	4.386538e-06	8.852291e-09	3.027154e+01	5.816564e+02
1.260000e-06	4.504535e-06	8.990808e-09	3.108583e+01	5.906665e+02
1.270000e-06	4.621238e-06	9.122052e-09	3.189120e+01	5.992106e+02
1.280000e-06	4.736523e-06	9.244552e-09	3.268679e+01	6.072687e+02
1.290000e-06	4.850291e-06	9.359707e-09	3.347190e+01	6.148507e+02
1.300000e-06	4.962506e-06	9.468662e-09	3.424630e+01	6.220079e+02
1.310000e-06	5.073285e-06	9.570344e-09	3.501079e+01	6.288131e+02
1.320000e-06	5.182755e-06	9.665981e-09	3.576624e+01	6.353229e+02
1.330000e-06	5.290897e-06	9.757312e-09	3.651253e+01	6.415487e+02
1.340000e-06	5.397701e-06	9.846468e-09	3.724959e+01	6.474599e+02
1.350000e-06	5.502965e-06	9.932070e-09	3.797601e+01	6.530196e+02
1.360000e-06	5.606562e-06	1.001183e-08	3.869094e+01	6.582302e+02
1.370000e-06	5.708613e-06	1.008686e-08	3.939519e+01	6.631580e+02
1.380000e-06	5.809093e-06	1.015901e-08	4.008861e+01	6.679158e+02
1.390000e-06	5.907973e-06	1.022961e-08	4.077098e+01	6.726100e+02
1.400000e-06	6.005132e-06	1.029840e-08	4.144147e+01	6.772823e+02
1.410000e-06	6.100461e-06	1.036500e-08	4.209934e+01	6.818832e+02
1.420000e-06	6.194100e-06	1.042915e-08	4.274554e+01	6.862976e+02
1.430000e-06	6.286175e-06	1.049033e-08	4.338095e+01	6.904109e+02
1.440000e-06	6.376513e-06	1.054782e-08	4.400438e+01	6.941799e+02
1.450000e-06	6.464881e-06	1.060175e-08	4.461421e+01	6.976641e+02
1.460000e-06	6.551349e-06	1.065179e-08	4.521092e+01	7.009995e+02
1.470000e-06	6.636105e-06	1.070044e-08	4.579582e+01	7.043257e+02
1.480000e-06	6.719101e-06	1.075044e-08	4.636858e+01	7.077095e+02
1.490000e-06	6.800078e-06	1.079981e-08	4.692740e+01	7.111075e+02
1.500000e-06	6.878960e-06	1.084582e-08	4.747176e+01	7.143907e+02
1.510000e-06	6.955795e-06	1.088841e-08	4.800201e+01	7.174164e+02
1.520000e-06	7.030512e-06	1.092983e-08	4.851763e+01	7.201065e+02
1.530000e-06	7.103053e-06	1.096994e-08	4.901824e+01	7.224888e+02
1.540000e-06	7.173462e-06	1.100651e-08	4.950413e+01	7.246794e+02
1.550000e-06	7.241839e-06	1.103812e-08	4.997600e+01	7.268203e+02
1.560000e-06	7.308078e-06	1.106837e-08	5.043312e+01	7.290084e+02
1.570000e-06	7.372107e-06	1.110016e-08	5.087498e+01	7.312554e+02
1.580000e-06	7.434125e-06	1.113219e-08	5.130297e+01	7.334952e+02
1.590000e-06	7.494257e-06	1.116223e-08	5.171794e+01	7.356298e+02
1.600000e-06	7.552274e-06	1.119006e-08	5.211831e+01	7.375803e+02
1.610000e-06	7.607990e-06	1.121909e-08	5.250281e+01	7.393174e+02
1.620000e-06	7.661473e-06	1.124645e-08	5.287190e+01	7.408586e+02
1.630000e-06	7.712552e-06	1.126838e-08	5.322439e+01	7.422447e+02
1.640000e-06	7.761143e-06	1.128672e-08	5.355972e+01	7.435167e+02
1.650000e-06	7.807511e-06	1.130395e-08	5.387971e+01	7.447079e+02
1.660000e-06	7.851851e-06	1.132164e-08	5.418570e+01	7.458502e+02
1.670000e-06	7.893977e-06	1.133898e-08	5.447641e+01	7.469797e+02
1.680000e-06	7.933783e-06	1.135534e-08	5.475111e+01	7.481268e+02
1.690000e-06	7.971452e-06	1.137264e-08	5.501106e+01	7.492938e+02
1.700000e-06	8.007060e-06	1.139182e-08	5.525679e+01	7.504341e+02
1.710000e-06	8.040393e-06	1.140877e-08	5.548683e+01	7.514576e+02
1.720000e-06	8.071445e-06	1.142192e-08	5.570112e+01	7.522681e+02
1.730000e-06	8.100461e-06	1.143005e-08	5.590136e+01	7.528196e+02
1.740000e-06	8.127287e-06	1.143520e-08	5.608648e+01	7.531570e+02
1.750000e-06	8.151698e-06	1.144032e-08	5.625494e+01	7.534103e+02
1.760000e-06	8.173761e-06	1.144587e-08	5.640720e+01	7.537363e+02
1.770000e-06	8.193680e-06	1.145468e-08	5.654466e+01	7.542345e+02
1.780000e-06	8.211372e-06	1.146819e-08	5.666675e+01	7.548844e+02
1.790000e-06	8.226617e-06	1.148195e-08	5.677196e+01	7.555475e+02
1.800000e-06	8.239366e-06	1.149132e-08	5.685994e+01	7.560375e+02
1.810000e-06	8.249451e-06	1.149290e-08	5.692953e+01	7.562244e+02
1.820000e-06	8.256968e-06	1.148833e-08	5.698141e+01	7.561120e+02
1.830000e-06	8.262229e-06	1.148292e-08	5.701772e+01	7.558410e+02
1.840000e-06	8.265174e-06	1.147894e-08	5.703804e+01	7.556109e+02
1.850000e-06	8.265675e-06	1.148092e-08	5.704150e+01	7.555642e+02
1.860000e-06	8.263917e-06	1.148230e-08	5.702937e+01	7.557012e+02
1.870000e-06	8.260059e-06	1.148303e-08	5.700275e+01	7.558783e+02
1.880000e-06	8.253878e-06	1.148673e-08	5.696009e+01	7.558933e+02
1.890000e-06	8.245371e-06	1.148498e-08	5.690138e+01	7.556087e+02
1.900000e-06	8.234726e-06	1.147651e-08	5.682792e+01	7.550375e+02
1.910000e-06	8.221743e-06	1.147044e-08	5.673832e+01	7.543362e+02
1.920000e-06	8.206351e-06	1.148182e-08	5.663210e+01	7.537068e+02
1.930000e-06	8.188770e-06	1.143199e-08	5.651078e+01	7.532642e+02
1.940000e-06	8.168560e-06	1.136515e-08	5.637131e+01	7.529532e+02
1.950000e-06	8.145046e-06	1.139313e-08	5.620904e+01	7.525705e+02
1.960000e-06	8.118652e-06	1.138660e-08	5.602689e+01	7.518868e+02
1.970000e-06	8.090168e-06	1.137391e-08	5.583033e+01	7.507998e+02
1.980000e-06	8.059983e-06	1.147021e-08	5.562202e+01	7.494271e+02
1.990000e-06	8.028344e-06	1.131728e-08	5.540367e+01	7.480754e+02
2.000000e-06	7.994835e-06	1.128163e-08	5.517243e+01	7.470947e+02
2.010000e-06	7.959304e-06	1.141030e-08	5.492723e+01	7.466913e+02
2.020000e-06	7.921776e-06	1.130463e-08	5.466825e+01	7.468045e+02
2.030000e-06	7.881658e-06	1.144501e-08	5.439140e+01	7.471152e+02
2.040000e-06	7.839300e-06	1.142344e-08	5.409908e+01	7.471881e+02
2.050000e-06	7.795046e-06	1.131598e-08	5.379368e+01	7.466709e+02
2.060000e-06	7.748556e-06	1.145561e-08	5.347286e+01	7.454481e+02
2.070000e-06	7.699991e-06	1.133926e-08	5.313771e+01	7.436694e+02
2.080000e-06	7.649002e-06	1.134305e-08	5.278584e+01	7.416454e+02
2.090000e-06	7.595268e-06	1.132501e-08	5.241502e+01	7.396748e+02
2.100000e-06	7.539252e-06	1.123513e-08	5.202845e+01	7.378983e+02
2.110000e-06	7.481180e-06	1.130183e-08	5.162770e+01	7.362551e+02
2.120000e-06	7.421118e-06	1.118257e-08	5.121320e+01	7.345538e+02
2.130000e-06	7.358748e-06	1.120643e-08	5.078279e+01	7.326057e+02
2.140000e-06	7.294111e-06	1.114835e-08	5.033673e+01	7.303377e+02
2.150000e-06	7.227473e-06	1.111166e-08	4.987686e+01	7.278226e+02
2.160000e-06	7.158567e-06	1.113161e-08	4.940134e+01	7.252178e+02
2.170000e-06	7.087337e-06	1.099808e-08	4.890978e+01	7.226579e+02
2.180000e-06	7.013856e-06	1.104133e-08	4.840268e+01	7.201715e+02
2.190000e-06	6.938256e-06	1.095885e-08	4.788097e+01	7.176695e+02
2.200000e-06	6.860352e-06	1.093623e-08	4.734335e+01	7.150079e+02
2.210000e-06	6.780240e-06	1.089662e-08	4.679050e+01	7.120796e+02
2.220000e-06	6.698313e-06	1.080917e-08	4.622512e+01	7.088768e+02
2.230000e-06	6.614512e-06	1.080314e-08	4.564681e+01	7.054870e+02
2.240000e-06	6.528659e-06	1.071436e-08	4.505434e+01	7.020298e+02
2.250000e-06	6.440725e-06	1.070233e-08	4.444750e+01	6.985767e+02
2.260000e-06	6.351093e-06	1.061438e-08	4.382895e+01	6.951056e+02
2.270000e-06	6.259830e-06	1.057455e-08	4.319915e+01	6.915160e+02
2.280000e-06	6.166717e-06	1.052096e-08	4.255657e+01	6.876933e+02
2.290000e-06	6.071738e-06	1.044790e-08	4.190112e+01	6.835781e+02
2.300000e-06	5.975037e-06	1.039356e-08	4.123379e+01	6.791988e+02
2.310000e-06	5.876856e-06	1.029948e-08	4.055624e+01	6.746480e+02
2.320000e-06	5.777167e-06	1.025645e-08	3.986828e+01	6.700207e+02
2.330000e-06	5.675815e-06	1.017493e-08	3.916885e+01	6.653543e+02
2.340000e-06	5.572689e-06	1.011009e-08	3.845718e+01	6.606074e+02
2.350000e-06	5.467981e-06	1.002238e-08	3.773459e+01	6.556875e+02
2.360000e-06	5.361941e-06	9.954777e-09	3.700280e+01	6.505084e+02
2.370000e-06	5.254624e-06	9.882895e-09	3.626221e+01	6.450399e+02
2.380000e-06	5.145935e-06	9.794191e-09	3.551215e+01	6.393188e+02
2.390000e-06	5.035713e-06	9.703236e-09	3.475150e+01	6.334195e+02
2.400000e-06	4.923985e-06	9.599635e-09	3.398046e+01	6.274013e+02
2.410000e-06	4.810826e-06	9.515032e-09	3.319955e+01	6.212701e+02
2.420000e-06	4.696335e-06	9.418125e-09	3.240945e+01	6.149733e+02
2.430000e-06	4.580364e-06	9.319238e-09	3.160913e+01	6.084311e+02
2.440000e-06	4.462809e-06	9.213403e-09	3.079788e+01	6.015807e+02
2.450000e-06	4.343802e-06	9.113373e-09	2.997661e+01	5.944063e+02
2.460000e-06	4.223486e-06	9.003208e-09	2.914632e+01	5.869388e+02
2.470000e-06	4.101997e-06	8.883359e-09	2.830792e+01	5.792276e+02
2.480000e-06	3.979422e-06	8.757182e-09	2.746203e+01	5.713056e+02
2.490000e-06	3.855666e-06	8.633046e-09	2.660799e+01	5.631684e+02
2.500000e-06	3.730651e-06	8.510288e-09	2.574526e+01	5.547776e+02
2.510000e-06	3.604514e-06	8.380089e-09	2.487478e+01	5.460825e+02
2.520000e-06	3.477285e-06	8.241311e-09	2.399678e+01	5.370426e+02
2.530000e-06	3.348981e-06	8.099210e-09	2.311135e+01	5.276384e+02
2.540000e-06	3.219673e-06	7.953807e-09	2.221900e+01	5.178654e+02
2.550000e-06	3.089522e-06	7.799539e-09	2.132082e+01	5.077222e+02
2.560000e-06	2.958534e-06	7.636677e-09	2.041687e+01	4.972024e+02
2.570000e-06	2.826594e-06	7.468458e-09	1.950635e+01	4.862983e+02
2.580000e-06	2.693812e-06	7.301926e-09	1.859002e+01	4.750107e+02
2.590000e-06	2.560274e-06	7.127358e-09	1.766847e+01	4.633539e+02
2.600000e-06	2.425899e-06	6.942759e-09	1.674115e+01	4.513469e+02
2.610000e-06	2.290796e-06	6.751634e-09	1.580881e+01	4.389943e+02
2.620000e-06	2.155117e-06	6.558616e-09	1.487248e+01	4.262678e+02
2.630000e-06	2.018920e-06	6.358726e-09	1.393258e+01	4.131045e+02
2.640000e-06	1.882188e-06	6.148875e-09	1.298899e+01	3.994267e+02
2.650000e-06	1.744911e-06	5.928503e-09	1.204165e+01	3.851749e+02
2.660000e-06	1.607125e-06	5.701120e-09	1.109079e+01	3.703355e+02
2.670000e-06	1.468911e-06	5.468933e-09	1.013697e+01	3.549433e+02
2.680000e-06	1.330420e-06	5.228373e-09	9.181242e+00	3.390549e+02
2.690000e-06	1.191661e-06	4.978801e-09	8.223662e+00	3.227060e+02
2.700000e-06	1.052582e-06	4.720277e-09	7.263875e+00	3.058742e+02
2.710000e-06	9.132682e-07	4.452656e-09	6.302472e+00	2.884703e+02
2.720000e-06	7.737322e-07	4.174519e-09	5.339533e+00	2.703628e+02
2.730000e-06	6.338835e-07	3.882984e-09	4.374436e+00	2.514229e+02
2.740000e-06	4.938202e-07	3.579156e-09	3.407858e+00	2.315663e+02
2.750000e-06	3.536914e-07	3.264550e-09	2.440828e+00	2.107696e+02
2.760000e-06	2.135635e-07	2.938523e-09	1.473803e+00	1.890552e+02
2.770000e-06	7.338466e-08	2.599216e-09	5.064282e-01	1.664562e+02
2.780000e-06	-6.685242e-08	2.241990e-09	-4.613492e-01	1.429804e+02
2.790000e-06	-2.070864e-07	1.866811e-09	-1.429105e+00	1.185937e+02
2.800000e-06	-3.472694e-07	1.475825e-09	-2.396509e+00	9.322750e+01
2.810000e-06	-4.874045e-07	1.071307e-09	-3.363583e+00	6.680423e+01
2.820000e-06	-6.273827e-07	6.504275e-10	-4.329574e+00	3.926833e+01
2.830000e-06	-7.671143e-07	2.116232e-10	-5.293863e+00	1.061110e+01
2.840000e-06	-9.066169e-07	-2.422025e-10	-6.256572e+00	-1.911319e+01
2.850000e-06	-1.045889e-06	-7.090414e-10	-7.217690e+00	-4.977723e+01
2.860000e-06	-1.184908e-06	-1.187014e-09	-8.177061e+00	-8.117445e+01
2.870000e-06	-1.323569e-06	-1.672723e-09	-9.133960e+00	-1.130193e+02
2.880000e-06	-1.461841e-06	-2.161479e-09	-1.008818e+01	-1.449614e+02
2.890000e-06	-1.599717e-06	-2.646031e-09	-1.103966e+01	-1.766179e+02
2.900000e-06	-1.737206e-06	-3.121469e-09	-1.198847e+01	-2.076215e+02
2.910000e-06	-1.874264e-06	-3.584263e-09	-1.293431e+01	-2.376689e+02
2.920000e-06	-2.010828e-06	-4.029738e-09	-1.387674e+01	-2.665500e+02
2.930000e-06	-2.146872e-06	-4.454657e-09	-1.481559e+01	-2.941471e+02
2.940000e-06	-2.282348e-06	-4.856136e-09	-1.575050e+01	-3.204055e+02
2.950000e-06	-2.417140e-06	-5.236629e-09	-1.668071e+01	-3.452930e+02
