# Temperatura_=_20.0
# Concentracion g/m^3_=_10000.0
# C_Vs_to_Am_M_A/Vsm_=_65563218390.804596
# pendiente_HvsI_1/m_=_3716.3
# ordenada_HvsI_A/m_=_1297.0
# frecuencia_Hz_=_269579.20088421775

Tiempo_(s)	Campo_(V.s)	Magnetizacion_(V.s)	Campo_(kA/m)	Magnetizacion_(A/m)
0.000000e+00	-8.183501e-06	-1.148440e-08	-5.699779e+01	-7.502114e+02
1.000000e-08	-8.180275e-06	-1.148319e-08	-5.697532e+01	-7.500926e+02
2.000000e-08	-8.174824e-06	-1.148078e-08	-5.693736e+01	-7.499035e+02
3.000000e-08	-8.167363e-06	-1.147832e-08	-5.688539e+01	-7.496379e+02
4.000000e-08	-8.157654e-06	-1.147405e-08	-5.681776e+01	-7.493170e+02
5.000000e-08	-8.145468e-06	-1.146776e-08	-5.673289e+01	-7.489698e+02
6.000000e-08	-8.130777e-06	-1.146036e-08	-5.663057e+01	-7.486009e+02
7.000000e-08	-8.113639e-06	-1.145320e-08	-5.651120e+01	-7.481692e+02
8.000000e-08	-8.094263e-06	-1.145556e-08	-5.637625e+01	-7.475988e+02
9.000000e-08	-8.072426e-06	-1.145860e-08	-5.622416e+01	-7.468240e+02
1.000000e-07	-8.047874e-06	-1.144162e-08	-5.605315e+01	-7.458463e+02
1.100000e-07	-8.020762e-06	-1.142227e-08	-5.586432e+01	-7.447682e+02
1.200000e-07	-7.991550e-06	-1.140890e-08	-5.566086e+01	-7.437756e+02
1.300000e-07	-7.960646e-06	-1.137687e-08	-5.544562e+01	-7.430681e+02
1.400000e-07	-7.928016e-06	-1.136193e-08	-5.521835e+01	-7.427646e+02
1.500000e-07	-7.893309e-06	-1.137556e-08	-5.497661e+01	-7.428331e+02
1.600000e-07	-7.856650e-06	-1.133167e-08	-5.472129e+01	-7.430830e+02
1.700000e-07	-7.818000e-06	-1.132602e-08	-5.445209e+01	-7.432298e+02
1.800000e-07	-7.776970e-06	-1.134023e-08	-5.416632e+01	-7.430047e+02
1.900000e-07	-7.733765e-06	-1.129540e-08	-5.386539e+01	-7.422557e+02
2.000000e-07	-7.688475e-06	-1.128391e-08	-5.354995e+01	-7.409943e+02
2.100000e-07	-7.640919e-06	-1.125800e-08	-5.321873e+01	-7.393660e+02
2.200000e-07	-7.590904e-06	-1.122243e-08	-5.287037e+01	-7.375660e+02
2.300000e-07	-7.538236e-06	-1.120801e-08	-5.250355e+01	-7.357458e+02
2.400000e-07	-7.483269e-06	-1.118597e-08	-5.212070e+01	-7.339571e+02
2.500000e-07	-7.426225e-06	-1.115526e-08	-5.172339e+01	-7.321570e+02
2.600000e-07	-7.366969e-06	-1.112362e-08	-5.131067e+01	-7.302606e+02
2.700000e-07	-7.305595e-06	-1.110432e-08	-5.088320e+01	-7.282054e+02
2.800000e-07	-7.242153e-06	-1.107133e-08	-5.044133e+01	-7.259880e+02
2.900000e-07	-7.176545e-06	-1.103202e-08	-4.998437e+01	-7.236552e+02
3.000000e-07	-7.108727e-06	-1.099452e-08	-4.951203e+01	-7.212622e+02
3.100000e-07	-7.038775e-06	-1.094140e-08	-4.902482e+01	-7.188277e+02
3.200000e-07	-6.966747e-06	-1.090732e-08	-4.852314e+01	-7.163175e+02
3.300000e-07	-6.892580e-06	-1.087005e-08	-4.800657e+01	-7.136654e+02
3.400000e-07	-6.816142e-06	-1.082501e-08	-4.747418e+01	-7.108180e+02
3.500000e-07	-6.737437e-06	-1.078717e-08	-4.692600e+01	-7.077714e+02
3.600000e-07	-6.656569e-06	-1.074274e-08	-4.636277e+01	-7.045771e+02
3.700000e-07	-6.573679e-06	-1.069479e-08	-4.578544e+01	-7.013117e+02
3.800000e-07	-6.488967e-06	-1.063800e-08	-4.519542e+01	-6.980296e+02
3.900000e-07	-6.402551e-06	-1.058203e-08	-4.459354e+01	-6.947273e+02
4.000000e-07	-6.314399e-06	-1.052575e-08	-4.397956e+01	-6.913422e+02
4.100000e-07	-6.224452e-06	-1.047404e-08	-4.335309e+01	-6.877850e+02
4.200000e-07	-6.132718e-06	-1.041961e-08	-4.271416e+01	-6.839873e+02
4.300000e-07	-6.039291e-06	-1.035564e-08	-4.206344e+01	-6.799351e+02
4.400000e-07	-5.944182e-06	-1.029369e-08	-4.140101e+01	-6.756707e+02
4.500000e-07	-5.847372e-06	-1.022684e-08	-4.072673e+01	-6.712625e+02
4.600000e-07	-5.748918e-06	-1.015752e-08	-4.004101e+01	-6.667638e+02
4.700000e-07	-5.648817e-06	-1.008555e-08	-3.934381e+01	-6.621840e+02
4.800000e-07	-5.547221e-06	-1.001161e-08	-3.863620e+01	-6.574872e+02
4.900000e-07	-5.444120e-06	-9.935490e-09	-3.791810e+01	-6.526164e+02
5.000000e-07	-5.339471e-06	-9.856347e-09	-3.718922e+01	-6.475248e+02
5.100000e-07	-5.233413e-06	-9.771341e-09	-3.645053e+01	-6.421966e+02
5.200000e-07	-5.125895e-06	-9.683241e-09	-3.570167e+01	-6.366451e+02
5.300000e-07	-5.016960e-06	-9.601163e-09	-3.494295e+01	-6.308947e+02
5.400000e-07	-4.906673e-06	-9.516661e-09	-3.417480e+01	-6.249612e+02
5.500000e-07	-4.794994e-06	-9.423179e-09	-3.339696e+01	-6.188428e+02
5.600000e-07	-4.682018e-06	-9.321437e-09	-3.261008e+01	-6.125268e+02
5.700000e-07	-4.567675e-06	-9.217645e-09	-3.181369e+01	-6.060029e+02
5.800000e-07	-4.451831e-06	-9.113806e-09	-3.100684e+01	-5.992709e+02
5.900000e-07	-4.334625e-06	-9.008328e-09	-3.019051e+01	-5.923355e+02
6.000000e-07	-4.216140e-06	-8.897026e-09	-2.936526e+01	-5.851914e+02
6.100000e-07	-4.096395e-06	-8.782558e-09	-2.853125e+01	-5.778112e+02
6.200000e-07	-3.975465e-06	-8.669621e-09	-2.768897e+01	-5.701478e+02
6.300000e-07	-3.853384e-06	-8.550986e-09	-2.683868e+01	-5.621528e+02
6.400000e-07	-3.730147e-06	-8.421552e-09	-2.598034e+01	-5.538016e+02
6.500000e-07	-3.605698e-06	-8.283243e-09	-2.511356e+01	-5.451089e+02
6.600000e-07	-3.480185e-06	-8.144469e-09	-2.423937e+01	-5.361206e+02
6.700000e-07	-3.353639e-06	-8.007050e-09	-2.335798e+01	-5.268859e+02
6.800000e-07	-3.225999e-06	-7.864595e-09	-2.246897e+01	-5.174230e+02
6.900000e-07	-3.097431e-06	-7.713392e-09	-2.157350e+01	-5.076993e+02
7.000000e-07	-2.967979e-06	-7.557736e-09	-2.067187e+01	-4.976394e+02
7.100000e-07	-2.837610e-06	-7.398724e-09	-1.976385e+01	-4.871581e+02
7.200000e-07	-2.706283e-06	-7.231444e-09	-1.884916e+01	-4.762007e+02
7.300000e-07	-2.574089e-06	-7.054585e-09	-1.792844e+01	-4.647678e+02
7.400000e-07	-2.441219e-06	-6.872721e-09	-1.700300e+01	-4.529102e+02
7.500000e-07	-2.307708e-06	-6.689214e-09	-1.607310e+01	-4.406970e+02
7.600000e-07	-2.173492e-06	-6.498831e-09	-1.513829e+01	-4.281743e+02
7.700000e-07	-2.038576e-06	-6.299372e-09	-1.419861e+01	-4.153370e+02
7.800000e-07	-1.903073e-06	-6.094107e-09	-1.325484e+01	-4.021278e+02
7.900000e-07	-1.767111e-06	-5.886603e-09	-1.230786e+01	-3.884624e+02
8.000000e-07	-1.630755e-06	-5.672887e-09	-1.135815e+01	-3.742635e+02
8.100000e-07	-1.494036e-06	-5.448108e-09	-1.040591e+01	-3.594868e+02
8.200000e-07	-1.356962e-06	-5.211884e-09	-9.451194e+00	-3.441250e+02
8.300000e-07	-1.219563e-06	-4.967784e-09	-8.494214e+00	-3.281922e+02
8.400000e-07	-1.081877e-06	-4.717616e-09	-7.535231e+00	-3.116998e+02
8.500000e-07	-9.439403e-07	-4.458385e-09	-6.574510e+00	-2.946390e+02
8.600000e-07	-8.058009e-07	-4.187729e-09	-5.612374e+00	-2.769760e+02
8.700000e-07	-6.674855e-07	-3.906241e-09	-4.649012e+00	-2.586586e+02
8.800000e-07	-5.289844e-07	-3.618869e-09	-3.684357e+00	-2.396261e+02
8.900000e-07	-3.903638e-07	-3.320705e-09	-2.718870e+00	-2.198155e+02
9.000000e-07	-2.516801e-07	-3.003920e-09	-1.752943e+00	-1.991625e+02
9.100000e-07	-1.129690e-07	-2.671519e-09	-7.868251e-01	-1.776024e+02
9.200000e-07	2.573710e-08	-2.325606e-09	1.792580e-01	-1.550760e+02
9.300000e-07	1.644863e-07	-1.966667e-09	1.145641e+00	-1.315407e+02
9.400000e-07	3.032362e-07	-1.592613e-09	2.112029e+00	-1.069810e+02
9.500000e-07	4.419076e-07	-1.202557e-09	3.077871e+00	-8.141009e+01
9.600000e-07	5.804796e-07	-8.010624e-10	4.043020e+00	-5.485878e+01
9.700000e-07	7.189273e-07	-3.873604e-10	5.007303e+00	-2.735972e+01
9.800000e-07	8.571799e-07	4.349719e-11	5.970227e+00	1.061352e+00
9.900000e-07	9.951852e-07	4.938208e-10	6.931429e+00	3.037406e+01
1.000000e-06	1.132947e-06	9.596558e-10	7.890935e+00	6.051038e+01
1.010000e-06	1.270489e-06	1.433625e-09	8.848910e+00	9.132336e+01
1.020000e-06	1.407724e-06	1.908688e-09	9.804744e+00	1.225602e+02
1.030000e-06	1.544542e-06	2.381905e-09	1.075768e+01	1.538698e+02
1.040000e-06	1.680944e-06	2.850227e-09	1.170771e+01	1.848491e+02
1.050000e-06	1.816970e-06	3.307955e-09	1.265513e+01	2.151134e+02
1.060000e-06	1.952562e-06	3.750253e-09	1.359952e+01	2.443613e+02
1.070000e-06	2.087569e-06	4.177460e-09	1.453984e+01	2.724071e+02
1.080000e-06	2.221910e-06	4.587795e-09	1.547552e+01	2.991703e+02
1.090000e-06	2.355603e-06	4.975883e-09	1.640669e+01	3.246317e+02
1.100000e-06	2.488692e-06	5.340209e-09	1.733365e+01	3.487845e+02
1.110000e-06	2.621086e-06	5.683644e-09	1.825577e+01	3.716054e+02
1.120000e-06	2.752605e-06	6.007109e-09	1.917179e+01	3.930593e+02
1.130000e-06	2.883185e-06	6.309457e-09	2.008128e+01	4.131288e+02
1.140000e-06	3.012885e-06	6.591509e-09	2.098464e+01	4.318464e+02
1.150000e-06	3.141776e-06	6.855789e-09	2.188236e+01	4.493051e+02
1.160000e-06	3.269801e-06	7.103206e-09	2.277404e+01	4.656408e+02
1.170000e-06	3.396785e-06	7.335846e-09	2.365849e+01	4.809938e+02
1.180000e-06	3.522743e-06	7.554660e-09	2.453578e+01	4.954712e+02
1.190000e-06	3.647786e-06	7.758955e-09	2.540670e+01	5.091312e+02
1.200000e-06	3.771812e-06	7.950226e-09	2.627054e+01	5.219940e+02
1.210000e-06	3.894594e-06	8.130986e-09	2.712571e+01	5.340722e+02
1.220000e-06	4.016099e-06	8.302284e-09	2.797198e+01	5.453983e+02
1.230000e-06	4.136515e-06	8.464153e-09	2.881068e+01	5.560364e+02
1.240000e-06	4.255755e-06	8.618562e-09	2.964118e+01	5.660708e+02
1.250000e-06	4.373664e-06	8.766191e-09	3.046241e+01	5.755820e+02
1.260000e-06	4.490177e-06	8.904860e-09	3.127392e+01	5.846261e+02
1.270000e-06	4.605179e-06	9.035228e-09	3.207491e+01	5.932286e+02
1.280000e-06	4.718750e-06	9.158295e-09	3.286592e+01	6.013940e+02
1.290000e-06	4.830985e-06	9.274956e-09	3.364763e+01	6.091229e+02
1.300000e-06	4.941834e-06	9.386681e-09	3.441970e+01	6.164235e+02
1.310000e-06	5.051406e-06	9.490906e-09	3.518286e+01	6.233145e+02
1.320000e-06	5.159771e-06	9.588585e-09	3.593762e+01	6.298188e+02
1.330000e-06	5.266630e-06	9.682052e-09	3.668189e+01	6.359591e+02
1.340000e-06	5.371966e-06	9.771891e-09	3.741555e+01	6.417603e+02
1.350000e-06	5.475844e-06	9.856385e-09	3.813905e+01	6.472585e+02
1.360000e-06	5.578168e-06	9.935234e-09	3.885174e+01	6.525070e+02
1.370000e-06	5.679025e-06	1.000944e-08	3.955420e+01	6.575711e+02
1.380000e-06	5.778215e-06	1.008172e-08	4.024506e+01	6.625088e+02
1.390000e-06	5.875664e-06	1.015250e-08	4.092379e+01	6.673459e+02
1.400000e-06	5.971442e-06	1.022071e-08	4.159088e+01	6.720620e+02
1.410000e-06	6.065575e-06	1.028812e-08	4.224651e+01	6.765979e+02
1.420000e-06	6.158185e-06	1.035517e-08	4.289154e+01	6.808870e+02
1.430000e-06	6.249041e-06	1.042009e-08	4.352435e+01	6.848939e+02
1.440000e-06	6.338023e-06	1.047791e-08	4.414410e+01	6.886405e+02
1.450000e-06	6.425178e-06	1.052937e-08	4.475114e+01	6.922023e+02
1.460000e-06	6.510605e-06	1.057803e-08	4.534613e+01	6.956740e+02
1.470000e-06	6.594247e-06	1.062669e-08	4.592869e+01	6.991220e+02
1.480000e-06	6.675933e-06	1.067641e-08	4.649763e+01	7.025500e+02
1.490000e-06	6.755621e-06	1.072506e-08	4.705266e+01	7.058962e+02
1.500000e-06	6.833326e-06	1.077250e-08	4.759387e+01	7.090664e+02
1.510000e-06	6.908971e-06	1.081806e-08	4.812074e+01	7.119842e+02
1.520000e-06	6.982449e-06	1.086092e-08	4.863251e+01	7.146322e+02
1.530000e-06	7.053830e-06	1.089996e-08	4.912967e+01	7.170621e+02
1.540000e-06	7.123218e-06	1.093376e-08	4.961296e+01	7.193682e+02
1.550000e-06	7.190543e-06	1.096363e-08	5.008187e+01	7.216411e+02
1.560000e-06	7.255720e-06	1.099386e-08	5.053583e+01	7.239245e+02
1.570000e-06	7.318858e-06	1.102635e-08	5.097559e+01	7.261987e+02
1.580000e-06	7.380032e-06	1.105843e-08	5.140166e+01	7.283959e+02
1.590000e-06	7.439168e-06	1.108797e-08	5.181354e+01	7.304373e+02
1.600000e-06	7.496092e-06	1.111570e-08	5.221001e+01	7.322701e+02
1.610000e-06	7.550812e-06	1.114189e-08	5.259113e+01	7.338886e+02
1.620000e-06	7.603221e-06	1.116540e-08	5.295616e+01	7.353306e+02
1.630000e-06	7.653116e-06	1.118535e-08	5.330368e+01	7.366574e+02
1.640000e-06	7.700662e-06	1.120251e-08	5.363483e+01	7.379286e+02
1.650000e-06	7.746165e-06	1.121934e-08	5.395176e+01	7.391849e+02
1.660000e-06	7.789649e-06	1.123819e-08	5.425462e+01	7.404418e+02
1.670000e-06	7.830857e-06	1.125723e-08	5.454164e+01	7.416915e+02
1.680000e-06	7.869810e-06	1.127479e-08	5.481294e+01	7.429083e+02
1.690000e-06	7.906745e-06	1.129224e-08	5.507019e+01	7.440544e+02
1.700000e-06	7.941499e-06	1.130847e-08	5.531226e+01	7.450876e+02
1.710000e-06	7.973966e-06	1.132268e-08	5.553839e+01	7.459733e+02
1.720000e-06	8.004350e-06	1.133505e-08	5.575001e+01	7.466984e+02
1.730000e-06	8.032704e-06	1.134479e-08	5.594749e+01	7.472816e+02
1.740000e-06	8.058716e-06	1.135305e-08	5.612867e+01	7.477718e+02
1.750000e-06	8.082241e-06	1.136127e-08	5.629252e+01	7.482312e+02
1.760000e-06	8.103631e-06	1.136924e-08	5.644150e+01	7.487082e+02
1.770000e-06	8.122953e-06	1.137810e-08	5.657608e+01	7.492146e+02
1.780000e-06	8.139864e-06	1.138704e-08	5.669386e+01	7.497183e+02
1.790000e-06	8.154298e-06	1.139471e-08	5.679439e+01	7.501603e+02
1.800000e-06	8.166260e-06	1.140041e-08	5.687771e+01	7.504844e+02
1.810000e-06	8.175652e-06	1.140331e-08	5.694313e+01	7.506669e+02
1.820000e-06	8.182651e-06	1.140359e-08	5.699187e+01	7.507258e+02
1.830000e-06	8.187417e-06	1.140208e-08	5.702507e+01	7.507073e+02
1.840000e-06	8.189777e-06	1.140115e-08	5.704150e+01	7.506560e+02
1.850000e-06	8.189698e-06	1.139967e-08	5.704095e+01	7.505899e+02
1.860000e-06	8.187463e-06	1.139837e-08	5.702539e+01	7.504945e+02
1.870000e-06	8.183107e-06	1.139849e-08	5.699505e+01	7.503400e+02
1.880000e-06	8.176438e-06	1.139892e-08	5.694860e+01	7.501083e+02
1.890000e-06	8.167567e-06	1.139792e-08	5.688681e+01	7.498089e+02
1.900000e-06	8.156539e-06	1.139364e-08	5.681000e+01	7.494709e+02
1.910000e-06	8.143077e-06	1.138850e-08	5.671624e+01	7.491141e+02
1.920000e-06	8.127250e-06	1.137700e-08	5.660601e+01	7.487191e+02
1.930000e-06	8.109322e-06	1.135193e-08	5.648114e+01	7.482224e+02
1.940000e-06	8.088710e-06	1.133080e-08	5.633758e+01	7.475464e+02
1.950000e-06	8.064774e-06	1.132254e-08	5.617086e+01	7.466553e+02
1.960000e-06	8.038105e-06	1.131187e-08	5.598511e+01	7.456040e+02
1.970000e-06	8.009481e-06	1.130969e-08	5.578575e+01	7.445461e+02
1.980000e-06	7.979353e-06	1.131450e-08	5.557591e+01	7.436862e+02
1.990000e-06	7.947703e-06	1.126378e-08	5.535547e+01	7.431913e+02
2.000000e-06	7.913935e-06	1.126827e-08	5.512027e+01	7.431041e+02
2.010000e-06	7.878250e-06	1.134144e-08	5.487173e+01	7.433027e+02
2.020000e-06	7.840590e-06	1.136203e-08	5.460943e+01	7.435338e+02
2.030000e-06	7.800294e-06	1.137974e-08	5.432877e+01	7.435069e+02
2.040000e-06	7.757859e-06	1.134502e-08	5.403321e+01	7.430066e+02
2.050000e-06	7.713497e-06	1.131618e-08	5.372423e+01	7.419686e+02
2.060000e-06	7.666942e-06	1.133655e-08	5.339998e+01	7.404848e+02
2.070000e-06	7.618305e-06	1.129398e-08	5.306122e+01	7.387401e+02
2.080000e-06	7.567220e-06	1.126544e-08	5.270542e+01	7.369160e+02
2.090000e-06	7.513637e-06	1.124608e-08	5.233221e+01	7.351133e+02
2.100000e-06	7.457706e-06	1.121316e-08	5.194265e+01	7.333281e+02
2.110000e-06	7.399607e-06	1.118566e-08	5.153800e+01	7.314862e+02
2.120000e-06	7.339514e-06	1.113650e-08	5.111945e+01	7.295081e+02
2.130000e-06	7.277103e-06	1.110864e-08	5.068476e+01	7.273614e+02
2.140000e-06	7.212571e-06	1.106821e-08	5.023530e+01	7.250739e+02
2.150000e-06	7.145976e-06	1.104607e-08	4.977146e+01	7.227032e+02
2.160000e-06	7.077187e-06	1.102130e-08	4.929235e+01	7.202888e+02
2.170000e-06	7.006160e-06	1.097396e-08	4.879765e+01	7.178204e+02
2.180000e-06	6.932874e-06	1.094617e-08	4.828722e+01	7.152419e+02
2.190000e-06	6.857605e-06	1.089189e-08	4.776298e+01	7.124880e+02
2.200000e-06	6.780005e-06	1.084373e-08	4.722249e+01	7.095293e+02
2.210000e-06	6.700136e-06	1.078999e-08	4.666620e+01	7.063936e+02
2.220000e-06	6.618420e-06	1.073910e-08	4.609706e+01	7.031516e+02
2.230000e-06	6.534770e-06	1.069684e-08	4.551444e+01	6.998735e+02
2.240000e-06	6.449149e-06	1.064825e-08	4.491809e+01	6.965851e+02
2.250000e-06	6.361603e-06	1.060296e-08	4.430834e+01	6.932484e+02
2.260000e-06	6.272349e-06	1.054007e-08	4.368668e+01	6.897809e+02
2.270000e-06	6.181381e-06	1.048784e-08	4.305310e+01	6.860989e+02
2.280000e-06	6.088644e-06	1.042739e-08	4.240718e+01	6.821611e+02
2.290000e-06	5.994127e-06	1.036415e-08	4.174888e+01	6.779860e+02
2.300000e-06	5.897890e-06	1.029807e-08	4.107859e+01	6.736352e+02
2.310000e-06	5.800158e-06	1.022923e-08	4.039789e+01	6.691738e+02
2.320000e-06	5.700910e-06	1.016709e-08	3.970663e+01	6.646332e+02
2.330000e-06	5.600097e-06	1.009309e-08	3.900448e+01	6.599966e+02
2.340000e-06	5.497631e-06	1.001738e-08	3.829081e+01	6.552125e+02
2.350000e-06	5.393525e-06	9.941192e-09	3.756571e+01	6.502261e+02
2.360000e-06	5.287988e-06	9.871259e-09	3.683064e+01	6.450062e+02
2.370000e-06	5.181212e-06	9.793501e-09	3.608695e+01	6.395541e+02
2.380000e-06	5.073172e-06	9.705246e-09	3.533446e+01	6.338920e+02
2.390000e-06	4.963735e-06	9.611180e-09	3.457224e+01	6.280416e+02
2.400000e-06	4.852792e-06	9.514961e-09	3.379952e+01	6.220091e+02
2.410000e-06	4.740391e-06	9.421693e-09	3.301665e+01	6.157854e+02
2.420000e-06	4.626627e-06	9.324864e-09	3.222429e+01	6.093574e+02
2.430000e-06	4.511406e-06	9.225775e-09	3.142178e+01	6.027201e+02
2.440000e-06	4.394763e-06	9.126576e-09	3.060937e+01	5.958776e+02
2.450000e-06	4.276722e-06	9.025651e-09	2.978722e+01	5.888310e+02
2.460000e-06	4.157311e-06	8.914567e-09	2.895552e+01	5.815640e+02
2.470000e-06	4.036652e-06	8.795247e-09	2.811513e+01	5.740369e+02
2.480000e-06	3.914846e-06	8.673983e-09	2.726676e+01	5.661988e+02
2.490000e-06	3.791818e-06	8.550153e-09	2.640987e+01	5.580115e+02
2.500000e-06	3.667635e-06	8.423336e-09	2.554495e+01	5.494710e+02
2.510000e-06	3.542407e-06	8.289592e-09	2.467274e+01	5.406114e+02
2.520000e-06	3.416118e-06	8.151986e-09	2.379314e+01	5.314848e+02
2.530000e-06	3.288807e-06	8.012823e-09	2.290642e+01	5.221273e+02
2.540000e-06	3.160462e-06	7.868747e-09	2.201251e+01	5.125304e+02
2.550000e-06	3.031213e-06	7.716016e-09	2.111229e+01	5.026355e+02
2.560000e-06	2.901105e-06	7.556042e-09	2.020609e+01	4.923568e+02
2.570000e-06	2.770081e-06	7.392933e-09	1.929351e+01	4.816211e+02
2.580000e-06	2.638265e-06	7.226417e-09	1.837542e+01	4.704023e+02
2.590000e-06	2.505775e-06	7.050817e-09	1.745264e+01	4.587309e+02
2.600000e-06	2.372574e-06	6.864730e-09	1.652489e+01	4.466726e+02
2.610000e-06	2.238660e-06	6.675054e-09	1.559219e+01	4.342890e+02
2.620000e-06	2.104118e-06	6.482734e-09	1.465511e+01	4.216001e+02
2.630000e-06	1.969052e-06	6.286163e-09	1.371438e+01	4.085709e+02
2.640000e-06	1.833468e-06	6.079948e-09	1.277004e+01	3.951254e+02
2.650000e-06	1.697283e-06	5.865521e-09	1.182151e+01	3.811788e+02
2.660000e-06	1.560586e-06	5.645406e-09	1.086942e+01	3.666698e+02
2.670000e-06	1.423527e-06	5.416798e-09	9.914816e+00	3.515752e+02
2.680000e-06	1.286153e-06	5.177295e-09	8.958012e+00	3.359020e+02
2.690000e-06	1.148510e-06	4.927705e-09	7.999328e+00	3.196656e+02
2.700000e-06	1.010562e-06	4.670954e-09	7.038530e+00	3.028681e+02
2.710000e-06	8.723147e-07	4.406753e-09	6.075641e+00	2.854867e+02
2.720000e-06	7.338492e-07	4.131069e-09	5.111234e+00	2.674764e+02
2.730000e-06	5.952381e-07	3.842088e-09	4.145812e+00	2.487793e+02
2.740000e-06	4.565408e-07	3.542954e-09	3.179790e+00	2.293333e+02
2.750000e-06	3.177371e-07	3.235134e-09	2.213027e+00	2.090744e+02
2.760000e-06	1.788280e-07	2.916721e-09	1.245530e+00	1.879379e+02
2.770000e-06	3.981000e-08	2.582927e-09	2.772752e-01	1.658609e+02
2.780000e-06	-9.928000e-08	2.230603e-09	-6.914816e-01	1.427917e+02
2.790000e-06	-2.383121e-07	1.860831e-09	-1.659836e+00	1.187015e+02
2.800000e-06	-3.772617e-07	1.475804e-09	-2.627614e+00	9.359094e+01
2.810000e-06	-5.160855e-07	1.075906e-09	-3.594517e+00	6.748462e+01
2.820000e-06	-6.547297e-07	6.608394e-10	-4.560169e+00	4.041630e+01
2.830000e-06	-7.932321e-07	2.321742e-10	-5.524833e+00	1.241484e+01
2.840000e-06	-9.315011e-07	-2.090079e-10	-6.487872e+00	-1.649444e+01
2.850000e-06	-1.069489e-06	-6.620859e-10	-7.448952e+00	-4.626587e+01
2.860000e-06	-1.207211e-06	-1.126444e-09	-8.408179e+00	-7.679346e+01
2.870000e-06	-1.344642e-06	-1.599418e-09	-9.365382e+00	-1.078744e+02
2.880000e-06	-1.481773e-06	-2.076597e-09	-1.032050e+01	-1.391990e+02
2.890000e-06	-1.618500e-06	-2.555881e-09	-1.127279e+01	-1.703803e+02
2.900000e-06	-1.754793e-06	-3.029585e-09	-1.222207e+01	-2.010160e+02
2.910000e-06	-1.890651e-06	-3.488727e-09	-1.316832e+01	-2.307601e+02
2.920000e-06	-2.025945e-06	-3.928366e-09	-1.411064e+01	-2.593725e+02
2.930000e-06	-2.160623e-06	-4.345279e-09	-1.504866e+01	-2.867285e+02
2.940000e-06	-2.294581e-06	-4.742381e-09	-1.598167e+01	-3.127871e+02
2.950000e-06	-2.427757e-06	-5.121866e-09	-1.690924e+01	-3.375414e+02
