# Temperatura_=_20.0
# Concentracion g/m^3_=_10000.0
# C_Vs_to_Am_M_A/Vsm_=_65563218390.804596
# pendiente_HvsI_1/m_=_3716.3
# ordenada_HvsI_A/m_=_1297.0
# frecuencia_Hz_=_269578.4933650841

Tiempo_(s)	Campo_(V.s)	Magnetizacion_(V.s)	Campo_(kA/m)	Magnetizacion_(A/m)
0.000000e+00	-8.299999e-06	-1.152880e-08	-5.700265e+01	-7.533456e+02
1.000000e-08	-8.297004e-06	-1.153476e-08	-5.698208e+01	-7.533817e+02
2.000000e-08	-8.291740e-06	-1.153555e-08	-5.694593e+01	-7.533632e+02
3.000000e-08	-8.284390e-06	-1.153453e-08	-5.689545e+01	-7.531630e+02
4.000000e-08	-8.274789e-06	-1.153287e-08	-5.682951e+01	-7.527490e+02
5.000000e-08	-8.262701e-06	-1.152634e-08	-5.674649e+01	-7.522036e+02
6.000000e-08	-8.248043e-06	-1.151389e-08	-5.664583e+01	-7.516628e+02
7.000000e-08	-8.230940e-06	-1.149210e-08	-5.652836e+01	-7.512144e+02
8.000000e-08	-8.211634e-06	-1.151635e-08	-5.639577e+01	-7.508238e+02
9.000000e-08	-8.189870e-06	-1.155748e-08	-5.624631e+01	-7.503441e+02
1.000000e-07	-8.165361e-06	-1.151483e-08	-5.607798e+01	-7.496120e+02
1.100000e-07	-8.138229e-06	-1.147638e-08	-5.589165e+01	-7.485775e+02
1.200000e-07	-8.108852e-06	-1.149901e-08	-5.568989e+01	-7.473823e+02
1.300000e-07	-8.077745e-06	-1.141594e-08	-5.547625e+01	-7.463294e+02
1.400000e-07	-8.044990e-06	-1.137949e-08	-5.525130e+01	-7.457437e+02
1.500000e-07	-8.010129e-06	-1.149883e-08	-5.501188e+01	-7.457951e+02
1.600000e-07	-7.973259e-06	-1.136467e-08	-5.475866e+01	-7.463811e+02
1.700000e-07	-7.934402e-06	-1.137953e-08	-5.449181e+01	-7.471402e+02
1.800000e-07	-7.893028e-06	-1.147153e-08	-5.420766e+01	-7.475984e+02
1.900000e-07	-7.849436e-06	-1.133301e-08	-5.390828e+01	-7.473750e+02
2.000000e-07	-7.803793e-06	-1.136384e-08	-5.359481e+01	-7.463418e+02
2.100000e-07	-7.755900e-06	-1.132483e-08	-5.326589e+01	-7.446538e+02
2.200000e-07	-7.705575e-06	-1.127847e-08	-5.292027e+01	-7.426426e+02
2.300000e-07	-7.652543e-06	-1.130060e-08	-5.255606e+01	-7.406339e+02
2.400000e-07	-7.597222e-06	-1.126510e-08	-5.217612e+01	-7.387939e+02
2.500000e-07	-7.539723e-06	-1.124311e-08	-5.178123e+01	-7.370804e+02
2.600000e-07	-7.479922e-06	-1.118856e-08	-5.137054e+01	-7.353158e+02
2.700000e-07	-7.417969e-06	-1.116863e-08	-5.094505e+01	-7.333244e+02
2.800000e-07	-7.353901e-06	-1.112595e-08	-5.050505e+01	-7.310484e+02
2.900000e-07	-7.287610e-06	-1.108500e-08	-5.004977e+01	-7.285747e+02
3.000000e-07	-7.219067e-06	-1.107244e-08	-4.957904e+01	-7.260644e+02
3.100000e-07	-7.148417e-06	-1.100376e-08	-4.909382e+01	-7.236376e+02
3.200000e-07	-7.075601e-06	-1.100477e-08	-4.859374e+01	-7.212902e+02
3.300000e-07	-7.000523e-06	-1.095995e-08	-4.807812e+01	-7.188942e+02
3.400000e-07	-6.923164e-06	-1.089446e-08	-4.754683e+01	-7.162792e+02
3.500000e-07	-6.843442e-06	-1.085838e-08	-4.699932e+01	-7.133401e+02
3.600000e-07	-6.761596e-06	-1.079748e-08	-4.643722e+01	-7.101027e+02
3.700000e-07	-6.677993e-06	-1.075932e-08	-4.586305e+01	-7.067048e+02
3.800000e-07	-6.592586e-06	-1.070510e-08	-4.527650e+01	-7.033068e+02
3.900000e-07	-6.505406e-06	-1.066056e-08	-4.467776e+01	-6.999885e+02
4.000000e-07	-6.416392e-06	-1.060366e-08	-4.406643e+01	-6.966967e+02
4.100000e-07	-6.325431e-06	-1.055591e-08	-4.344173e+01	-6.932752e+02
4.200000e-07	-6.232636e-06	-1.050548e-08	-4.280443e+01	-6.895586e+02
4.300000e-07	-6.138103e-06	-1.043189e-08	-4.215520e+01	-6.854702e+02
4.400000e-07	-6.041919e-06	-1.036754e-08	-4.149463e+01	-6.810659e+02
4.500000e-07	-5.943953e-06	-1.029251e-08	-4.082182e+01	-6.764975e+02
4.600000e-07	-5.844285e-06	-1.022798e-08	-4.013732e+01	-6.719202e+02
4.700000e-07	-5.743020e-06	-1.015930e-08	-3.944186e+01	-6.674012e+02
4.800000e-07	-5.640183e-06	-1.009128e-08	-3.873559e+01	-6.628829e+02
4.900000e-07	-5.535905e-06	-1.002112e-08	-3.801943e+01	-6.582194e+02
5.000000e-07	-5.429980e-06	-9.945657e-09	-3.729196e+01	-6.532620e+02
5.100000e-07	-5.322471e-06	-9.862941e-09	-3.655361e+01	-6.479405e+02
5.200000e-07	-5.213650e-06	-9.768596e-09	-3.580625e+01	-6.422924e+02
5.300000e-07	-5.103539e-06	-9.681526e-09	-3.505003e+01	-6.364296e+02
5.400000e-07	-4.992113e-06	-9.592553e-09	-3.428478e+01	-6.304648e+02
5.500000e-07	-4.879245e-06	-9.503122e-09	-3.350963e+01	-6.244456e+02
5.600000e-07	-4.764720e-06	-9.406574e-09	-3.272310e+01	-6.183326e+02
5.700000e-07	-4.648624e-06	-9.307681e-09	-3.192577e+01	-6.120295e+02
5.800000e-07	-4.531165e-06	-9.208130e-09	-3.111909e+01	-6.054404e+02
5.900000e-07	-4.412479e-06	-9.106201e-09	-3.030397e+01	-5.985177e+02
6.000000e-07	-4.292632e-06	-8.996764e-09	-2.948089e+01	-5.912726e+02
6.100000e-07	-4.171466e-06	-8.878255e-09	-2.864875e+01	-5.837495e+02
6.200000e-07	-4.048883e-06	-8.761243e-09	-2.780688e+01	-5.759849e+02
6.300000e-07	-3.925054e-06	-8.639978e-09	-2.695644e+01	-5.679809e+02
6.400000e-07	-3.800131e-06	-8.512163e-09	-2.609850e+01	-5.597076e+02
6.500000e-07	-3.674151e-06	-8.374791e-09	-2.523330e+01	-5.511274e+02
6.600000e-07	-3.547179e-06	-8.236795e-09	-2.436128e+01	-5.422203e+02
6.700000e-07	-3.419260e-06	-8.101181e-09	-2.348276e+01	-5.329905e+02
6.800000e-07	-3.290229e-06	-7.959663e-09	-2.259660e+01	-5.234502e+02
6.900000e-07	-3.159961e-06	-7.808733e-09	-2.170195e+01	-5.135952e+02
7.000000e-07	-3.028595e-06	-7.650098e-09	-2.079975e+01	-5.033925e+02
7.100000e-07	-2.896419e-06	-7.485298e-09	-1.989200e+01	-4.927918e+02
7.200000e-07	-2.763507e-06	-7.312708e-09	-1.897919e+01	-4.817549e+02
7.300000e-07	-2.629770e-06	-7.134573e-09	-1.806071e+01	-4.702812e+02
7.400000e-07	-2.495270e-06	-6.952581e-09	-1.713699e+01	-4.584107e+02
7.500000e-07	-2.360118e-06	-6.769283e-09	-1.620879e+01	-4.461983e+02
7.600000e-07	-2.224313e-06	-6.580466e-09	-1.527611e+01	-4.336734e+02
7.700000e-07	-2.087825e-06	-6.384566e-09	-1.433874e+01	-4.208117e+02
7.800000e-07	-1.950709e-06	-6.181999e-09	-1.339706e+01	-4.075366e+02
7.900000e-07	-1.813002e-06	-5.972358e-09	-1.245131e+01	-3.937527e+02
8.000000e-07	-1.674710e-06	-5.753157e-09	-1.150155e+01	-3.793908e+02
8.100000e-07	-1.535828e-06	-5.522265e-09	-1.054774e+01	-3.644353e+02
8.200000e-07	-1.396459e-06	-5.283986e-09	-9.590588e+00	-3.489192e+02
8.300000e-07	-1.256751e-06	-5.038679e-09	-8.631105e+00	-3.328869e+02
8.400000e-07	-1.116774e-06	-4.786714e-09	-7.669769e+00	-3.163505e+02
8.500000e-07	-9.765501e-07	-4.526458e-09	-6.706741e+00	-2.992642e+02
8.600000e-07	-8.361440e-07	-4.256644e-09	-5.742461e+00	-2.815339e+02
8.700000e-07	-6.955755e-07	-3.975741e-09	-4.777067e+00	-2.630531e+02
8.800000e-07	-5.548312e-07	-3.682252e-09	-3.810464e+00	-2.437434e+02
8.900000e-07	-4.139954e-07	-3.375010e-09	-2.843234e+00	-2.235721e+02
9.000000e-07	-2.731133e-07	-3.051356e-09	-1.875684e+00	-2.025411e+02
9.100000e-07	-1.321707e-07	-2.715464e-09	-9.077208e-01	-1.806535e+02
9.200000e-07	8.819278e-09	-2.366195e-09	6.056895e-02	-1.578837e+02
9.300000e-07	1.498396e-07	-2.002815e-09	1.029067e+00	-1.341697e+02
9.400000e-07	2.908556e-07	-1.624800e-09	1.997535e+00	-1.094327e+02
9.500000e-07	4.317895e-07	-1.231920e-09	2.965440e+00	-8.361014e+01
9.600000e-07	5.726108e-07	-8.261110e-10	3.932570e+00	-5.668152e+01
9.700000e-07	7.132979e-07	-4.045161e-10	4.898780e+00	-2.867523e+01
9.800000e-07	8.538168e-07	3.632696e-11	5.863835e+00	3.424280e-01
9.900000e-07	9.941612e-07	4.965496e-10	6.827690e+00	3.027895e+01
1.000000e-06	1.134245e-06	9.699463e-10	7.789756e+00	6.101225e+01
1.010000e-06	1.274004e-06	1.451648e-09	8.749589e+00	9.236904e+01
1.020000e-06	1.413448e-06	1.935054e-09	9.707264e+00	1.240991e+02
1.030000e-06	1.552513e-06	2.414895e-09	1.066234e+01	1.558684e+02
1.040000e-06	1.691115e-06	2.889266e-09	1.161422e+01	1.872873e+02
1.050000e-06	1.829191e-06	3.355282e-09	1.256250e+01	2.179698e+02
1.060000e-06	1.966622e-06	3.806031e-09	1.350635e+01	2.475995e+02
1.070000e-06	2.103382e-06	4.236134e-09	1.444558e+01	2.759725e+02
1.080000e-06	2.239503e-06	4.646057e-09	1.538044e+01	3.029971e+02
1.090000e-06	2.375010e-06	5.035259e-09	1.631107e+01	3.286538e+02
1.100000e-06	2.509901e-06	5.402930e-09	1.723747e+01	3.529428e+02
1.110000e-06	2.644104e-06	5.748057e-09	1.815915e+01	3.758499e+02
1.120000e-06	2.777547e-06	6.072443e-09	1.907561e+01	3.973473e+02
1.130000e-06	2.910167e-06	6.375130e-09	1.998641e+01	4.174262e+02
1.140000e-06	3.041945e-06	6.657609e-09	2.089144e+01	4.361311e+02
1.150000e-06	3.172814e-06	6.922408e-09	2.179022e+01	4.535728e+02
1.160000e-06	3.302591e-06	7.167622e-09	2.268150e+01	4.699035e+02
1.170000e-06	3.431221e-06	7.397331e-09	2.356490e+01	4.852699e+02
1.180000e-06	3.558886e-06	7.614808e-09	2.444168e+01	4.997700e+02
1.190000e-06	3.685598e-06	7.819316e-09	2.531191e+01	5.134394e+02
1.200000e-06	3.811234e-06	8.011279e-09	2.617475e+01	5.262753e+02
1.210000e-06	3.935817e-06	8.192523e-09	2.703036e+01	5.382802e+02
1.220000e-06	4.059376e-06	8.363167e-09	2.787894e+01	5.494979e+02
1.230000e-06	4.181698e-06	8.524306e-09	2.871902e+01	5.600184e+02
1.240000e-06	4.302575e-06	8.675590e-09	2.954918e+01	5.699515e+02
1.250000e-06	4.422148e-06	8.818119e-09	3.037038e+01	5.793874e+02
1.260000e-06	4.540534e-06	8.952814e-09	3.118343e+01	5.883707e+02
1.270000e-06	4.657618e-06	9.081774e-09	3.198754e+01	5.969045e+02
1.280000e-06	4.773311e-06	9.204644e-09	3.278210e+01	6.049796e+02
1.290000e-06	4.887431e-06	9.321445e-09	3.356585e+01	6.126063e+02
1.300000e-06	4.999937e-06	9.433425e-09	3.433852e+01	6.198261e+02
1.310000e-06	5.111044e-06	9.538021e-09	3.510158e+01	6.266947e+02
1.320000e-06	5.220899e-06	9.636068e-09	3.585604e+01	6.332512e+02
1.330000e-06	5.329488e-06	9.727622e-09	3.660180e+01	6.394963e+02
1.340000e-06	5.436715e-06	9.815019e-09	3.733821e+01	6.454005e+02
1.350000e-06	5.542276e-06	9.898189e-09	3.806318e+01	6.509404e+02
1.360000e-06	5.646142e-06	9.976172e-09	3.877651e+01	6.561391e+02
1.370000e-06	5.748535e-06	1.005157e-08	3.947973e+01	6.610815e+02
1.380000e-06	5.849371e-06	1.012649e-08	4.017225e+01	6.658881e+02
1.390000e-06	5.948586e-06	1.019985e-08	4.085364e+01	6.706571e+02
1.400000e-06	6.045960e-06	1.027010e-08	4.152239e+01	6.754092e+02
1.410000e-06	6.141484e-06	1.033727e-08	4.217842e+01	6.800713e+02
1.420000e-06	6.235371e-06	1.040164e-08	4.282322e+01	6.845126e+02
1.430000e-06	6.327661e-06	1.046298e-08	4.345705e+01	6.886189e+02
1.440000e-06	6.418153e-06	1.051930e-08	4.407853e+01	6.923620e+02
1.450000e-06	6.506688e-06	1.057099e-08	4.468657e+01	6.958232e+02
1.460000e-06	6.593415e-06	1.062125e-08	4.528219e+01	6.991550e+02
1.470000e-06	6.678354e-06	1.067303e-08	4.586553e+01	7.025017e+02
1.480000e-06	6.761413e-06	1.072534e-08	4.643596e+01	7.059222e+02
1.490000e-06	6.842485e-06	1.077478e-08	4.699275e+01	7.093602e+02
1.500000e-06	6.921518e-06	1.082084e-08	4.753553e+01	7.126779e+02
1.510000e-06	6.998565e-06	1.086534e-08	4.806467e+01	7.157329e+02
1.520000e-06	7.073405e-06	1.090769e-08	4.857866e+01	7.184545e+02
1.530000e-06	7.145953e-06	1.094569e-08	4.907690e+01	7.208762e+02
1.540000e-06	7.216417e-06	1.097985e-08	4.956084e+01	7.231106e+02
1.550000e-06	7.284904e-06	1.101161e-08	5.003119e+01	7.252854e+02
1.560000e-06	7.351244e-06	1.104384e-08	5.048680e+01	7.274786e+02
1.570000e-06	7.415359e-06	1.107586e-08	5.092712e+01	7.296906e+02
1.580000e-06	7.477447e-06	1.110684e-08	5.135353e+01	7.318616e+02
1.590000e-06	7.537592e-06	1.113819e-08	5.176660e+01	7.339168e+02
1.600000e-06	7.595530e-06	1.116823e-08	5.216450e+01	7.358086e+02
1.610000e-06	7.651179e-06	1.119527e-08	5.254669e+01	7.375301e+02
1.620000e-06	7.704658e-06	1.121838e-08	5.291397e+01	7.391007e+02
1.630000e-06	7.755684e-06	1.123960e-08	5.326441e+01	7.405398e+02
1.640000e-06	7.804186e-06	1.126030e-08	5.359751e+01	7.418539e+02
1.650000e-06	7.850482e-06	1.127885e-08	5.391546e+01	7.430468e+02
1.660000e-06	7.894859e-06	1.129521e-08	5.422023e+01	7.441399e+02
1.670000e-06	7.937022e-06	1.131083e-08	5.450980e+01	7.451832e+02
1.680000e-06	7.976763e-06	1.132819e-08	5.478273e+01	7.462375e+02
1.690000e-06	8.014383e-06	1.134673e-08	5.504110e+01	7.473369e+02
1.700000e-06	8.049931e-06	1.136267e-08	5.528523e+01	7.484535e+02
1.710000e-06	8.083206e-06	1.137603e-08	5.551376e+01	7.494953e+02
1.720000e-06	8.114209e-06	1.138904e-08	5.572668e+01	7.503483e+02
1.730000e-06	8.143167e-06	1.139977e-08	5.592556e+01	7.509422e+02
1.740000e-06	8.169831e-06	1.140712e-08	5.610868e+01	7.513027e+02
1.750000e-06	8.193991e-06	1.141298e-08	5.627461e+01	7.515519e+02
1.760000e-06	8.215906e-06	1.141921e-08	5.642512e+01	7.518508e+02
1.770000e-06	8.235655e-06	1.142722e-08	5.656075e+01	7.523106e+02
1.780000e-06	8.253065e-06	1.143678e-08	5.668031e+01	7.529267e+02
1.790000e-06	8.268051e-06	1.144593e-08	5.678324e+01	7.535751e+02
1.800000e-06	8.280593e-06	1.145357e-08	5.686937e+01	7.540789e+02
1.810000e-06	8.290501e-06	1.145900e-08	5.693742e+01	7.543080e+02
1.820000e-06	8.297824e-06	1.146055e-08	5.698771e+01	7.542528e+02
1.830000e-06	8.302865e-06	1.145879e-08	5.702233e+01	7.540275e+02
1.840000e-06	8.305497e-06	1.145576e-08	5.704041e+01	7.537998e+02
1.850000e-06	8.305656e-06	1.145490e-08	5.704150e+01	7.536903e+02
1.860000e-06	8.303640e-06	1.144893e-08	5.702766e+01	7.537024e+02
1.870000e-06	8.299506e-06	1.144312e-08	5.699927e+01	7.537277e+02
1.880000e-06	8.293051e-06	1.144146e-08	5.695493e+01	7.536219e+02
1.890000e-06	8.284299e-06	1.143962e-08	5.689483e+01	7.533020e+02
1.900000e-06	8.273370e-06	1.143610e-08	5.681977e+01	7.528010e+02
1.910000e-06	8.260004e-06	1.143457e-08	5.672797e+01	7.522419e+02
1.920000e-06	8.244250e-06	1.144767e-08	5.661978e+01	7.517471e+02
1.930000e-06	8.226381e-06	1.138021e-08	5.649706e+01	7.513428e+02
1.940000e-06	8.205796e-06	1.132827e-08	5.635568e+01	7.509263e+02
1.950000e-06	8.181827e-06	1.136477e-08	5.619106e+01	7.503257e+02
1.960000e-06	8.155003e-06	1.134268e-08	5.600684e+01	7.494244e+02
1.970000e-06	8.126074e-06	1.134507e-08	5.580817e+01	7.482728e+02
1.980000e-06	8.095473e-06	1.142657e-08	5.559801e+01	7.471115e+02
1.990000e-06	8.063491e-06	1.125767e-08	5.537836e+01	7.462773e+02
2.000000e-06	8.029578e-06	1.128711e-08	5.514545e+01	7.460316e+02
2.010000e-06	7.993725e-06	1.142268e-08	5.489922e+01	7.464039e+02
2.020000e-06	7.955866e-06	1.133423e-08	5.463921e+01	7.471403e+02
2.030000e-06	7.915237e-06	1.149098e-08	5.436018e+01	7.477940e+02
2.040000e-06	7.872419e-06	1.142722e-08	5.406612e+01	7.479167e+02
2.050000e-06	7.827667e-06	1.136988e-08	5.375877e+01	7.472514e+02
2.060000e-06	7.780672e-06	1.148105e-08	5.343602e+01	7.458291e+02
2.070000e-06	7.731596e-06	1.133800e-08	5.309897e+01	7.439209e+02
2.080000e-06	7.679955e-06	1.136912e-08	5.274432e+01	7.418782e+02
2.090000e-06	7.625682e-06	1.131696e-08	5.237158e+01	7.399539e+02
2.100000e-06	7.569183e-06	1.125307e-08	5.198356e+01	7.381992e+02
2.110000e-06	7.510578e-06	1.130501e-08	5.158107e+01	7.364833e+02
2.120000e-06	7.449971e-06	1.118993e-08	5.116483e+01	7.346119e+02
2.130000e-06	7.387041e-06	1.123317e-08	5.073265e+01	7.324636e+02
2.140000e-06	7.321886e-06	1.114250e-08	5.028517e+01	7.300625e+02
2.150000e-06	7.254617e-06	1.113497e-08	4.982319e+01	7.275489e+02
2.160000e-06	7.184949e-06	1.111591e-08	4.934472e+01	7.250757e+02
2.170000e-06	7.112992e-06	1.100509e-08	4.885053e+01	7.227015e+02
2.180000e-06	7.038888e-06	1.105882e-08	4.834160e+01	7.203489e+02
2.190000e-06	6.962648e-06	1.095516e-08	4.781801e+01	7.178536e+02
2.200000e-06	6.884085e-06	1.095435e-08	4.727845e+01	7.150683e+02
2.210000e-06	6.803379e-06	1.088796e-08	4.672418e+01	7.119558e+02
2.220000e-06	6.720847e-06	1.083184e-08	4.615736e+01	7.086103e+02
2.230000e-06	6.636387e-06	1.081250e-08	4.557731e+01	7.051955e+02
2.240000e-06	6.549813e-06	1.072727e-08	4.498274e+01	7.018390e+02
2.250000e-06	6.461233e-06	1.071205e-08	4.437439e+01	6.985498e+02
2.260000e-06	6.371031e-06	1.061593e-08	4.375490e+01	6.952103e+02
2.270000e-06	6.279134e-06	1.058862e-08	4.312377e+01	6.916457e+02
2.280000e-06	6.185287e-06	1.051331e-08	4.247925e+01	6.877288e+02
2.290000e-06	6.089555e-06	1.045487e-08	4.182179e+01	6.834545e+02
2.300000e-06	5.992198e-06	1.039267e-08	4.115316e+01	6.789398e+02
2.310000e-06	5.893428e-06	1.031348e-08	4.047483e+01	6.743512e+02
2.320000e-06	5.793132e-06	1.026651e-08	3.978601e+01	6.698052e+02
2.330000e-06	5.691047e-06	1.018020e-08	3.908491e+01	6.653010e+02
2.340000e-06	5.587228e-06	1.011377e-08	3.837191e+01	6.607245e+02
2.350000e-06	5.481971e-06	1.002227e-08	3.764902e+01	6.559167e+02
2.360000e-06	5.375324e-06	9.961408e-09	3.691659e+01	6.507638e+02
2.370000e-06	5.267383e-06	9.882126e-09	3.617528e+01	6.452545e+02
2.380000e-06	5.158013e-06	9.801837e-09	3.542415e+01	6.394743e+02
2.390000e-06	5.047080e-06	9.708953e-09	3.466229e+01	6.335453e+02
2.400000e-06	4.934676e-06	9.610662e-09	3.389032e+01	6.275508e+02
2.410000e-06	4.820800e-06	9.519162e-09	3.310824e+01	6.214905e+02
2.420000e-06	4.705533e-06	9.422045e-09	3.231661e+01	6.152878e+02
2.430000e-06	4.588743e-06	9.326235e-09	3.151452e+01	6.088393e+02
2.440000e-06	4.470391e-06	9.223243e-09	3.070171e+01	6.020714e+02
2.450000e-06	4.350661e-06	9.123234e-09	2.987943e+01	5.949697e+02
2.460000e-06	4.229703e-06	9.007085e-09	2.904871e+01	5.875681e+02
2.470000e-06	4.107576e-06	8.888203e-09	2.820997e+01	5.799116e+02
2.480000e-06	3.984365e-06	8.761185e-09	2.736378e+01	5.720194e+02
2.490000e-06	3.859950e-06	8.640273e-09	2.650932e+01	5.638745e+02
2.500000e-06	3.734222e-06	8.516410e-09	2.564585e+01	5.554388e+02
2.510000e-06	3.607264e-06	8.388645e-09	2.477393e+01	5.466823e+02
2.520000e-06	3.479240e-06	8.249206e-09	2.389469e+01	5.375988e+02
2.530000e-06	3.350216e-06	8.104729e-09	2.300858e+01	5.281998e+02
2.540000e-06	3.220201e-06	7.955432e-09	2.211566e+01	5.184914e+02
2.550000e-06	3.089353e-06	7.801625e-09	2.121703e+01	5.084538e+02
2.560000e-06	2.957697e-06	7.643746e-09	2.031284e+01	4.980417e+02
2.570000e-06	2.825101e-06	7.478962e-09	1.940220e+01	4.872075e+02
2.580000e-06	2.691494e-06	7.313082e-09	1.848461e+01	4.759311e+02
2.590000e-06	2.557036e-06	7.136342e-09	1.756119e+01	4.642357e+02
2.600000e-06	2.421820e-06	6.951771e-09	1.663255e+01	4.521739e+02
2.610000e-06	2.285910e-06	6.758488e-09	1.569915e+01	4.397917e+02
2.620000e-06	2.149452e-06	6.563964e-09	1.476198e+01	4.270912e+02
2.630000e-06	2.012552e-06	6.364987e-09	1.382179e+01	4.140172e+02
2.640000e-06	1.875173e-06	6.158362e-09	1.287829e+01	4.004777e+02
2.650000e-06	1.737239e-06	5.942264e-09	1.193099e+01	3.863861e+02
2.660000e-06	1.598818e-06	5.718027e-09	1.098035e+01	3.717009e+02
2.670000e-06	1.459998e-06	5.486999e-09	1.002696e+01	3.564358e+02
2.680000e-06	1.320881e-06	5.246202e-09	9.071532e+00	3.406358e+02
2.690000e-06	1.181486e-06	4.997126e-09	8.114196e+00	3.243324e+02
2.700000e-06	1.041754e-06	4.738913e-09	7.154545e+00	3.075075e+02
2.710000e-06	9.016663e-07	4.472826e-09	6.192454e+00	2.900858e+02
2.720000e-06	7.613072e-07	4.196448e-09	5.228498e+00	2.719612e+02
2.730000e-06	6.207501e-07	3.906812e-09	4.263181e+00	2.530383e+02
2.740000e-06	4.800628e-07	3.604494e-09	3.296970e+00	2.332631e+02
2.750000e-06	3.392884e-07	3.291647e-09	2.330162e+00	2.126250e+02
2.760000e-06	1.984685e-07	2.969432e-09	1.363040e+00	1.911310e+02
2.770000e-06	5.759735e-08	2.633546e-09	3.955665e-01	1.687711e+02
2.780000e-06	-8.332227e-08	2.277596e-09	-5.722398e-01	1.454993e+02
2.790000e-06	-2.242501e-07	1.902009e-09	-1.540103e+00	1.212407e+02
2.800000e-06	-3.651187e-07	1.511384e-09	-2.507559e+00	9.592121e+01
2.810000e-06	-5.058563e-07	1.107379e-09	-3.474115e+00	6.949881e+01
2.820000e-06	-6.464530e-07	6.874051e-10	-4.439703e+00	4.198014e+01
2.830000e-06	-7.868768e-07	2.509643e-10	-5.404104e+00	1.341596e+01
2.840000e-06	-9.270756e-07	-1.981840e-10	-6.366960e+00	-1.611248e+01
2.850000e-06	-1.066958e-06	-6.582793e-10	-7.327646e+00	-4.649837e+01
2.860000e-06	-1.206529e-06	-1.131084e-09	-8.286187e+00	-7.759533e+01
2.870000e-06	-1.345794e-06	-1.616753e-09	-9.242627e+00	-1.091909e+02
2.880000e-06	-1.484670e-06	-2.106252e-09	-1.019640e+01	-1.409884e+02
2.890000e-06	-1.623110e-06	-2.591295e-09	-1.114718e+01	-1.726177e+02
2.900000e-06	-1.761138e-06	-3.067248e-09	-1.209512e+01	-2.036826e+02
2.910000e-06	-1.898740e-06	-3.529173e-09	-1.304015e+01	-2.338274e+02
2.920000e-06	-2.035853e-06	-3.973331e-09	-1.398181e+01	-2.627940e+02
2.930000e-06	-2.172420e-06	-4.395765e-09	-1.491972e+01	-2.904422e+02
2.940000e-06	-2.308434e-06	-4.796780e-09	-1.585384e+01	-3.167258e+02
2.950000e-06	-2.443888e-06	-5.180052e-09	-1.678411e+01	-3.416422e+02
