# Temperatura_=_20.0
# Concentracion g/m^3_=_10000.0
# C_Vs_to_Am_M_A/Vsm_=_65563218390.804596
# pendiente_HvsI_1/m_=_3716.3
# ordenada_HvsI_A/m_=_1297.0
# frecuencia_Hz_=_269579.4670119168

Tiempo_(s)	Campo_(V.s)	Magnetizacion_(V.s)	Campo_(kA/m)	Magnetizacion_(A/m)
0.000000e+00	-8.192065e-06	-1.149776e-08	-5.700067e+01	-7.524301e+02
1.000000e-08	-8.189113e-06	-1.150112e-08	-5.698013e+01	-7.524887e+02
2.000000e-08	-8.183911e-06	-1.149998e-08	-5.694393e+01	-7.524549e+02
3.000000e-08	-8.176600e-06	-1.149618e-08	-5.689307e+01	-7.522318e+02
4.000000e-08	-8.167077e-06	-1.149145e-08	-5.682680e+01	-7.517908e+02
5.000000e-08	-8.155183e-06	-1.148426e-08	-5.674405e+01	-7.511963e+02
6.000000e-08	-8.140877e-06	-1.147394e-08	-5.664451e+01	-7.505754e+02
7.000000e-08	-8.124094e-06	-1.145992e-08	-5.652773e+01	-7.500463e+02
8.000000e-08	-8.105001e-06	-1.146061e-08	-5.639488e+01	-7.496432e+02
9.000000e-08	-8.083577e-06	-1.148895e-08	-5.624581e+01	-7.492835e+02
1.000000e-07	-8.059518e-06	-1.147520e-08	-5.607840e+01	-7.488000e+02
1.100000e-07	-8.032813e-06	-1.144177e-08	-5.589259e+01	-7.480273e+02
1.200000e-07	-8.003836e-06	-1.144132e-08	-5.569097e+01	-7.468957e+02
1.300000e-07	-7.973146e-06	-1.140579e-08	-5.547743e+01	-7.454830e+02
1.400000e-07	-7.940848e-06	-1.135774e-08	-5.525270e+01	-7.439895e+02
1.500000e-07	-7.906472e-06	-1.141125e-08	-5.501350e+01	-7.426481e+02
1.600000e-07	-7.870075e-06	-1.134709e-08	-5.476025e+01	-7.416126e+02
1.700000e-07	-7.831765e-06	-1.130586e-08	-5.449369e+01	-7.408831e+02
1.800000e-07	-7.791115e-06	-1.136671e-08	-5.421085e+01	-7.403061e+02
1.900000e-07	-7.748170e-06	-1.129525e-08	-5.391204e+01	-7.396481e+02
2.000000e-07	-7.703093e-06	-1.128865e-08	-5.359838e+01	-7.387033e+02
2.100000e-07	-7.655890e-06	-1.126809e-08	-5.326995e+01	-7.373792e+02
2.200000e-07	-7.606396e-06	-1.121006e-08	-5.292557e+01	-7.357201e+02
2.300000e-07	-7.554237e-06	-1.120649e-08	-5.256264e+01	-7.338624e+02
2.400000e-07	-7.499651e-06	-1.117519e-08	-5.218283e+01	-7.319532e+02
2.500000e-07	-7.442858e-06	-1.114693e-08	-5.178766e+01	-7.300772e+02
2.600000e-07	-7.383808e-06	-1.111669e-08	-5.137679e+01	-7.282297e+02
2.700000e-07	-7.322692e-06	-1.108559e-08	-5.095154e+01	-7.263416e+02
2.800000e-07	-7.259549e-06	-1.106167e-08	-5.051220e+01	-7.243321e+02
2.900000e-07	-7.194263e-06	-1.101519e-08	-5.005793e+01	-7.221566e+02
3.000000e-07	-7.126761e-06	-1.098072e-08	-4.958825e+01	-7.198199e+02
3.100000e-07	-7.057031e-06	-1.092665e-08	-4.910307e+01	-7.173562e+02
3.200000e-07	-6.985193e-06	-1.090560e-08	-4.860322e+01	-7.147937e+02
3.300000e-07	-6.911296e-06	-1.087199e-08	-4.808903e+01	-7.121316e+02
3.400000e-07	-6.835157e-06	-1.080844e-08	-4.755926e+01	-7.093441e+02
3.500000e-07	-6.756652e-06	-1.077369e-08	-4.701302e+01	-7.064060e+02
3.600000e-07	-6.675955e-06	-1.071823e-08	-4.645152e+01	-7.033193e+02
3.700000e-07	-6.593328e-06	-1.067500e-08	-4.587661e+01	-7.001182e+02
3.800000e-07	-6.508860e-06	-1.062374e-08	-4.528887e+01	-6.968474e+02
3.900000e-07	-6.422652e-06	-1.056776e-08	-4.468904e+01	-6.935267e+02
4.000000e-07	-6.334772e-06	-1.051317e-08	-4.407756e+01	-6.901264e+02
4.100000e-07	-6.245138e-06	-1.046330e-08	-4.345389e+01	-6.865729e+02
4.200000e-07	-6.153654e-06	-1.041412e-08	-4.281734e+01	-6.827847e+02
4.300000e-07	-6.060372e-06	-1.034125e-08	-4.216828e+01	-6.787197e+02
4.400000e-07	-5.965399e-06	-1.027388e-08	-4.150745e+01	-6.744034e+02
4.500000e-07	-5.868712e-06	-1.020497e-08	-4.083470e+01	-6.699213e+02
4.600000e-07	-5.770337e-06	-1.014026e-08	-4.015020e+01	-6.653740e+02
4.700000e-07	-5.670406e-06	-1.007145e-08	-3.945488e+01	-6.608215e+02
4.800000e-07	-5.568982e-06	-9.996808e-09	-3.874917e+01	-6.562465e+02
4.900000e-07	-5.466103e-06	-9.922482e-09	-3.803333e+01	-6.515585e+02
5.000000e-07	-5.361654e-06	-9.845026e-09	-3.730657e+01	-6.466371e+02
5.100000e-07	-5.255650e-06	-9.760958e-09	-3.656899e+01	-6.413917e+02
5.200000e-07	-5.148243e-06	-9.668656e-09	-3.582165e+01	-6.358034e+02
5.300000e-07	-5.039431e-06	-9.583439e-09	-3.506453e+01	-6.299300e+02
5.400000e-07	-4.929250e-06	-9.498097e-09	-3.429789e+01	-6.238704e+02
5.500000e-07	-4.817740e-06	-9.405683e-09	-3.352200e+01	-6.177103e+02
5.600000e-07	-4.704828e-06	-9.301697e-09	-3.273635e+01	-6.114784e+02
5.700000e-07	-4.590488e-06	-9.198072e-09	-3.194078e+01	-6.051344e+02
5.800000e-07	-4.474669e-06	-9.100086e-09	-3.113490e+01	-5.985927e+02
5.900000e-07	-4.357413e-06	-9.000026e-09	-3.031903e+01	-5.917653e+02
6.000000e-07	-4.238941e-06	-8.890128e-09	-2.949470e+01	-5.846007e+02
6.100000e-07	-4.119292e-06	-8.772072e-09	-2.866218e+01	-5.770988e+02
6.200000e-07	-3.998386e-06	-8.655850e-09	-2.782091e+01	-5.692983e+02
6.300000e-07	-3.876249e-06	-8.535406e-09	-2.697108e+01	-5.612470e+02
6.400000e-07	-3.752907e-06	-8.404823e-09	-2.611286e+01	-5.529729e+02
6.500000e-07	-3.628361e-06	-8.266807e-09	-2.524626e+01	-5.444693e+02
6.600000e-07	-3.502810e-06	-8.131904e-09	-2.437267e+01	-5.357005e+02
6.700000e-07	-3.376363e-06	-7.999258e-09	-2.349285e+01	-5.266189e+02
6.800000e-07	-3.248923e-06	-7.859479e-09	-2.260612e+01	-5.171835e+02
6.900000e-07	-3.120392e-06	-7.706968e-09	-2.171179e+01	-5.073711e+02
7.000000e-07	-2.990788e-06	-7.548577e-09	-2.081001e+01	-4.971758e+02
7.100000e-07	-2.860264e-06	-7.388308e-09	-1.990182e+01	-4.866023e+02
7.200000e-07	-2.728948e-06	-7.222137e-09	-1.898812e+01	-4.756573e+02
7.300000e-07	-2.596852e-06	-7.048209e-09	-1.806899e+01	-4.643439e+02
7.400000e-07	-2.463947e-06	-6.867970e-09	-1.714423e+01	-4.526599e+02
7.500000e-07	-2.330353e-06	-6.686048e-09	-1.621468e+01	-4.405977e+02
7.600000e-07	-2.196173e-06	-6.497676e-09	-1.528105e+01	-4.281448e+02
7.700000e-07	-2.061454e-06	-6.298326e-09	-1.434367e+01	-4.152833e+02
7.800000e-07	-1.926206e-06	-6.091542e-09	-1.340261e+01	-4.019903e+02
7.900000e-07	-1.790396e-06	-5.883749e-09	-1.245763e+01	-3.882402e+02
8.000000e-07	-1.654077e-06	-5.670940e-09	-1.150913e+01	-3.740074e+02
8.100000e-07	-1.517344e-06	-5.447580e-09	-1.055773e+01	-3.592687e+02
8.200000e-07	-1.380167e-06	-5.213380e-09	-9.603248e+00	-3.440031e+02
8.300000e-07	-1.242566e-06	-4.970431e-09	-8.645819e+00	-3.281900e+02
8.400000e-07	-1.104636e-06	-4.720605e-09	-7.686094e+00	-3.118044e+02
8.500000e-07	-9.664137e-07	-4.462092e-09	-6.724340e+00	-2.948155e+02
8.600000e-07	-8.279672e-07	-4.192599e-09	-5.761025e+00	-2.771854e+02
8.700000e-07	-6.893262e-07	-3.912315e-09	-4.796356e+00	-2.588707e+02
8.800000e-07	-5.504641e-07	-3.623734e-09	-3.830148e+00	-2.398235e+02
8.900000e-07	-4.114798e-07	-3.324477e-09	-2.863090e+00	-2.199913e+02
9.000000e-07	-2.724799e-07	-3.008131e-09	-1.895925e+00	-1.993168e+02
9.100000e-07	-1.334054e-07	-2.674167e-09	-9.282394e-01	-1.777408e+02
9.200000e-07	5.734960e-09	-2.326703e-09	3.990405e-02	-1.552085e+02
9.300000e-07	1.448553e-07	-1.966377e-09	1.007908e+00	-1.316783e+02
9.400000e-07	2.839702e-07	-1.590722e-09	1.975874e+00	-1.071300e+02
9.500000e-07	4.230879e-07	-1.200396e-09	2.943860e+00	-8.156541e+01
9.600000e-07	5.620444e-07	-7.982246e-10	3.910724e+00	-5.500220e+01
9.700000e-07	7.008198e-07	-3.831561e-10	4.876328e+00	-2.746480e+01
9.800000e-07	8.394659e-07	4.919219e-11	5.841033e+00	1.019004e+00
9.900000e-07	9.778696e-07	4.994361e-10	6.804051e+00	3.040728e+01
1.000000e-06	1.115916e-06	9.633798e-10	7.764580e+00	6.061833e+01
1.010000e-06	1.253616e-06	1.436746e-09	8.722702e+00	9.149932e+01
1.020000e-06	1.390984e-06	1.913386e-09	9.678516e+00	1.228054e+02
1.030000e-06	1.527976e-06	2.388712e-09	1.063171e+01	1.542047e+02
1.040000e-06	1.664547e-06	2.859537e-09	1.158198e+01	1.853135e+02
1.050000e-06	1.800691e-06	3.320571e-09	1.252927e+01	2.157534e+02
1.060000e-06	1.936378e-06	3.767336e-09	1.347339e+01	2.452083e+02
1.070000e-06	2.071477e-06	4.198412e-09	1.441341e+01	2.734603e+02
1.080000e-06	2.205992e-06	4.609510e-09	1.534937e+01	3.003924e+02
1.090000e-06	2.339944e-06	4.997692e-09	1.628141e+01	3.259621e+02
1.100000e-06	2.473202e-06	5.363252e-09	1.720863e+01	3.501632e+02
1.110000e-06	2.605712e-06	5.707942e-09	1.813063e+01	3.729975e+02
1.120000e-06	2.737525e-06	6.033622e-09	1.904779e+01	3.944668e+02
1.130000e-06	2.868600e-06	6.338254e-09	1.995982e+01	4.145851e+02
1.140000e-06	2.998735e-06	6.621494e-09	2.086530e+01	4.333960e+02
1.150000e-06	3.127890e-06	6.886379e-09	2.176396e+01	4.509788e+02
1.160000e-06	3.256098e-06	7.133137e-09	2.265604e+01	4.674376e+02
1.170000e-06	3.383262e-06	7.364302e-09	2.354085e+01	4.828773e+02
1.180000e-06	3.509453e-06	7.582966e-09	2.441889e+01	4.973817e+02
1.190000e-06	3.634623e-06	7.789668e-09	2.528983e+01	5.110070e+02
1.200000e-06	3.758727e-06	7.983122e-09	2.615336e+01	5.237939e+02
1.210000e-06	3.881786e-06	8.163846e-09	2.700960e+01	5.357895e+02
1.220000e-06	4.003703e-06	8.333930e-09	2.785791e+01	5.470626e+02
1.230000e-06	4.124385e-06	8.494298e-09	2.869761e+01	5.577008e+02
1.240000e-06	4.243771e-06	8.646354e-09	2.952831e+01	5.677907e+02
1.250000e-06	4.361874e-06	8.791218e-09	3.035007e+01	5.773925e+02
1.260000e-06	4.478688e-06	8.930385e-09	3.116287e+01	5.865265e+02
1.270000e-06	4.594199e-06	9.064117e-09	3.196659e+01	5.951815e+02
1.280000e-06	4.708290e-06	9.189670e-09	3.276045e+01	6.033404e+02
1.290000e-06	4.820878e-06	9.305806e-09	3.354384e+01	6.110089e+02
1.300000e-06	4.932043e-06	9.414703e-09	3.431732e+01	6.182273e+02
1.310000e-06	5.041857e-06	9.517256e-09	3.508141e+01	6.250605e+02
1.320000e-06	5.150371e-06	9.614243e-09	3.583646e+01	6.315706e+02
1.330000e-06	5.257627e-06	9.705654e-09	3.658275e+01	6.377926e+02
1.340000e-06	5.363450e-06	9.793906e-09	3.731907e+01	6.437272e+02
1.350000e-06	5.467590e-06	9.879374e-09	3.804368e+01	6.493589e+02
1.360000e-06	5.570134e-06	9.960460e-09	3.875719e+01	6.546848e+02
1.370000e-06	5.671200e-06	1.003643e-08	3.946040e+01	6.597363e+02
1.380000e-06	5.770694e-06	1.010909e-08	4.015269e+01	6.645774e+02
1.390000e-06	5.868569e-06	1.018014e-08	4.083370e+01	6.692778e+02
1.400000e-06	5.964719e-06	1.024922e-08	4.150272e+01	6.738771e+02
1.410000e-06	6.059173e-06	1.031509e-08	4.215993e+01	6.783640e+02
1.420000e-06	6.152061e-06	1.037725e-08	4.280625e+01	6.826843e+02
1.430000e-06	6.243286e-06	1.043722e-08	4.344100e+01	6.867773e+02
1.440000e-06	6.332687e-06	1.049489e-08	4.406305e+01	6.906169e+02
1.450000e-06	6.420251e-06	1.055043e-08	4.467232e+01	6.942345e+02
1.460000e-06	6.506009e-06	1.060276e-08	4.526904e+01	6.977065e+02
1.470000e-06	6.589996e-06	1.065319e-08	4.585342e+01	7.011120e+02
1.480000e-06	6.672115e-06	1.070443e-08	4.642481e+01	7.044866e+02
1.490000e-06	6.752209e-06	1.075384e-08	4.698210e+01	7.077985e+02
1.500000e-06	6.830268e-06	1.079977e-08	4.752524e+01	7.109660e+02
1.510000e-06	6.906284e-06	1.084193e-08	4.805416e+01	7.139045e+02
1.520000e-06	6.980116e-06	1.088185e-08	4.856789e+01	7.165788e+02
1.530000e-06	7.051787e-06	1.091999e-08	4.906657e+01	7.190289e+02
1.540000e-06	7.121461e-06	1.095629e-08	4.955137e+01	7.213524e+02
1.550000e-06	7.189082e-06	1.099146e-08	5.002188e+01	7.236534e+02
1.560000e-06	7.254516e-06	1.102574e-08	5.047717e+01	7.259862e+02
1.570000e-06	7.317841e-06	1.106098e-08	5.091779e+01	7.283261e+02
1.580000e-06	7.379248e-06	1.109498e-08	5.134506e+01	7.305832e+02
1.590000e-06	7.438698e-06	1.112522e-08	5.175872e+01	7.326514e+02
1.600000e-06	7.496009e-06	1.115176e-08	5.215749e+01	7.344651e+02
1.610000e-06	7.551105e-06	1.117491e-08	5.254085e+01	7.360322e+02
1.620000e-06	7.603940e-06	1.119640e-08	5.290847e+01	7.374278e+02
1.630000e-06	7.654300e-06	1.121674e-08	5.325888e+01	7.387534e+02
1.640000e-06	7.702203e-06	1.123585e-08	5.359219e+01	7.400882e+02
1.650000e-06	7.747999e-06	1.125689e-08	5.391084e+01	7.414559e+02
1.660000e-06	7.791800e-06	1.128023e-08	5.421561e+01	7.428250e+02
1.670000e-06	7.833423e-06	1.130255e-08	5.450523e+01	7.441340e+02
1.680000e-06	7.872796e-06	1.132149e-08	5.477919e+01	7.453265e+02
1.690000e-06	7.910059e-06	1.133672e-08	5.503846e+01	7.463742e+02
1.700000e-06	7.945191e-06	1.134888e-08	5.528291e+01	7.472802e+02
1.710000e-06	7.977994e-06	1.135918e-08	5.551116e+01	7.480673e+02
1.720000e-06	8.008570e-06	1.136913e-08	5.572391e+01	7.487627e+02
1.730000e-06	8.037141e-06	1.137981e-08	5.592270e+01	7.493905e+02
1.740000e-06	8.063442e-06	1.139188e-08	5.610571e+01	7.499724e+02
1.750000e-06	8.087292e-06	1.140391e-08	5.627165e+01	7.505291e+02
1.760000e-06	8.108950e-06	1.141523e-08	5.642236e+01	7.510761e+02
1.770000e-06	8.128479e-06	1.142598e-08	5.655824e+01	7.516119e+02
1.780000e-06	8.145688e-06	1.143476e-08	5.667798e+01	7.521091e+02
1.790000e-06	8.160479e-06	1.144043e-08	5.678089e+01	7.525173e+02
1.800000e-06	8.172792e-06	1.144373e-08	5.686657e+01	7.527854e+02
1.810000e-06	8.182511e-06	1.144539e-08	5.693419e+01	7.528919e+02
1.820000e-06	8.189758e-06	1.144530e-08	5.698462e+01	7.528658e+02
1.830000e-06	8.194790e-06	1.144498e-08	5.701963e+01	7.527815e+02
1.840000e-06	8.197556e-06	1.144671e-08	5.703887e+01	7.527235e+02
1.850000e-06	8.197933e-06	1.144941e-08	5.704150e+01	7.527384e+02
1.860000e-06	8.196063e-06	1.145003e-08	5.702849e+01	7.528021e+02
1.870000e-06	8.192037e-06	1.144713e-08	5.700048e+01	7.528248e+02
1.880000e-06	8.185668e-06	1.144566e-08	5.695616e+01	7.526972e+02
1.890000e-06	8.176998e-06	1.144355e-08	5.689584e+01	7.523537e+02
1.900000e-06	8.166122e-06	1.143692e-08	5.682016e+01	7.518162e+02
1.910000e-06	8.152908e-06	1.143136e-08	5.672822e+01	7.511904e+02
1.920000e-06	8.137484e-06	1.142666e-08	5.662089e+01	7.506085e+02
1.930000e-06	8.119986e-06	1.140157e-08	5.649914e+01	7.501508e+02
1.940000e-06	8.099793e-06	1.136052e-08	5.635864e+01	7.497884e+02
1.950000e-06	8.076218e-06	1.136176e-08	5.619460e+01	7.493847e+02
1.960000e-06	8.049789e-06	1.136258e-08	5.601071e+01	7.487609e+02
1.970000e-06	8.021418e-06	1.134974e-08	5.581330e+01	7.477934e+02
1.980000e-06	7.991427e-06	1.139056e-08	5.560463e+01	7.464907e+02
1.990000e-06	7.959857e-06	1.131246e-08	5.538496e+01	7.450046e+02
2.000000e-06	7.926328e-06	1.125854e-08	5.515166e+01	7.435673e+02
2.010000e-06	7.890876e-06	1.130255e-08	5.490499e+01	7.423813e+02
2.020000e-06	7.853492e-06	1.124171e-08	5.464487e+01	7.415224e+02
2.030000e-06	7.813557e-06	1.129294e-08	5.436700e+01	7.409021e+02
2.040000e-06	7.771416e-06	1.128027e-08	5.407378e+01	7.403109e+02
2.050000e-06	7.727321e-06	1.120052e-08	5.376696e+01	7.395173e+02
2.060000e-06	7.681016e-06	1.127740e-08	5.344478e+01	7.383695e+02
2.070000e-06	7.632602e-06	1.122803e-08	5.310791e+01	7.368509e+02
2.080000e-06	7.581764e-06	1.119834e-08	5.275418e+01	7.350646e+02
2.090000e-06	7.528330e-06	1.118675e-08	5.238238e+01	7.331635e+02
2.100000e-06	7.472581e-06	1.112154e-08	5.199447e+01	7.312675e+02
2.110000e-06	7.414719e-06	1.114959e-08	5.159187e+01	7.294128e+02
2.120000e-06	7.354839e-06	1.107551e-08	5.117522e+01	7.275539e+02
2.130000e-06	7.292691e-06	1.104702e-08	5.074279e+01	7.256086e+02
2.140000e-06	7.228387e-06	1.102947e-08	5.029536e+01	7.235115e+02
2.150000e-06	7.162023e-06	1.099166e-08	4.983360e+01	7.212455e+02
2.160000e-06	7.093412e-06	1.098985e-08	4.935621e+01	7.188353e+02
2.170000e-06	7.022513e-06	1.090825e-08	4.886289e+01	7.163162e+02
2.180000e-06	6.949384e-06	1.089926e-08	4.835406e+01	7.137019e+02
2.190000e-06	6.874213e-06	1.084244e-08	4.783101e+01	7.109758e+02
2.200000e-06	6.796797e-06	1.079691e-08	4.729235e+01	7.081086e+02
2.210000e-06	6.717204e-06	1.076833e-08	4.673854e+01	7.050875e+02
2.220000e-06	6.635699e-06	1.069389e-08	4.617143e+01	7.019331e+02
2.230000e-06	6.552328e-06	1.066942e-08	4.559133e+01	6.986895e+02
2.240000e-06	6.467024e-06	1.060828e-08	4.499777e+01	6.953922e+02
2.250000e-06	6.379689e-06	1.057204e-08	4.439010e+01	6.920355e+02
2.260000e-06	6.290580e-06	1.050694e-08	4.377007e+01	6.885630e+02
2.270000e-06	6.199789e-06	1.045046e-08	4.313835e+01	6.848910e+02
2.280000e-06	6.107227e-06	1.040129e-08	4.249430e+01	6.809540e+02
2.290000e-06	6.012872e-06	1.032612e-08	4.183777e+01	6.767452e+02
2.300000e-06	5.916784e-06	1.026548e-08	4.116918e+01	6.723263e+02
2.310000e-06	5.819161e-06	1.018714e-08	4.048992e+01	6.677978e+02
2.320000e-06	5.720108e-06	1.013752e-08	3.980071e+01	6.632448e+02
2.330000e-06	5.619455e-06	1.006622e-08	3.910036e+01	6.586875e+02
2.340000e-06	5.517078e-06	9.990685e-09	3.838802e+01	6.540658e+02
2.350000e-06	5.413131e-06	9.916356e-09	3.766475e+01	6.492658e+02
2.360000e-06	5.307774e-06	9.848303e-09	3.693168e+01	6.441762e+02
2.370000e-06	5.201161e-06	9.778684e-09	3.618986e+01	6.387421e+02
2.380000e-06	5.093197e-06	9.685962e-09	3.543864e+01	6.329884e+02
2.390000e-06	4.983791e-06	9.593615e-09	3.467739e+01	6.270015e+02
2.400000e-06	4.872976e-06	9.498371e-09	3.390633e+01	6.208797e+02
2.410000e-06	4.760695e-06	9.410578e-09	3.312508e+01	6.146818e+02
2.420000e-06	4.647037e-06	9.313499e-09	3.233424e+01	6.083980e+02
2.430000e-06	4.532001e-06	9.212084e-09	3.153382e+01	6.019587e+02
2.440000e-06	4.415453e-06	9.112640e-09	3.072287e+01	5.952716e+02
2.450000e-06	4.297380e-06	9.012557e-09	2.990132e+01	5.882647e+02
2.460000e-06	4.177965e-06	8.903484e-09	2.907043e+01	5.809144e+02
2.470000e-06	4.057281e-06	8.783218e-09	2.823070e+01	5.732446e+02
2.480000e-06	3.935446e-06	8.661036e-09	2.738297e+01	5.653031e+02
2.490000e-06	3.812528e-06	8.540538e-09	2.652770e+01	5.571298e+02
2.500000e-06	3.688476e-06	8.418203e-09	2.566454e+01	5.487344e+02
2.510000e-06	3.563257e-06	8.286764e-09	2.479327e+01	5.400928e+02
2.520000e-06	3.436851e-06	8.147085e-09	2.391373e+01	5.311605e+02
2.530000e-06	3.309412e-06	8.007779e-09	2.302700e+01	5.218914e+02
2.540000e-06	3.180997e-06	7.865810e-09	2.213349e+01	5.122534e+02
2.550000e-06	3.051626e-06	7.714098e-09	2.123332e+01	5.022335e+02
2.560000e-06	2.921421e-06	7.552915e-09	2.032735e+01	4.918325e+02
2.570000e-06	2.790462e-06	7.388176e-09	1.941613e+01	4.810571e+02
2.580000e-06	2.658721e-06	7.221754e-09	1.849947e+01	4.699125e+02
2.590000e-06	2.526168e-06	7.045288e-09	1.757717e+01	4.583990e+02
2.600000e-06	2.392829e-06	6.859768e-09	1.664939e+01	4.465115e+02
2.610000e-06	2.258714e-06	6.671984e-09	1.571621e+01	4.342396e+02
2.620000e-06	2.123938e-06	6.483467e-09	1.477844e+01	4.215679e+02
2.630000e-06	1.988717e-06	6.286689e-09	1.383756e+01	4.084758e+02
2.640000e-06	1.853064e-06	6.079439e-09	1.289368e+01	3.949385e+02
2.650000e-06	1.716906e-06	5.862958e-09	1.194629e+01	3.809300e+02
2.660000e-06	1.580186e-06	5.640338e-09	1.099499e+01	3.664259e+02
2.670000e-06	1.442997e-06	5.410909e-09	1.004042e+01	3.514043e+02
2.680000e-06	1.305511e-06	5.172826e-09	9.083794e+00	3.358449e+02
2.690000e-06	1.167777e-06	4.925816e-09	8.125430e+00	3.197252e+02
2.700000e-06	1.029852e-06	4.670445e-09	7.165747e+00	3.030171e+02
2.710000e-06	8.917554e-07	4.406960e-09	6.204865e+00	2.856860e+02
2.720000e-06	7.534318e-07	4.131165e-09	5.242404e+00	2.676908e+02
2.730000e-06	6.148758e-07	3.840890e-09	4.278327e+00	2.489856e+02
2.740000e-06	4.761959e-07	3.541126e-09	3.313388e+00	2.295200e+02
2.750000e-06	3.374117e-07	3.235262e-09	2.347723e+00	2.092389e+02
2.760000e-06	1.985290e-07	2.918921e-09	1.381372e+00	1.880834e+02
2.770000e-06	5.960416e-08	2.586652e-09	4.147278e-01	1.659956e+02
2.780000e-06	-7.933429e-08	2.234106e-09	-5.520108e-01	1.429268e+02
2.790000e-06	-2.182717e-07	1.864389e-09	-1.518742e+00	1.188462e+02
2.800000e-06	-3.571850e-07	1.479558e-09	-2.485306e+00	9.374595e+01
2.810000e-06	-4.960047e-07	1.079970e-09	-3.451217e+00	6.763763e+01
2.820000e-06	-6.345941e-07	6.652671e-10	-4.415528e+00	4.054358e+01
2.830000e-06	-7.729566e-07	2.371047e-10	-5.378259e+00	1.248967e+01
2.840000e-06	-9.112202e-07	-2.027911e-10	-6.340302e+00	-1.649104e+01
2.850000e-06	-1.049342e-06	-6.567494e-10	-7.301359e+00	-4.633895e+01
2.860000e-06	-1.187206e-06	-1.124092e-09	-8.260620e+00	-7.693746e+01
2.870000e-06	-1.324713e-06	-1.601698e-09	-9.217401e+00	-1.080851e+02
2.880000e-06	-1.461824e-06	-2.081786e-09	-1.017142e+01	-1.394874e+02
2.890000e-06	-1.598530e-06	-2.560297e-09	-1.112262e+01	-1.707780e+02
2.900000e-06	-1.734790e-06	-3.032095e-09	-1.207073e+01	-2.015686e+02
2.910000e-06	-1.870614e-06	-3.491271e-09	-1.301579e+01	-2.315084e+02
2.920000e-06	-2.006042e-06	-3.933461e-09	-1.395811e+01	-2.603319e+02
2.930000e-06	-2.140993e-06	-4.354044e-09	-1.489710e+01	-2.878779e+02
2.940000e-06	-2.275339e-06	-4.754583e-09	-1.583188e+01	-3.140740e+02
2.950000e-06	-2.408968e-06	-5.135855e-09	-1.676168e+01	-3.389022e+02
