# Temperatura_=_20.0
# Concentracion g/m^3_=_10000.0
# C_Vs_to_Am_M_A/Vsm_=_65563218390.804596
# pendiente_HvsI_1/m_=_3716.3
# ordenada_HvsI_A/m_=_1297.0
# frecuencia_Hz_=_269584.39397664083

Tiempo_(s)	Campo_(V.s)	Magnetizacion_(V.s)	Campo_(kA/m)	Magnetizacion_(A/m)
0.000000e+00	-8.244283e-06	-1.163150e-08	-5.699970e+01	-7.618216e+02
1.000000e-08	-8.241193e-06	-1.163154e-08	-5.697834e+01	-7.617265e+02
2.000000e-08	-8.235874e-06	-1.163107e-08	-5.694156e+01	-7.616590e+02
3.000000e-08	-8.228440e-06	-1.162752e-08	-5.689016e+01	-7.615612e+02
4.000000e-08	-8.218729e-06	-1.162386e-08	-5.682302e+01	-7.613564e+02
5.000000e-08	-8.206571e-06	-1.162070e-08	-5.673897e+01	-7.609910e+02
6.000000e-08	-8.191928e-06	-1.162062e-08	-5.663773e+01	-7.604637e+02
7.000000e-08	-8.174873e-06	-1.162601e-08	-5.651981e+01	-7.598255e+02
8.000000e-08	-8.155472e-06	-1.158898e-08	-5.638568e+01	-7.591471e+02
9.000000e-08	-8.133666e-06	-1.157644e-08	-5.623491e+01	-7.584742e+02
1.000000e-07	-8.109230e-06	-1.159612e-08	-5.606597e+01	-7.577956e+02
1.100000e-07	-8.082190e-06	-1.157801e-08	-5.587902e+01	-7.570445e+02
1.200000e-07	-8.052955e-06	-1.156645e-08	-5.567689e+01	-7.561330e+02
1.300000e-07	-8.022045e-06	-1.159207e-08	-5.546318e+01	-7.550024e+02
1.400000e-07	-7.989435e-06	-1.149173e-08	-5.523772e+01	-7.536598e+02
1.500000e-07	-7.954663e-06	-1.149513e-08	-5.499731e+01	-7.521809e+02
1.600000e-07	-7.917802e-06	-1.154725e-08	-5.474246e+01	-7.506767e+02
1.700000e-07	-7.878927e-06	-1.142141e-08	-5.447368e+01	-7.492419e+02
1.800000e-07	-7.837775e-06	-1.145995e-08	-5.418917e+01	-7.479118e+02
1.900000e-07	-7.794446e-06	-1.144116e-08	-5.388960e+01	-7.466505e+02
2.000000e-07	-7.749039e-06	-1.137101e-08	-5.357566e+01	-7.453737e+02
2.100000e-07	-7.701424e-06	-1.141107e-08	-5.324646e+01	-7.439929e+02
2.200000e-07	-7.651307e-06	-1.134909e-08	-5.289996e+01	-7.424551e+02
2.300000e-07	-7.598518e-06	-1.131067e-08	-5.253499e+01	-7.407585e+02
2.400000e-07	-7.543336e-06	-1.129731e-08	-5.215346e+01	-7.389391e+02
2.500000e-07	-7.485966e-06	-1.124422e-08	-5.175681e+01	-7.370394e+02
2.600000e-07	-7.426436e-06	-1.123622e-08	-5.134524e+01	-7.350784e+02
2.700000e-07	-7.364814e-06	-1.120338e-08	-5.091919e+01	-7.330413e+02
2.800000e-07	-7.301135e-06	-1.117271e-08	-5.047892e+01	-7.308913e+02
2.900000e-07	-7.235284e-06	-1.111394e-08	-5.002364e+01	-7.285943e+02
3.000000e-07	-7.167163e-06	-1.108795e-08	-4.955266e+01	-7.261411e+02
3.100000e-07	-7.096880e-06	-1.104962e-08	-4.906674e+01	-7.235530e+02
3.200000e-07	-7.024440e-06	-1.097840e-08	-4.856589e+01	-7.208683e+02
3.300000e-07	-6.949781e-06	-1.097034e-08	-4.804972e+01	-7.181196e+02
3.400000e-07	-6.872900e-06	-1.091410e-08	-4.751817e+01	-7.153147e+02
3.500000e-07	-6.793716e-06	-1.087593e-08	-4.697071e+01	-7.124309e+02
3.600000e-07	-6.712340e-06	-1.083127e-08	-4.640809e+01	-7.094270e+02
3.700000e-07	-6.629073e-06	-1.077061e-08	-4.583239e+01	-7.062622e+02
3.800000e-07	-6.544041e-06	-1.072300e-08	-4.524449e+01	-7.029144e+02
3.900000e-07	-6.457254e-06	-1.066549e-08	-4.464446e+01	-6.993860e+02
4.000000e-07	-6.368696e-06	-1.061343e-08	-4.403219e+01	-6.956986e+02
4.100000e-07	-6.278330e-06	-1.054991e-08	-4.340740e+01	-6.918801e+02
4.200000e-07	-6.186159e-06	-1.049745e-08	-4.277015e+01	-6.879505e+02
4.300000e-07	-6.092191e-06	-1.043297e-08	-4.212047e+01	-6.839158e+02
4.400000e-07	-5.996454e-06	-1.036371e-08	-4.145856e+01	-6.797664e+02
4.500000e-07	-5.899019e-06	-1.029427e-08	-4.078491e+01	-6.754827e+02
4.600000e-07	-5.799961e-06	-1.022074e-08	-4.010004e+01	-6.710401e+02
4.700000e-07	-5.699306e-06	-1.015747e-08	-3.940413e+01	-6.664153e+02
4.800000e-07	-5.597080e-06	-1.008733e-08	-3.869735e+01	-6.615895e+02
4.900000e-07	-5.493331e-06	-1.000974e-08	-3.798004e+01	-6.565532e+02
5.000000e-07	-5.388067e-06	-9.925972e-09	-3.725226e+01	-6.513079e+02
5.100000e-07	-5.281347e-06	-9.839853e-09	-3.651442e+01	-6.458665e+02
5.200000e-07	-5.173150e-06	-9.750793e-09	-3.576636e+01	-6.402482e+02
5.300000e-07	-5.063542e-06	-9.662681e-09	-3.500855e+01	-6.344691e+02
5.400000e-07	-4.952647e-06	-9.572998e-09	-3.424184e+01	-6.285329e+02
5.500000e-07	-4.840306e-06	-9.479421e-09	-3.346513e+01	-6.224243e+02
5.600000e-07	-4.726498e-06	-9.384398e-09	-3.267828e+01	-6.161122e+02
5.700000e-07	-4.611281e-06	-9.284012e-09	-3.188169e+01	-6.095596e+02
5.800000e-07	-4.494643e-06	-9.177305e-09	-3.107527e+01	-6.027385e+02
5.900000e-07	-4.376630e-06	-9.066629e-09	-3.025935e+01	-5.956400e+02
6.000000e-07	-4.257344e-06	-8.955068e-09	-2.943462e+01	-5.882745e+02
6.100000e-07	-4.136810e-06	-8.840705e-09	-2.860127e+01	-5.806623e+02
6.200000e-07	-4.014986e-06	-8.721843e-09	-2.775899e+01	-5.728172e+02
6.300000e-07	-3.891950e-06	-8.597720e-09	-2.690834e+01	-5.647340e+02
6.400000e-07	-3.767709e-06	-8.469832e-09	-2.604936e+01	-5.563845e+02
6.500000e-07	-3.642369e-06	-8.337379e-09	-2.518278e+01	-5.477269e+02
6.600000e-07	-3.516078e-06	-8.197459e-09	-2.430962e+01	-5.387207e+02
6.700000e-07	-3.388798e-06	-8.049950e-09	-2.342963e+01	-5.293422e+02
6.800000e-07	-3.260412e-06	-7.899031e-09	-2.254199e+01	-5.195904e+02
6.900000e-07	-3.130918e-06	-7.744361e-09	-2.164668e+01	-5.094821e+02
7.000000e-07	-3.000536e-06	-7.586520e-09	-2.074524e+01	-4.990384e+02
7.100000e-07	-2.869252e-06	-7.422205e-09	-1.983757e+01	-4.882702e+02
7.200000e-07	-2.736949e-06	-7.251525e-09	-1.892284e+01	-4.771697e+02
7.300000e-07	-2.603826e-06	-7.077719e-09	-1.800245e+01	-4.657112e+02
7.400000e-07	-2.470111e-06	-6.898073e-09	-1.707797e+01	-4.538600e+02
7.500000e-07	-2.335769e-06	-6.711371e-09	-1.614915e+01	-4.415841e+02
7.600000e-07	-2.200694e-06	-6.514081e-09	-1.521526e+01	-4.288629e+02
7.700000e-07	-2.064969e-06	-6.308541e-09	-1.427688e+01	-4.156889e+02
7.800000e-07	-1.928639e-06	-6.099292e-09	-1.333432e+01	-4.020633e+02
7.900000e-07	-1.791728e-06	-5.887549e-09	-1.238773e+01	-3.879871e+02
8.000000e-07	-1.654342e-06	-5.668130e-09	-1.143786e+01	-3.734532e+02
8.100000e-07	-1.516475e-06	-5.441105e-09	-1.048467e+01	-3.584402e+02
8.200000e-07	-1.378237e-06	-5.205987e-09	-9.528919e+00	-3.429128e+02
8.300000e-07	-1.239772e-06	-4.959974e-09	-8.571594e+00	-3.268244e+02
8.400000e-07	-1.101076e-06	-4.701819e-09	-7.612667e+00	-3.101239e+02
8.500000e-07	-9.621029e-07	-4.432284e-09	-6.651831e+00	-2.927608e+02
8.600000e-07	-8.228987e-07	-4.155794e-09	-5.689394e+00	-2.746905e+02
8.700000e-07	-6.835034e-07	-3.868671e-09	-4.725637e+00	-2.558750e+02
8.800000e-07	-5.439353e-07	-3.570653e-09	-3.760685e+00	-2.362818e+02
8.900000e-07	-4.043013e-07	-3.260460e-09	-2.795277e+00	-2.158791e+02
9.000000e-07	-2.645467e-07	-2.935819e-09	-1.829035e+00	-1.946319e+02
9.100000e-07	-1.246455e-07	-2.597144e-09	-8.617794e-01	-1.724992e+02
9.200000e-07	1.532998e-08	-2.242710e-09	1.059891e-01	-1.494344e+02
9.300000e-07	1.552990e-07	-1.872068e-09	1.073714e+00	-1.253888e+02
9.400000e-07	2.951678e-07	-1.487371e-09	2.040745e+00	-1.003171e+02
9.500000e-07	4.349277e-07	-1.090131e-09	3.007023e+00	-7.418302e+01
9.600000e-07	5.746176e-07	-6.785012e-10	3.972818e+00	-4.696592e+01
9.700000e-07	7.141560e-07	-2.486267e-10	4.937565e+00	-1.866894e+01
9.800000e-07	8.534561e-07	2.003807e-10	5.900664e+00	1.066876e+01
9.900000e-07	9.925614e-07	6.643009e-10	6.862416e+00	4.095608e+01
1.000000e-06	1.131418e-06	1.140116e-09	7.822447e+00	7.203393e+01
1.010000e-06	1.270002e-06	1.624536e-09	8.780599e+00	1.036661e+02
1.020000e-06	1.408265e-06	2.111215e-09	9.736530e+00	1.355447e+02
1.030000e-06	1.546145e-06	2.593691e-09	1.068980e+01	1.673147e+02
1.040000e-06	1.683668e-06	3.068426e-09	1.164062e+01	1.986126e+02
1.050000e-06	1.820827e-06	3.532402e-09	1.258892e+01	2.291109e+02
1.060000e-06	1.957524e-06	3.980097e-09	1.353402e+01	2.585512e+02
1.070000e-06	2.093594e-06	4.409046e-09	1.447478e+01	2.867580e+02
1.080000e-06	2.228915e-06	4.817488e-09	1.541038e+01	3.136292e+02
1.090000e-06	2.363493e-06	5.204400e-09	1.634083e+01	3.391115e+02
1.100000e-06	2.497430e-06	5.566539e-09	1.726684e+01	3.631758e+02
1.110000e-06	2.630760e-06	5.907174e-09	1.818867e+01	3.858050e+02
1.120000e-06	2.763362e-06	6.227906e-09	1.910546e+01	4.069979e+02
1.130000e-06	2.895112e-06	6.528066e-09	2.001636e+01	4.267843e+02
1.140000e-06	3.025941e-06	6.808570e-09	2.092089e+01	4.452367e+02
1.150000e-06	3.155859e-06	7.069360e-09	2.181912e+01	4.624682e+02
1.160000e-06	3.284891e-06	7.312789e-09	2.271123e+01	4.786133e+02
1.170000e-06	3.412854e-06	7.539995e-09	2.359595e+01	4.937982e+02
1.180000e-06	3.539722e-06	7.755378e-09	2.447309e+01	5.081153e+02
1.190000e-06	3.665675e-06	7.959672e-09	2.534391e+01	5.216156e+02
1.200000e-06	3.790633e-06	8.150144e-09	2.620785e+01	5.343202e+02
1.210000e-06	3.914407e-06	8.327906e-09	2.706361e+01	5.462460e+02
1.220000e-06	4.036945e-06	8.495716e-09	2.791082e+01	5.574286e+02
1.230000e-06	4.158312e-06	8.655501e-09	2.874993e+01	5.679319e+02
1.240000e-06	4.278469e-06	8.809426e-09	2.958068e+01	5.778385e+02
1.250000e-06	4.397322e-06	8.954551e-09	3.040241e+01	5.872290e+02
1.260000e-06	4.514894e-06	9.089973e-09	3.121528e+01	5.961617e+02
1.270000e-06	4.631089e-06	9.217747e-09	3.201863e+01	6.046650e+02
1.280000e-06	4.745817e-06	9.338346e-09	3.281185e+01	6.127441e+02
1.290000e-06	4.859093e-06	9.453236e-09	3.359502e+01	6.203968e+02
1.300000e-06	4.970865e-06	9.564025e-09	3.436780e+01	6.276279e+02
1.310000e-06	5.081299e-06	9.668932e-09	3.513132e+01	6.344550e+02
1.320000e-06	5.190502e-06	9.767589e-09	3.588633e+01	6.409046e+02
1.330000e-06	5.298283e-06	9.860568e-09	3.663151e+01	6.470059e+02
1.340000e-06	5.404606e-06	9.948872e-09	3.736661e+01	6.527884e+02
1.350000e-06	5.509374e-06	1.003221e-08	3.809096e+01	6.582862e+02
1.360000e-06	5.612546e-06	1.010950e-08	3.880428e+01	6.635438e+02
1.370000e-06	5.714253e-06	1.018358e-08	3.950746e+01	6.686152e+02
1.380000e-06	5.814341e-06	1.025681e-08	4.019946e+01	6.735515e+02
1.390000e-06	5.912680e-06	1.032902e-08	4.087935e+01	6.783809e+02
1.400000e-06	6.009305e-06	1.040013e-08	4.154740e+01	6.830925e+02
1.410000e-06	6.104236e-06	1.046919e-08	4.220374e+01	6.876372e+02
1.420000e-06	6.197480e-06	1.053457e-08	4.284842e+01	6.919508e+02
1.430000e-06	6.289003e-06	1.059648e-08	4.348120e+01	6.959910e+02
1.440000e-06	6.378784e-06	1.065320e-08	4.410193e+01	6.997679e+02
1.450000e-06	6.466703e-06	1.070607e-08	4.470979e+01	7.033498e+02
1.460000e-06	6.552773e-06	1.075632e-08	4.530486e+01	7.068359e+02
1.470000e-06	6.637097e-06	1.080651e-08	4.588787e+01	7.103075e+02
1.480000e-06	6.719576e-06	1.085922e-08	4.645811e+01	7.137827e+02
1.490000e-06	6.800059e-06	1.091179e-08	4.701456e+01	7.172011e+02
1.500000e-06	6.878524e-06	1.096221e-08	4.755705e+01	7.204509e+02
1.510000e-06	6.954913e-06	1.100835e-08	4.808520e+01	7.234257e+02
1.520000e-06	7.029080e-06	1.104903e-08	4.859797e+01	7.260834e+02
1.530000e-06	7.101076e-06	1.108545e-08	4.909574e+01	7.284741e+02
1.540000e-06	7.171048e-06	1.111915e-08	4.957952e+01	7.307202e+02
1.550000e-06	7.239006e-06	1.115141e-08	5.004937e+01	7.329574e+02
1.560000e-06	7.304811e-06	1.118447e-08	5.050434e+01	7.352672e+02
1.570000e-06	7.368464e-06	1.121884e-08	5.094443e+01	7.376363e+02
1.580000e-06	7.430120e-06	1.125369e-08	5.137071e+01	7.399645e+02
1.590000e-06	7.489794e-06	1.128790e-08	5.178328e+01	7.421175e+02
1.600000e-06	7.547318e-06	1.131720e-08	5.218099e+01	7.439953e+02
1.610000e-06	7.602649e-06	1.134097e-08	5.256354e+01	7.455814e+02
1.620000e-06	7.655747e-06	1.136246e-08	5.293065e+01	7.469470e+02
1.630000e-06	7.706281e-06	1.138270e-08	5.328004e+01	7.482121e+02
1.640000e-06	7.754273e-06	1.140332e-08	5.361185e+01	7.494848e+02
1.650000e-06	7.800132e-06	1.142378e-08	5.392891e+01	7.508136e+02
1.660000e-06	7.843990e-06	1.144532e-08	5.423214e+01	7.521741e+02
1.670000e-06	7.885674e-06	1.146704e-08	5.452034e+01	7.534937e+02
1.680000e-06	7.925146e-06	1.148565e-08	5.479324e+01	7.546963e+02
1.690000e-06	7.962535e-06	1.150289e-08	5.505174e+01	7.557402e+02
1.700000e-06	7.997795e-06	1.151654e-08	5.529552e+01	7.566307e+02
1.710000e-06	8.030730e-06	1.152718e-08	5.552323e+01	7.574053e+02
1.720000e-06	8.061412e-06	1.153827e-08	5.573536e+01	7.581060e+02
1.730000e-06	8.090045e-06	1.154932e-08	5.593333e+01	7.587570e+02
1.740000e-06	8.116487e-06	1.156078e-08	5.611614e+01	7.593619e+02
1.750000e-06	8.140489e-06	1.157213e-08	5.628209e+01	7.599150e+02
1.760000e-06	8.162159e-06	1.158186e-08	5.643191e+01	7.604169e+02
1.770000e-06	8.181672e-06	1.159146e-08	5.656682e+01	7.608799e+02
1.780000e-06	8.198820e-06	1.160096e-08	5.668538e+01	7.613176e+02
1.790000e-06	8.213507e-06	1.160756e-08	5.678692e+01	7.617282e+02
1.800000e-06	8.225773e-06	1.161135e-08	5.687172e+01	7.620853e+02
1.810000e-06	8.235484e-06	1.161362e-08	5.693887e+01	7.623462e+02
1.820000e-06	8.242690e-06	1.161462e-08	5.698869e+01	7.624751e+02
1.830000e-06	8.247571e-06	1.161497e-08	5.702244e+01	7.624685e+02
1.840000e-06	8.250124e-06	1.161609e-08	5.704008e+01	7.623644e+02
1.850000e-06	8.250329e-06	1.161319e-08	5.704150e+01	7.622271e+02
1.860000e-06	8.248319e-06	1.161576e-08	5.702761e+01	7.621128e+02
1.870000e-06	8.244126e-06	1.161548e-08	5.699861e+01	7.620373e+02
1.880000e-06	8.237599e-06	1.161276e-08	5.695349e+01	7.619626e+02
1.890000e-06	8.228813e-06	1.161003e-08	5.689274e+01	7.618159e+02
1.900000e-06	8.217817e-06	1.160254e-08	5.681672e+01	7.615277e+02
1.910000e-06	8.204516e-06	1.159182e-08	5.672476e+01	7.610709e+02
1.920000e-06	8.188969e-06	1.155332e-08	5.661727e+01	7.604749e+02
1.930000e-06	8.171162e-06	1.158679e-08	5.649415e+01	7.598066e+02
1.940000e-06	8.150544e-06	1.157919e-08	5.635160e+01	7.591287e+02
1.950000e-06	8.126672e-06	1.152857e-08	5.618656e+01	7.584581e+02
1.960000e-06	8.100049e-06	1.153904e-08	5.600249e+01	7.577509e+02
1.970000e-06	8.071312e-06	1.146948e-08	5.580381e+01	7.569230e+02
1.980000e-06	8.040976e-06	1.149747e-08	5.559407e+01	7.558964e+02
1.990000e-06	8.009165e-06	1.155434e-08	5.537413e+01	7.546452e+02
2.000000e-06	7.975383e-06	1.138373e-08	5.514057e+01	7.532160e+02
2.010000e-06	7.939599e-06	1.143701e-08	5.489316e+01	7.517093e+02
2.020000e-06	7.901748e-06	1.144101e-08	5.463147e+01	7.502340e+02
2.030000e-06	7.861408e-06	1.131784e-08	5.435257e+01	7.488562e+02
2.040000e-06	7.818882e-06	1.143134e-08	5.405855e+01	7.475717e+02
2.050000e-06	7.774345e-06	1.132444e-08	5.375062e+01	7.463137e+02
2.060000e-06	7.727622e-06	1.129176e-08	5.342759e+01	7.449900e+02
2.070000e-06	7.678761e-06	1.134343e-08	5.308977e+01	7.435274e+02
2.080000e-06	7.627365e-06	1.124988e-08	5.273443e+01	7.419008e+02
2.090000e-06	7.573413e-06	1.131698e-08	5.236141e+01	7.401319e+02
2.100000e-06	7.517235e-06	1.123058e-08	5.197300e+01	7.382646e+02
2.110000e-06	7.458944e-06	1.118298e-08	5.156999e+01	7.363314e+02
2.120000e-06	7.398595e-06	1.121287e-08	5.115274e+01	7.343329e+02
2.130000e-06	7.336017e-06	1.111493e-08	5.072009e+01	7.322397e+02
2.140000e-06	7.271307e-06	1.114060e-08	5.027269e+01	7.300130e+02
2.150000e-06	7.204416e-06	1.104815e-08	4.981022e+01	7.276304e+02
2.160000e-06	7.135182e-06	1.107059e-08	4.933155e+01	7.250998e+02
2.170000e-06	7.063620e-06	1.103482e-08	4.883678e+01	7.224544e+02
2.180000e-06	6.989835e-06	1.093810e-08	4.832664e+01	7.197322e+02
2.190000e-06	6.914036e-06	1.095375e-08	4.780258e+01	7.169541e+02
2.200000e-06	6.836010e-06	1.084333e-08	4.726312e+01	7.141108e+02
2.210000e-06	6.755809e-06	1.085864e-08	4.670862e+01	7.111674e+02
2.220000e-06	6.673706e-06	1.078655e-08	4.614097e+01	7.080805e+02
2.230000e-06	6.589599e-06	1.073567e-08	4.555947e+01	7.048177e+02
2.240000e-06	6.503480e-06	1.069824e-08	4.496406e+01	7.013702e+02
2.250000e-06	6.415477e-06	1.062339e-08	4.435562e+01	6.977522e+02
2.260000e-06	6.325753e-06	1.060092e-08	4.373528e+01	6.939905e+02
2.270000e-06	6.234282e-06	1.050456e-08	4.310287e+01	6.901101e+02
2.280000e-06	6.141010e-06	1.047359e-08	4.245800e+01	6.861238e+02
2.290000e-06	6.045955e-06	1.039528e-08	4.180080e+01	6.820289e+02
2.300000e-06	5.949223e-06	1.034851e-08	4.113201e+01	6.778096e+02
2.310000e-06	5.850960e-06	1.027999e-08	4.045263e+01	6.734428e+02
2.320000e-06	5.751073e-06	1.020195e-08	3.976204e+01	6.689042e+02
2.330000e-06	5.649513e-06	1.013888e-08	3.905986e+01	6.641722e+02
2.340000e-06	5.546278e-06	1.005300e-08	3.834611e+01	6.592329e+02
2.350000e-06	5.441534e-06	9.991969e-09	3.762193e+01	6.540823e+02
2.360000e-06	5.335455e-06	9.899029e-09	3.688851e+01	6.487286e+02
2.370000e-06	5.228060e-06	9.829251e-09	3.614600e+01	6.431889e+02
2.380000e-06	5.119321e-06	9.737287e-09	3.539419e+01	6.374820e+02
2.390000e-06	5.009167e-06	9.658181e-09	3.463261e+01	6.316185e+02
2.400000e-06	4.897486e-06	9.558928e-09	3.386046e+01	6.255919e+02
2.410000e-06	4.784312e-06	9.456772e-09	3.307799e+01	6.193775e+02
2.420000e-06	4.669733e-06	9.363094e-09	3.228582e+01	6.129394e+02
2.430000e-06	4.553646e-06	9.265814e-09	3.148321e+01	6.062438e+02
2.440000e-06	4.436146e-06	9.165891e-09	3.067083e+01	5.992721e+02
2.450000e-06	4.317303e-06	9.048887e-09	2.984917e+01	5.920266e+02
2.460000e-06	4.197085e-06	8.936812e-09	2.901800e+01	5.845250e+02
2.470000e-06	4.075662e-06	8.816546e-09	2.817850e+01	5.767858e+02
2.480000e-06	3.953142e-06	8.701754e-09	2.733141e+01	5.688139e+02
2.490000e-06	3.829392e-06	8.573235e-09	2.647583e+01	5.605910e+02
2.500000e-06	3.704433e-06	8.445018e-09	2.561188e+01	5.520801e+02
2.510000e-06	3.578416e-06	8.311248e-09	2.474061e+01	5.432378e+02
2.520000e-06	3.451291e-06	8.175737e-09	2.386169e+01	5.340314e+02
2.530000e-06	3.323003e-06	8.029671e-09	2.297473e+01	5.244494e+02
2.540000e-06	3.193738e-06	7.876787e-09	2.208101e+01	5.145017e+02
2.550000e-06	3.063628e-06	7.721105e-09	2.118145e+01	5.042094e+02
2.560000e-06	2.932689e-06	7.562259e-09	2.027616e+01	4.935896e+02
2.570000e-06	2.800879e-06	7.399192e-09	1.936484e+01	4.826436e+02
2.580000e-06	2.668195e-06	7.223955e-09	1.844749e+01	4.713531e+02
2.590000e-06	2.534771e-06	7.044719e-09	1.752502e+01	4.596863e+02
2.600000e-06	2.400685e-06	6.858222e-09	1.659797e+01	4.476084e+02
2.610000e-06	2.265908e-06	6.670267e-09	1.566614e+01	4.350929e+02
2.620000e-06	2.130361e-06	6.473284e-09	1.472898e+01	4.221265e+02
2.630000e-06	1.994162e-06	6.269104e-09	1.378733e+01	4.087075e+02
2.640000e-06	1.857463e-06	6.058226e-09	1.284221e+01	3.948380e+02
2.650000e-06	1.720257e-06	5.840731e-09	1.189359e+01	3.805155e+02
2.660000e-06	1.582602e-06	5.613652e-09	1.094186e+01	3.657256e+02
2.670000e-06	1.444612e-06	5.376064e-09	9.987827e+00	3.504391e+02
2.680000e-06	1.306322e-06	5.133039e-09	9.031706e+00	3.346141e+02
2.690000e-06	1.167691e-06	4.885485e-09	8.073239e+00	3.182005e+02
2.700000e-06	1.028709e-06	4.628673e-09	7.112337e+00	3.011470e+02
2.710000e-06	8.894291e-07	4.358592e-09	6.149376e+00	2.834058e+02
2.720000e-06	7.499277e-07	4.076134e-09	5.184884e+00	2.649361e+02
2.730000e-06	6.101975e-07	3.780826e-09	4.218812e+00	2.457032e+02
2.740000e-06	4.703101e-07	3.474992e-09	3.251652e+00	2.256755e+02
2.750000e-06	3.303972e-07	3.158035e-09	2.284315e+00	2.048200e+02
2.760000e-06	1.904475e-07	2.828458e-09	1.316725e+00	1.830986e+02
2.770000e-06	5.040305e-08	2.487054e-09	3.484789e-01	1.604670e+02
2.780000e-06	-8.970284e-08	2.130950e-09	-6.201916e-01	1.368768e+02
2.790000e-06	-2.297550e-07	1.755953e-09	-1.588491e+00	1.122805e+02
2.800000e-06	-3.697059e-07	1.361511e-09	-2.556090e+00	8.663697e+01
2.810000e-06	-5.095834e-07	9.508208e-10	-3.523181e+00	5.991748e+01
2.820000e-06	-6.493637e-07	5.264148e-10	-4.489601e+00	3.211303e+01
2.830000e-06	-7.889850e-07	8.690674e-11	-5.454921e+00	3.244489e+00
2.840000e-06	-9.283854e-07	-3.678681e-10	-6.418714e+00	-2.662297e+01
2.850000e-06	-1.067453e-06	-8.362825e-10	-7.380205e+00	-5.736315e+01
2.860000e-06	-1.206158e-06	-1.313956e-09	-8.339193e+00	-8.877553e+01
2.870000e-06	-1.344472e-06	-1.797721e-09	-9.295469e+00	-1.205833e+02
2.880000e-06	-1.482430e-06	-2.283871e-09	-1.024929e+01	-1.524487e+02
2.890000e-06	-1.620079e-06	-2.767667e-09	-1.120097e+01	-1.840069e+02
2.900000e-06	-1.757314e-06	-3.242736e-09	-1.214980e+01	-2.149086e+02
2.910000e-06	-1.894084e-06	-3.701150e-09	-1.309541e+01	-2.448606e+02
2.920000e-06	-2.030326e-06	-4.140224e-09	-1.403736e+01	-2.736495e+02
2.930000e-06	-2.165969e-06	-4.559798e-09	-1.497517e+01	-3.011419e+02
2.940000e-06	-2.300977e-06	-4.959611e-09	-1.590860e+01	-3.272654e+02
2.950000e-06	-2.435317e-06	-5.338862e-09	-1.683741e+01	-3.519824e+02
