# Temperatura_=_20.0
# Concentracion g/m^3_=_10000.0
# C_Vs_to_Am_M_A/Vsm_=_65563218390.804596
# pendiente_HvsI_1/m_=_3716.3
# ordenada_HvsI_A/m_=_1297.0
# frecuencia_Hz_=_269574.14286432916

Tiempo_(s)	Campo_(V.s)	Magnetizacion_(V.s)	Campo_(kA/m)	Magnetizacion_(A/m)
0.000000e+00	-8.203661e-06	-1.143995e-08	-5.700492e+01	-7.487949e+02
1.000000e-08	-8.200705e-06	-1.144345e-08	-5.698437e+01	-7.488250e+02
2.000000e-08	-8.195459e-06	-1.144250e-08	-5.694792e+01	-7.488261e+02
3.000000e-08	-8.188176e-06	-1.143934e-08	-5.689731e+01	-7.486847e+02
4.000000e-08	-8.178632e-06	-1.143553e-08	-5.683099e+01	-7.483325e+02
5.000000e-08	-8.166674e-06	-1.142779e-08	-5.674790e+01	-7.477900e+02
6.000000e-08	-8.152273e-06	-1.141667e-08	-5.664783e+01	-7.471568e+02
7.000000e-08	-8.135391e-06	-1.140128e-08	-5.653052e+01	-7.465537e+02
8.000000e-08	-8.116226e-06	-1.140860e-08	-5.639735e+01	-7.460490e+02
9.000000e-08	-8.094613e-06	-1.143783e-08	-5.624717e+01	-7.456127e+02
1.000000e-07	-8.070356e-06	-1.141030e-08	-5.607862e+01	-7.451273e+02
1.100000e-07	-8.043503e-06	-1.137372e-08	-5.589202e+01	-7.444506e+02
1.200000e-07	-8.014466e-06	-1.137530e-08	-5.569025e+01	-7.434947e+02
1.300000e-07	-7.983735e-06	-1.132677e-08	-5.547671e+01	-7.422770e+02
1.400000e-07	-7.951314e-06	-1.130615e-08	-5.525143e+01	-7.409130e+02
1.500000e-07	-7.916811e-06	-1.136417e-08	-5.501167e+01	-7.395565e+02
1.600000e-07	-7.880311e-06	-1.127893e-08	-5.475805e+01	-7.383218e+02
1.700000e-07	-7.841837e-06	-1.126715e-08	-5.449070e+01	-7.372310e+02
1.800000e-07	-7.801001e-06	-1.131007e-08	-5.420694e+01	-7.362133e+02
1.900000e-07	-7.757978e-06	-1.121987e-08	-5.390799e+01	-7.351526e+02
2.000000e-07	-7.712883e-06	-1.122880e-08	-5.359464e+01	-7.339512e+02
2.100000e-07	-7.665582e-06	-1.120119e-08	-5.326595e+01	-7.325732e+02
2.200000e-07	-7.615834e-06	-1.115324e-08	-5.292027e+01	-7.310449e+02
2.300000e-07	-7.563376e-06	-1.115185e-08	-5.255576e+01	-7.294194e+02
2.400000e-07	-7.508530e-06	-1.111701e-08	-5.217464e+01	-7.277317e+02
2.500000e-07	-7.451545e-06	-1.109233e-08	-5.177868e+01	-7.259758e+02
2.600000e-07	-7.392348e-06	-1.105293e-08	-5.136733e+01	-7.241149e+02
2.700000e-07	-7.331043e-06	-1.102947e-08	-5.094134e+01	-7.221148e+02
2.800000e-07	-7.267680e-06	-1.100118e-08	-5.050105e+01	-7.199739e+02
2.900000e-07	-7.202154e-06	-1.095547e-08	-5.004572e+01	-7.177272e+02
3.000000e-07	-7.134420e-06	-1.092824e-08	-4.957506e+01	-7.154207e+02
3.100000e-07	-7.064518e-06	-1.087150e-08	-4.908934e+01	-7.130745e+02
3.200000e-07	-6.992450e-06	-1.084862e-08	-4.858855e+01	-7.106606e+02
3.300000e-07	-6.918265e-06	-1.080867e-08	-4.807306e+01	-7.081143e+02
3.400000e-07	-6.841897e-06	-1.075362e-08	-4.754240e+01	-7.053723e+02
3.500000e-07	-6.763219e-06	-1.072122e-08	-4.699569e+01	-7.024152e+02
3.600000e-07	-6.682294e-06	-1.066753e-08	-4.643336e+01	-6.992842e+02
3.700000e-07	-6.599397e-06	-1.062803e-08	-4.585734e+01	-6.960599e+02
3.800000e-07	-6.514747e-06	-1.057116e-08	-4.526913e+01	-6.928122e+02
3.900000e-07	-6.428360e-06	-1.051555e-08	-4.466885e+01	-6.895535e+02
4.000000e-07	-6.340277e-06	-1.045966e-08	-4.405678e+01	-6.862233e+02
4.100000e-07	-6.250414e-06	-1.040911e-08	-4.343236e+01	-6.827181e+02
4.200000e-07	-6.158726e-06	-1.036069e-08	-4.279524e+01	-6.789481e+02
4.300000e-07	-6.065304e-06	-1.029129e-08	-4.214608e+01	-6.748910e+02
4.400000e-07	-5.970192e-06	-1.022604e-08	-4.148517e+01	-6.706061e+02
4.500000e-07	-5.873366e-06	-1.015571e-08	-4.081235e+01	-6.662030e+02
4.600000e-07	-5.774797e-06	-1.009224e-08	-4.012743e+01	-6.617787e+02
4.700000e-07	-5.674635e-06	-1.002318e-08	-3.943143e+01	-6.573606e+02
4.800000e-07	-5.572984e-06	-9.951188e-09	-3.872508e+01	-6.528884e+02
4.900000e-07	-5.469845e-06	-9.878990e-09	-3.800840e+01	-6.482437e+02
5.000000e-07	-5.365205e-06	-9.803237e-09	-3.728129e+01	-6.433117e+02
5.100000e-07	-5.259010e-06	-9.720444e-09	-3.654337e+01	-6.380393e+02
5.200000e-07	-5.151322e-06	-9.625496e-09	-3.579508e+01	-6.324570e+02
5.300000e-07	-5.042298e-06	-9.536777e-09	-3.503750e+01	-6.266561e+02
5.400000e-07	-4.931947e-06	-9.451283e-09	-3.427070e+01	-6.207340e+02
5.500000e-07	-4.820255e-06	-9.364809e-09	-3.349459e+01	-6.147406e+02
5.600000e-07	-4.707196e-06	-9.267218e-09	-3.270897e+01	-6.086542e+02
5.700000e-07	-4.592678e-06	-9.165742e-09	-3.191322e+01	-6.023967e+02
5.800000e-07	-4.476714e-06	-9.065213e-09	-3.110741e+01	-5.958762e+02
5.900000e-07	-4.359361e-06	-8.962578e-09	-3.029196e+01	-5.890316e+02
6.000000e-07	-4.240728e-06	-8.851641e-09	-2.946762e+01	-5.818545e+02
6.100000e-07	-4.120902e-06	-8.732797e-09	-2.863498e+01	-5.743818e+02
6.200000e-07	-3.999854e-06	-8.617438e-09	-2.779385e+01	-5.666655e+02
6.300000e-07	-3.877517e-06	-8.500778e-09	-2.694376e+01	-5.587407e+02
6.400000e-07	-3.753934e-06	-8.375459e-09	-2.608502e+01	-5.506081e+02
6.500000e-07	-3.629185e-06	-8.238733e-09	-2.521818e+01	-5.422364e+02
6.600000e-07	-3.503370e-06	-8.101320e-09	-2.434392e+01	-5.335785e+02
6.700000e-07	-3.376602e-06	-7.967744e-09	-2.346305e+01	-5.245901e+02
6.800000e-07	-3.248935e-06	-7.831037e-09	-2.257593e+01	-5.152407e+02
6.900000e-07	-3.120271e-06	-7.682826e-09	-2.168188e+01	-5.055152e+02
7.000000e-07	-2.990538e-06	-7.525405e-09	-2.078040e+01	-4.954109e+02
7.100000e-07	-2.859869e-06	-7.363583e-09	-1.987242e+01	-4.849337e+02
7.200000e-07	-2.728290e-06	-7.197172e-09	-1.895811e+01	-4.740961e+02
7.300000e-07	-2.595862e-06	-7.024841e-09	-1.803791e+01	-4.629140e+02
7.400000e-07	-2.462757e-06	-6.847628e-09	-1.711300e+01	-4.513986e+02
7.500000e-07	-2.328980e-06	-6.669401e-09	-1.618342e+01	-4.395457e+02
7.600000e-07	-2.194560e-06	-6.485518e-09	-1.524938e+01	-4.273263e+02
7.700000e-07	-2.059595e-06	-6.291675e-09	-1.431154e+01	-4.146883e+02
7.800000e-07	-1.924111e-06	-6.086758e-09	-1.337010e+01	-4.015706e+02
7.900000e-07	-1.788061e-06	-5.876107e-09	-1.242473e+01	-3.879258e+02
8.000000e-07	-1.651468e-06	-5.660641e-09	-1.147558e+01	-3.737389e+02
8.100000e-07	-1.514478e-06	-5.438216e-09	-1.052368e+01	-3.590302e+02
8.200000e-07	-1.377095e-06	-5.209233e-09	-9.569043e+00	-3.438385e+02
8.300000e-07	-1.239346e-06	-4.970936e-09	-8.611865e+00	-3.281906e+02
8.400000e-07	-1.101299e-06	-4.723928e-09	-7.652616e+00	-3.120745e+02
8.500000e-07	-9.629704e-07	-4.468609e-09	-6.691408e+00	-2.954288e+02
8.600000e-07	-8.244228e-07	-4.202889e-09	-5.728680e+00	-2.781556e+02
8.700000e-07	-6.856862e-07	-3.925561e-09	-4.764639e+00	-2.601506e+02
8.800000e-07	-5.468052e-07	-3.639340e-09	-3.799594e+00	-2.413326e+02
8.900000e-07	-4.077687e-07	-3.344850e-09	-2.833469e+00	-2.216600e+02
9.000000e-07	-2.686230e-07	-3.034545e-09	-1.866585e+00	-2.011256e+02
9.100000e-07	-1.294123e-07	-2.706518e-09	-8.992496e-01	-1.797371e+02
9.200000e-07	9.822698e-09	-2.364030e-09	6.825514e-02	-1.574943e+02
9.300000e-07	1.490217e-07	-2.008715e-09	1.035509e+00	-1.343766e+02
9.400000e-07	2.881798e-07	-1.639800e-09	2.002480e+00	-1.103435e+02
9.500000e-07	4.272068e-07	-1.257281e-09	2.968539e+00	-8.534657e+01
9.600000e-07	5.661217e-07	-8.624903e-10	3.933819e+00	-5.934330e+01
9.700000e-07	7.049588e-07	-4.537511e-10	4.898559e+00	-3.230957e+01
9.800000e-07	8.436598e-07	-2.853276e-11	5.862352e+00	-4.250591e+00
9.900000e-07	9.821491e-07	4.156259e-10	6.824675e+00	2.478520e+01
1.000000e-06	1.120377e-06	8.744210e-10	7.785179e+00	5.468789e+01
1.010000e-06	1.258299e-06	1.341980e-09	8.743563e+00	8.526895e+01
1.020000e-06	1.395873e-06	1.813280e-09	9.699524e+00	1.162567e+02
1.030000e-06	1.533067e-06	2.283531e-09	1.065285e+01	1.473144e+02
1.040000e-06	1.669867e-06	2.751390e-09	1.160343e+01	1.780823e+02
1.050000e-06	1.806236e-06	3.211221e-09	1.255102e+01	2.082302e+02
1.060000e-06	1.942054e-06	3.656014e-09	1.349478e+01	2.375014e+02
1.070000e-06	2.077283e-06	4.084931e-09	1.443445e+01	2.657272e+02
1.080000e-06	2.211892e-06	4.497084e-09	1.536981e+01	2.928092e+02
1.090000e-06	2.345872e-06	4.890673e-09	1.630080e+01	3.186809e+02
1.100000e-06	2.479263e-06	5.261570e-09	1.722770e+01	3.432736e+02
1.110000e-06	2.612046e-06	5.609928e-09	1.815037e+01	3.665072e+02
1.120000e-06	2.744093e-06	5.940025e-09	1.906792e+01	3.883122e+02
1.130000e-06	2.875229e-06	6.249158e-09	1.997915e+01	4.086675e+02
1.140000e-06	3.005396e-06	6.536745e-09	2.088364e+01	4.276293e+02
1.150000e-06	3.134613e-06	6.805016e-09	2.178154e+01	4.453295e+02
1.160000e-06	3.262872e-06	7.056479e-09	2.267277e+01	4.619379e+02
1.170000e-06	3.390140e-06	7.294004e-09	2.355712e+01	4.776085e+02
1.180000e-06	3.516414e-06	7.517716e-09	2.443457e+01	4.924344e+02
1.190000e-06	3.641750e-06	7.727311e-09	2.530549e+01	5.064383e+02
1.200000e-06	3.766147e-06	7.923478e-09	2.616989e+01	5.195998e+02
1.210000e-06	3.889397e-06	8.106763e-09	2.702632e+01	5.319034e+02
1.220000e-06	4.011362e-06	8.277790e-09	2.787382e+01	5.433787e+02
1.230000e-06	4.132099e-06	8.440476e-09	2.871279e+01	5.541113e+02
1.240000e-06	4.251648e-06	8.597697e-09	2.954350e+01	5.642193e+02
1.250000e-06	4.370010e-06	8.748981e-09	3.036596e+01	5.738128e+02
1.260000e-06	4.487131e-06	8.891258e-09	3.117980e+01	5.829607e+02
1.270000e-06	4.602799e-06	9.022480e-09	3.198354e+01	5.916822e+02
1.280000e-06	4.716959e-06	9.144561e-09	3.277681e+01	5.999657e+02
1.290000e-06	4.829684e-06	9.260852e-09	3.356010e+01	6.077972e+02
1.300000e-06	4.940979e-06	9.371723e-09	3.433346e+01	6.151818e+02
1.310000e-06	5.050941e-06	9.476235e-09	3.509756e+01	6.221448e+02
1.320000e-06	5.159690e-06	9.575101e-09	3.585322e+01	6.287178e+02
1.330000e-06	5.267117e-06	9.670325e-09	3.659970e+01	6.349245e+02
1.340000e-06	5.373014e-06	9.762663e-09	3.733555e+01	6.407804e+02
1.350000e-06	5.477297e-06	9.848364e-09	3.806018e+01	6.463078e+02
1.360000e-06	5.579970e-06	9.926836e-09	3.877363e+01	6.515532e+02
1.370000e-06	5.681191e-06	1.000013e-08	3.947698e+01	6.565905e+02
1.380000e-06	5.780848e-06	1.007168e-08	4.016948e+01	6.614998e+02
1.390000e-06	5.878765e-06	1.014314e-08	4.084987e+01	6.663310e+02
1.400000e-06	5.974947e-06	1.021313e-08	4.151821e+01	6.710740e+02
1.410000e-06	6.069471e-06	1.028177e-08	4.217503e+01	6.756585e+02
1.420000e-06	6.162467e-06	1.034897e-08	4.282124e+01	6.799898e+02
1.430000e-06	6.253782e-06	1.041137e-08	4.345576e+01	6.840053e+02
1.440000e-06	6.343183e-06	1.046656e-08	4.407698e+01	6.877195e+02
1.450000e-06	6.430670e-06	1.051770e-08	4.468490e+01	6.912275e+02
1.460000e-06	6.516414e-06	1.056780e-08	4.528071e+01	6.946614e+02
1.470000e-06	6.600488e-06	1.061890e-08	4.586492e+01	6.981202e+02
1.480000e-06	6.682669e-06	1.067232e-08	4.643597e+01	7.016120e+02
1.490000e-06	6.762829e-06	1.072447e-08	4.699298e+01	7.050452e+02
1.500000e-06	6.840981e-06	1.077387e-08	4.753604e+01	7.082749e+02
1.510000e-06	6.917065e-06	1.081647e-08	4.806473e+01	7.111828e+02
1.520000e-06	6.990953e-06	1.085153e-08	4.857815e+01	7.137445e+02
1.530000e-06	7.062647e-06	1.088506e-08	4.907633e+01	7.160477e+02
1.540000e-06	7.132288e-06	1.091757e-08	4.956025e+01	7.182476e+02
1.550000e-06	7.199895e-06	1.095226e-08	5.003003e+01	7.204864e+02
1.560000e-06	7.265404e-06	1.098893e-08	5.048523e+01	7.228193e+02
1.570000e-06	7.328847e-06	1.102514e-08	5.092608e+01	7.251902e+02
1.580000e-06	7.390349e-06	1.105981e-08	5.135344e+01	7.274674e+02
1.590000e-06	7.449791e-06	1.108881e-08	5.176649e+01	7.295180e+02
1.600000e-06	7.507025e-06	1.111248e-08	5.216419e+01	7.312782e+02
1.610000e-06	7.562158e-06	1.113220e-08	5.254729e+01	7.327821e+02
1.620000e-06	7.615015e-06	1.115180e-08	5.291458e+01	7.341350e+02
1.630000e-06	7.665325e-06	1.117416e-08	5.326417e+01	7.354522e+02
1.640000e-06	7.713233e-06	1.119683e-08	5.359707e+01	7.368005e+02
1.650000e-06	7.759058e-06	1.121931e-08	5.391549e+01	7.381743e+02
1.660000e-06	7.802921e-06	1.124150e-08	5.422028e+01	7.395143e+02
1.670000e-06	7.844567e-06	1.126135e-08	5.450967e+01	7.407529e+02
1.680000e-06	7.883891e-06	1.127764e-08	5.478293e+01	7.418544e+02
1.690000e-06	7.921121e-06	1.129162e-08	5.504162e+01	7.428264e+02
1.700000e-06	7.956265e-06	1.130360e-08	5.528583e+01	7.437021e+02
1.710000e-06	7.989146e-06	1.131514e-08	5.551431e+01	7.445086e+02
1.720000e-06	8.019763e-06	1.132728e-08	5.572706e+01	7.452493e+02
1.730000e-06	8.048320e-06	1.133873e-08	5.592549e+01	7.459087e+02
1.740000e-06	8.074724e-06	1.134987e-08	5.610897e+01	7.464767e+02
1.750000e-06	8.098666e-06	1.136083e-08	5.627533e+01	7.469699e+02
1.760000e-06	8.120339e-06	1.137057e-08	5.642593e+01	7.474304e+02
1.770000e-06	8.139917e-06	1.137994e-08	5.656198e+01	7.479006e+02
1.780000e-06	8.157110e-06	1.138922e-08	5.668144e+01	7.483895e+02
1.790000e-06	8.171857e-06	1.139679e-08	5.678391e+01	7.488557e+02
1.800000e-06	8.184175e-06	1.140091e-08	5.686951e+01	7.492231e+02
1.810000e-06	8.193871e-06	1.140196e-08	5.693689e+01	7.494243e+02
1.820000e-06	8.201064e-06	1.140238e-08	5.698687e+01	7.494447e+02
1.830000e-06	8.206048e-06	1.140241e-08	5.702150e+01	7.493397e+02
1.840000e-06	8.208709e-06	1.140312e-08	5.703999e+01	7.492079e+02
1.850000e-06	8.208926e-06	1.140415e-08	5.704150e+01	7.491362e+02
1.860000e-06	8.206939e-06	1.140390e-08	5.702769e+01	7.491455e+02
1.870000e-06	8.202859e-06	1.140400e-08	5.699934e+01	7.491742e+02
1.880000e-06	8.196521e-06	1.140433e-08	5.695530e+01	7.491108e+02
1.890000e-06	8.187898e-06	1.140041e-08	5.689538e+01	7.488585e+02
1.900000e-06	8.177080e-06	1.139188e-08	5.682021e+01	7.483947e+02
1.910000e-06	8.163853e-06	1.138689e-08	5.672830e+01	7.477876e+02
1.920000e-06	8.148236e-06	1.138902e-08	5.661978e+01	7.471574e+02
1.930000e-06	8.130482e-06	1.135555e-08	5.649642e+01	7.466049e+02
1.940000e-06	8.110082e-06	1.131414e-08	5.635466e+01	7.461476e+02
1.950000e-06	8.086394e-06	1.132817e-08	5.619006e+01	7.457027e+02
1.960000e-06	8.059918e-06	1.132376e-08	5.600609e+01	7.451296e+02
1.970000e-06	8.031475e-06	1.132566e-08	5.580844e+01	7.443064e+02
1.980000e-06	8.001391e-06	1.136180e-08	5.559939e+01	7.431994e+02
1.990000e-06	7.969721e-06	1.125624e-08	5.537933e+01	7.418838e+02
2.000000e-06	7.936018e-06	1.124712e-08	5.514514e+01	7.405056e+02
2.010000e-06	7.900420e-06	1.128276e-08	5.489778e+01	7.392061e+02
2.020000e-06	7.862915e-06	1.117779e-08	5.463717e+01	7.380531e+02
2.030000e-06	7.822802e-06	1.123314e-08	5.435843e+01	7.370151e+02
2.040000e-06	7.780483e-06	1.119259e-08	5.406437e+01	7.359887e+02
2.050000e-06	7.736206e-06	1.112996e-08	5.375670e+01	7.348605e+02
2.060000e-06	7.689731e-06	1.120651e-08	5.343376e+01	7.335634e+02
2.070000e-06	7.641191e-06	1.113272e-08	5.309647e+01	7.320979e+02
2.080000e-06	7.590260e-06	1.112935e-08	5.274256e+01	7.305106e+02
2.090000e-06	7.536783e-06	1.109738e-08	5.237096e+01	7.288495e+02
2.100000e-06	7.481024e-06	1.104685e-08	5.198352e+01	7.271282e+02
2.110000e-06	7.423102e-06	1.108883e-08	5.158103e+01	7.253207e+02
2.120000e-06	7.363107e-06	1.099681e-08	5.116414e+01	7.233870e+02
2.130000e-06	7.300808e-06	1.098724e-08	5.073125e+01	7.213082e+02
2.140000e-06	7.236364e-06	1.094416e-08	5.028344e+01	7.191041e+02
2.150000e-06	7.169917e-06	1.091379e-08	4.982172e+01	7.168202e+02
2.160000e-06	7.101239e-06	1.091255e-08	4.934450e+01	7.144925e+02
2.170000e-06	7.030255e-06	1.082795e-08	4.885125e+01	7.121161e+02
2.180000e-06	6.956951e-06	1.084167e-08	4.834188e+01	7.096396e+02
2.190000e-06	6.881615e-06	1.077114e-08	4.781839e+01	7.069931e+02
2.200000e-06	6.804099e-06	1.073804e-08	4.727975e+01	7.041331e+02
2.210000e-06	6.724382e-06	1.068961e-08	4.672582e+01	7.010732e+02
2.220000e-06	6.642756e-06	1.061470e-08	4.615863e+01	6.978810e+02
2.230000e-06	6.559258e-06	1.059678e-08	4.557842e+01	6.946382e+02
2.240000e-06	6.473805e-06	1.052978e-08	4.498463e+01	6.913878e+02
2.250000e-06	6.386314e-06	1.051091e-08	4.437668e+01	6.881018e+02
2.260000e-06	6.297090e-06	1.043595e-08	4.375669e+01	6.846902e+02
2.270000e-06	6.206215e-06	1.038929e-08	4.312523e+01	6.810493e+02
2.280000e-06	6.113587e-06	1.033155e-08	4.248158e+01	6.771211e+02
2.290000e-06	6.019111e-06	1.025720e-08	4.182509e+01	6.729288e+02
2.300000e-06	5.922869e-06	1.019718e-08	4.115634e+01	6.685655e+02
2.310000e-06	5.825097e-06	1.011867e-08	4.047694e+01	6.641423e+02
2.320000e-06	5.725867e-06	1.007586e-08	3.978742e+01	6.597237e+02
2.330000e-06	5.625100e-06	9.999610e-09	3.908722e+01	6.552887e+02
2.340000e-06	5.522577e-06	9.931105e-09	3.837482e+01	6.507391e+02
2.350000e-06	5.418442e-06	9.849857e-09	3.765122e+01	6.459501e+02
2.360000e-06	5.312892e-06	9.785621e-09	3.691778e+01	6.408349e+02
2.370000e-06	5.206038e-06	9.716261e-09	3.617528e+01	6.353859e+02
2.380000e-06	5.097897e-06	9.629010e-09	3.542384e+01	6.296721e+02
2.390000e-06	4.988394e-06	9.536282e-09	3.466294e+01	6.237954e+02
2.400000e-06	4.877363e-06	9.438486e-09	3.389141e+01	6.178330e+02
2.410000e-06	4.764828e-06	9.354587e-09	3.310944e+01	6.117963e+02
2.420000e-06	4.650972e-06	9.258460e-09	3.231829e+01	6.056289e+02
2.430000e-06	4.535682e-06	9.161199e-09	3.151717e+01	5.992393e+02
2.440000e-06	4.418926e-06	9.059626e-09	3.070586e+01	5.925476e+02
2.450000e-06	4.300692e-06	8.963140e-09	2.988429e+01	5.855205e+02
2.460000e-06	4.181060e-06	8.854033e-09	2.905300e+01	5.781770e+02
2.470000e-06	4.060195e-06	8.735135e-09	2.821314e+01	5.705663e+02
2.480000e-06	3.938212e-06	8.611421e-09	2.736552e+01	5.627347e+02
2.490000e-06	3.815118e-06	8.492332e-09	2.651017e+01	5.546995e+02
2.500000e-06	3.690869e-06	8.372845e-09	2.564680e+01	5.464427e+02
2.510000e-06	3.565492e-06	8.245125e-09	2.477559e+01	5.379220e+02
2.520000e-06	3.438978e-06	8.108529e-09	2.389648e+01	5.290898e+02
2.530000e-06	3.311360e-06	7.968246e-09	2.300970e+01	5.199086e+02
2.540000e-06	3.182766e-06	7.827051e-09	2.211614e+01	5.103565e+02
2.550000e-06	3.053249e-06	7.674943e-09	2.121616e+01	5.004256e+02
2.560000e-06	2.922822e-06	7.517095e-09	2.030986e+01	4.901181e+02
2.570000e-06	2.791614e-06	7.354610e-09	1.939814e+01	4.794437e+02
2.580000e-06	2.659662e-06	7.192354e-09	1.848124e+01	4.684176e+02
2.590000e-06	2.526873e-06	7.020719e-09	1.755852e+01	4.570543e+02
2.600000e-06	2.393320e-06	6.838290e-09	1.663050e+01	4.453581e+02
2.610000e-06	2.259093e-06	6.649879e-09	1.569779e+01	4.333119e+02
2.620000e-06	2.124225e-06	6.461944e-09	1.476064e+01	4.208732e+02
2.630000e-06	1.988764e-06	6.270308e-09	1.381936e+01	4.079826e+02
2.640000e-06	1.852745e-06	6.068352e-09	1.287420e+01	3.945835e+02
2.650000e-06	1.716232e-06	5.854776e-09	1.192561e+01	3.806446e+02
2.660000e-06	1.579273e-06	5.632830e-09	1.097392e+01	3.661707e+02
2.670000e-06	1.441919e-06	5.406009e-09	1.001948e+01	3.511955e+02
2.680000e-06	1.304244e-06	5.169766e-09	9.062824e+00	3.357553e+02
2.690000e-06	1.166292e-06	4.924106e-09	8.104231e+00	3.198585e+02
2.700000e-06	1.028095e-06	4.672214e-09	7.143942e+00	3.034660e+02
2.710000e-06	8.896982e-07	4.415267e-09	6.182260e+00	2.864938e+02
2.720000e-06	7.510779e-07	4.148021e-09	5.219027e+00	2.688363e+02
2.730000e-06	6.122547e-07	3.864710e-09	4.254384e+00	2.503986e+02
2.740000e-06	4.733365e-07	3.566050e-09	3.289081e+00	2.311203e+02
2.750000e-06	3.343638e-07	3.257059e-09	2.323399e+00	2.109802e+02
2.760000e-06	1.952883e-07	2.940725e-09	1.357003e+00	1.899823e+02
2.770000e-06	5.617439e-08	2.612957e-09	3.903399e-01	1.681322e+02
2.780000e-06	-8.294064e-08	2.267351e-09	-5.763310e-01	1.454195e+02
2.790000e-06	-2.220228e-07	1.905266e-09	-1.542774e+00	1.218118e+02
2.800000e-06	-3.610386e-07	1.528768e-09	-2.508755e+00	9.726260e+01
2.810000e-06	-5.000382e-07	1.139121e-09	-3.474624e+00	7.172490e+01
2.820000e-06	-6.389098e-07	7.331246e-10	-4.439603e+00	4.516485e+01
2.830000e-06	-7.775786e-07	3.100195e-10	-5.403173e+00	1.757274e+01
2.840000e-06	-9.160774e-07	-1.257312e-10	-6.365562e+00	-1.102484e+01
2.850000e-06	-1.054371e-06	-5.742541e-10	-7.326524e+00	-4.054855e+01
2.860000e-06	-1.192382e-06	-1.036471e-09	-8.285521e+00	-7.084753e+01
2.870000e-06	-1.330089e-06	-1.509270e-09	-9.242413e+00	-1.016875e+02
2.880000e-06	-1.467499e-06	-1.985245e-09	-1.019723e+01	-1.327576e+02
2.890000e-06	-1.604526e-06	-2.456981e-09	-1.114940e+01	-1.637023e+02
2.900000e-06	-1.741119e-06	-2.922094e-09	-1.209854e+01	-1.941714e+02
2.910000e-06	-1.877322e-06	-3.378105e-09	-1.304498e+01	-2.238707e+02
2.920000e-06	-2.013028e-06	-3.819678e-09	-1.398796e+01	-2.525913e+02
2.930000e-06	-2.148058e-06	-4.242567e-09	-1.492625e+01	-2.802068e+02
2.940000e-06	-2.282430e-06	-4.645156e-09	-1.585996e+01	-3.066411e+02
2.950000e-06	-2.416165e-06	-5.031126e-09	-1.678924e+01	-3.318294e+02
