# Temperatura_=_20.0
# Concentracion g/m^3_=_10000.0
# C_Vs_to_Am_M_A/Vsm_=_65563218390.804596
# pendiente_HvsI_1/m_=_3716.3
# ordenada_HvsI_A/m_=_1297.0
# frecuencia_Hz_=_269601.7417432927

Tiempo_(s)	Campo_(V.s)	Magnetizacion_(V.s)	Campo_(kA/m)	Magnetizacion_(A/m)
0.000000e+00	-8.221498e-06	-7.733767e-10	-5.699829e+01	-5.014659e+01
1.000000e-08	-8.218892e-06	-7.778201e-10	-5.698022e+01	-5.019752e+01
2.000000e-08	-8.213978e-06	-7.803747e-10	-5.694615e+01	-5.021181e+01
3.000000e-08	-8.207017e-06	-7.812731e-10	-5.689790e+01	-5.015163e+01
4.000000e-08	-8.197911e-06	-7.815200e-10	-5.683477e+01	-5.003382e+01
5.000000e-08	-8.186378e-06	-7.799546e-10	-5.675481e+01	-4.992487e+01
6.000000e-08	-8.172308e-06	-7.792532e-10	-5.665726e+01	-4.989656e+01
7.000000e-08	-8.155842e-06	-7.718320e-10	-5.654311e+01	-4.996902e+01
8.000000e-08	-8.137109e-06	-7.924375e-10	-5.641323e+01	-5.008025e+01
9.000000e-08	-8.116027e-06	-8.335642e-10	-5.626708e+01	-5.010836e+01
1.000000e-07	-8.092331e-06	-8.035204e-10	-5.610280e+01	-4.994084e+01
1.100000e-07	-8.065853e-06	-7.729916e-10	-5.591923e+01	-4.955331e+01
1.200000e-07	-8.037041e-06	-7.948067e-10	-5.571948e+01	-4.904835e+01
1.300000e-07	-8.006536e-06	-7.526318e-10	-5.550799e+01	-4.862397e+01
1.400000e-07	-7.974425e-06	-7.485629e-10	-5.528538e+01	-4.848035e+01
1.500000e-07	-7.940210e-06	-8.358512e-10	-5.504817e+01	-4.871203e+01
1.600000e-07	-7.903901e-06	-7.333986e-10	-5.479644e+01	-4.924572e+01
1.700000e-07	-7.865686e-06	-7.566499e-10	-5.453150e+01	-4.986263e+01
1.800000e-07	-7.825169e-06	-8.387315e-10	-5.425060e+01	-5.029863e+01
1.900000e-07	-7.782367e-06	-7.372718e-10	-5.395387e+01	-5.037118e+01
2.000000e-07	-7.737465e-06	-7.779317e-10	-5.364257e+01	-5.006549e+01
2.100000e-07	-7.690464e-06	-7.490394e-10	-5.331672e+01	-4.953298e+01
2.200000e-07	-7.641139e-06	-7.132133e-10	-5.297476e+01	-4.900352e+01
2.300000e-07	-7.589165e-06	-7.630650e-10	-5.261443e+01	-4.866016e+01
2.400000e-07	-7.534659e-06	-7.573872e-10	-5.223655e+01	-4.854561e+01
2.500000e-07	-7.478061e-06	-7.668030e-10	-5.184417e+01	-4.855041e+01
2.600000e-07	-7.419284e-06	-7.494323e-10	-5.143668e+01	-4.848618e+01
2.700000e-07	-7.358223e-06	-7.379730e-10	-5.101335e+01	-4.819924e+01
2.800000e-07	-7.295118e-06	-7.223429e-10	-5.057585e+01	-4.765874e+01
2.900000e-07	-7.229937e-06	-6.988010e-10	-5.012396e+01	-4.697045e+01
3.000000e-07	-7.162469e-06	-7.051422e-10	-4.965621e+01	-4.631148e+01
3.100000e-07	-7.092760e-06	-6.855043e-10	-4.917293e+01	-4.582681e+01
3.200000e-07	-7.020997e-06	-7.224851e-10	-4.867541e+01	-4.554876e+01
3.300000e-07	-6.947160e-06	-7.195889e-10	-4.816351e+01	-4.538458e+01
3.400000e-07	-6.871055e-06	-6.857640e-10	-4.763589e+01	-4.517615e+01
3.500000e-07	-6.792628e-06	-6.817546e-10	-4.709217e+01	-4.479374e+01
3.600000e-07	-6.712002e-06	-6.524957e-10	-4.653320e+01	-4.420794e+01
3.700000e-07	-6.629362e-06	-6.589366e-10	-4.596028e+01	-4.349926e+01
3.800000e-07	-6.544938e-06	-6.560641e-10	-4.537498e+01	-4.280339e+01
3.900000e-07	-6.458752e-06	-6.526330e-10	-4.477746e+01	-4.222752e+01
4.000000e-07	-6.370759e-06	-6.438402e-10	-4.416742e+01	-4.178871e+01
4.100000e-07	-6.280938e-06	-6.379916e-10	-4.354471e+01	-4.140908e+01
4.200000e-07	-6.189282e-06	-6.305120e-10	-4.290927e+01	-4.096799e+01
4.300000e-07	-6.095868e-06	-6.002224e-10	-4.226165e+01	-4.037728e+01
4.400000e-07	-6.000740e-06	-5.913916e-10	-4.160214e+01	-3.963403e+01
4.500000e-07	-5.903898e-06	-5.860306e-10	-4.093075e+01	-3.882074e+01
4.600000e-07	-5.805450e-06	-5.894776e-10	-4.024823e+01	-3.805517e+01
4.700000e-07	-5.705428e-06	-5.771058e-10	-3.955479e+01	-3.742138e+01
4.800000e-07	-5.603848e-06	-5.583042e-10	-3.885056e+01	-3.692278e+01
4.900000e-07	-5.500686e-06	-5.467390e-10	-3.813535e+01	-3.648298e+01
5.000000e-07	-5.395940e-06	-5.390774e-10	-3.740916e+01	-3.599133e+01
5.100000e-07	-5.289731e-06	-5.332231e-10	-3.667284e+01	-3.536460e+01
5.200000e-07	-5.182100e-06	-5.197449e-10	-3.592664e+01	-3.458945e+01
5.300000e-07	-5.073101e-06	-5.118269e-10	-3.517098e+01	-3.372377e+01
5.400000e-07	-4.962708e-06	-5.005411e-10	-3.440563e+01	-3.285991e+01
5.500000e-07	-4.850897e-06	-4.874236e-10	-3.363047e+01	-3.207361e+01
5.600000e-07	-4.737729e-06	-4.664731e-10	-3.284590e+01	-3.138754e+01
5.700000e-07	-4.623191e-06	-4.503298e-10	-3.205182e+01	-3.076699e+01
5.800000e-07	-4.507224e-06	-4.457074e-10	-3.124784e+01	-3.014539e+01
5.900000e-07	-4.389817e-06	-4.443225e-10	-3.043388e+01	-2.946159e+01
6.000000e-07	-4.270998e-06	-4.360572e-10	-2.961012e+01	-2.868765e+01
6.100000e-07	-4.150909e-06	-4.171358e-10	-2.877756e+01	-2.783495e+01
6.200000e-07	-4.029714e-06	-4.000141e-10	-2.793734e+01	-2.694044e+01
6.300000e-07	-3.907282e-06	-3.836911e-10	-2.708855e+01	-2.604516e+01
6.400000e-07	-3.783617e-06	-3.692565e-10	-2.623119e+01	-2.517764e+01
6.500000e-07	-3.658884e-06	-3.549725e-10	-2.536644e+01	-2.434839e+01
6.600000e-07	-3.533089e-06	-3.445403e-10	-2.449432e+01	-2.355319e+01
6.700000e-07	-3.406191e-06	-3.378075e-10	-2.361456e+01	-2.277875e+01
6.800000e-07	-3.278279e-06	-3.285239e-10	-2.272777e+01	-2.200643e+01
6.900000e-07	-3.149482e-06	-3.126174e-10	-2.183484e+01	-2.121446e+01
7.000000e-07	-3.019680e-06	-2.938159e-10	-2.093494e+01	-2.038222e+01
7.100000e-07	-2.888870e-06	-2.793715e-10	-2.002806e+01	-1.949839e+01
7.200000e-07	-2.757148e-06	-2.673168e-10	-1.911485e+01	-1.856986e+01
7.300000e-07	-2.624548e-06	-2.543808e-10	-1.819556e+01	-1.762449e+01
7.400000e-07	-2.491233e-06	-2.416567e-10	-1.727131e+01	-1.670250e+01
7.500000e-07	-2.357279e-06	-2.321971e-10	-1.634263e+01	-1.583764e+01
7.600000e-07	-2.222559e-06	-2.226056e-10	-1.540863e+01	-1.503752e+01
7.700000e-07	-2.087139e-06	-2.111009e-10	-1.446979e+01	-1.427513e+01
7.800000e-07	-1.951269e-06	-1.967338e-10	-1.352783e+01	-1.349926e+01
7.900000e-07	-1.815001e-06	-1.821029e-10	-1.258311e+01	-1.266020e+01
8.000000e-07	-1.678313e-06	-1.694617e-10	-1.163547e+01	-1.173763e+01
8.100000e-07	-1.541129e-06	-1.545661e-10	-1.068439e+01	-1.075410e+01
8.200000e-07	-1.403473e-06	-1.385087e-10	-9.730049e+00	-9.765304e+00
8.300000e-07	-1.265432e-06	-1.234709e-10	-8.773034e+00	-8.831007e+00
8.400000e-07	-1.127061e-06	-1.118808e-10	-7.813728e+00	-7.982660e+00
8.500000e-07	-9.884663e-07	-1.023512e-10	-6.852874e+00	-7.206020e+00
8.600000e-07	-8.496661e-07	-9.176281e-11	-5.890595e+00	-6.448945e+00
8.700000e-07	-7.106527e-07	-7.895262e-11	-4.926838e+00	-5.650024e+00
8.800000e-07	-5.714176e-07	-6.563089e-11	-3.961544e+00	-4.771651e+00
8.900000e-07	-4.320363e-07	-5.283070e-11	-2.995237e+00	-3.818902e+00
9.000000e-07	-2.926316e-07	-3.852847e-11	-2.028767e+00	-2.834214e+00
9.100000e-07	-1.532260e-07	-2.347401e-11	-1.062290e+00	-1.872162e+00
9.200000e-07	-1.377887e-08	-7.886866e-12	-9.552666e-02	-9.697783e-01
9.300000e-07	1.256822e-07	5.648510e-12	8.713338e-01	-1.293628e-01
9.400000e-07	2.651503e-07	1.652966e-11	1.838243e+00	6.778030e-01
9.500000e-07	4.046098e-07	2.606682e-11	2.805093e+00	1.491351e+00
9.600000e-07	5.439745e-07	3.593798e-11	3.771286e+00	2.338955e+00
9.700000e-07	6.831606e-07	4.646168e-11	4.736240e+00	3.224381e+00
9.800000e-07	8.222011e-07	5.901856e-11	5.700185e+00	4.131822e+00
9.900000e-07	9.610984e-07	7.647932e-11	6.663137e+00	5.041061e+00
1.000000e-06	1.099725e-06	9.555488e-11	7.624211e+00	5.941807e+00
1.010000e-06	1.238055e-06	1.128593e-10	8.583228e+00	6.837594e+00
1.020000e-06	1.376079e-06	1.273701e-10	9.540129e+00	7.737958e+00
1.030000e-06	1.513728e-06	1.375236e-10	1.049442e+01	8.646147e+00
1.040000e-06	1.650923e-06	1.458997e-10	1.144558e+01	9.552548e+00
1.050000e-06	1.787644e-06	1.562926e-10	1.239344e+01	1.043944e+01
1.060000e-06	1.923848e-06	1.696567e-10	1.333772e+01	1.129408e+01
1.070000e-06	2.059461e-06	1.852943e-10	1.427791e+01	1.212060e+01
1.080000e-06	2.194526e-06	2.014564e-10	1.521429e+01	1.294133e+01
1.090000e-06	2.329027e-06	2.163290e-10	1.614676e+01	1.378510e+01
1.100000e-06	2.462863e-06	2.289655e-10	1.707462e+01	1.466915e+01
1.110000e-06	2.596000e-06	2.395916e-10	1.799764e+01	1.558610e+01
1.120000e-06	2.728338e-06	2.502997e-10	1.891512e+01	1.650518e+01
1.130000e-06	2.859831e-06	2.604331e-10	1.982674e+01	1.738784e+01
1.140000e-06	2.990520e-06	2.704737e-10	2.073278e+01	1.820906e+01
1.150000e-06	3.120297e-06	2.814604e-10	2.163250e+01	1.897174e+01
1.160000e-06	3.249019e-06	2.932373e-10	2.252491e+01	1.970557e+01
1.170000e-06	3.376751e-06	3.059553e-10	2.341046e+01	2.045123e+01
1.180000e-06	3.503547e-06	3.206700e-10	2.428951e+01	2.123910e+01
1.190000e-06	3.629351e-06	3.364929e-10	2.516170e+01	2.207465e+01
1.200000e-06	3.754115e-06	3.500464e-10	2.602666e+01	2.293769e+01
1.210000e-06	3.877759e-06	3.620489e-10	2.688386e+01	2.379436e+01
1.220000e-06	4.000271e-06	3.735180e-10	2.773322e+01	2.461349e+01
1.230000e-06	4.121546e-06	3.833899e-10	2.857400e+01	2.537817e+01
1.240000e-06	4.241515e-06	3.931331e-10	2.940573e+01	2.608784e+01
1.250000e-06	4.360275e-06	4.043847e-10	3.022907e+01	2.675296e+01
1.260000e-06	4.477740e-06	4.149765e-10	3.104343e+01	2.738830e+01
1.270000e-06	4.593819e-06	4.239436e-10	3.184819e+01	2.800964e+01
1.280000e-06	4.708480e-06	4.326246e-10	3.264312e+01	2.863389e+01
1.290000e-06	4.821661e-06	4.426208e-10	3.342778e+01	2.927878e+01
1.300000e-06	4.933420e-06	4.531208e-10	3.420259e+01	2.995797e+01
1.310000e-06	5.043881e-06	4.623643e-10	3.496839e+01	3.067237e+01
1.320000e-06	5.153084e-06	4.713098e-10	3.572549e+01	3.140335e+01
1.330000e-06	5.260921e-06	4.826525e-10	3.647310e+01	3.211520e+01
1.340000e-06	5.367271e-06	4.942918e-10	3.721040e+01	3.276961e+01
1.350000e-06	5.472063e-06	5.026162e-10	3.793691e+01	3.334655e+01
1.360000e-06	5.575314e-06	5.077236e-10	3.865274e+01	3.385973e+01
1.370000e-06	5.677074e-06	5.123755e-10	3.935822e+01	3.435514e+01
1.380000e-06	5.777286e-06	5.199642e-10	4.005297e+01	3.489023e+01
1.390000e-06	5.875806e-06	5.300583e-10	4.073600e+01	3.550297e+01
1.400000e-06	5.972545e-06	5.402352e-10	4.140667e+01	3.618825e+01
1.410000e-06	6.067550e-06	5.505659e-10	4.206533e+01	3.689662e+01
1.420000e-06	6.160905e-06	5.603817e-10	4.271254e+01	3.755862e+01
1.430000e-06	6.252631e-06	5.680190e-10	4.334846e+01	3.812249e+01
1.440000e-06	6.342606e-06	5.724260e-10	4.397224e+01	3.858412e+01
1.450000e-06	6.430727e-06	5.749916e-10	4.458317e+01	3.899117e+01
1.460000e-06	6.517025e-06	5.790401e-10	4.518146e+01	3.941747e+01
1.470000e-06	6.601596e-06	5.856681e-10	4.576778e+01	3.992165e+01
1.480000e-06	6.684350e-06	5.936764e-10	4.634150e+01	4.051320e+01
1.490000e-06	6.765062e-06	6.017497e-10	4.690106e+01	4.114598e+01
1.500000e-06	6.843703e-06	6.099862e-10	4.744627e+01	4.174309e+01
1.510000e-06	6.920322e-06	6.177867e-10	4.797745e+01	4.223908e+01
1.520000e-06	6.994736e-06	6.239229e-10	4.849335e+01	4.261523e+01
1.530000e-06	7.066952e-06	6.281737e-10	4.899402e+01	4.290820e+01
1.540000e-06	7.137153e-06	6.324604e-10	4.948071e+01	4.318808e+01
1.550000e-06	7.205333e-06	6.377111e-10	4.995339e+01	4.351969e+01
1.560000e-06	7.271386e-06	6.422820e-10	5.041132e+01	4.392980e+01
1.570000e-06	7.335307e-06	6.458085e-10	5.085448e+01	4.439811e+01
1.580000e-06	7.397233e-06	6.514680e-10	5.128379e+01	4.487463e+01
1.590000e-06	7.457166e-06	6.604300e-10	5.169930e+01	4.531038e+01
1.600000e-06	7.514991e-06	6.691391e-10	5.210020e+01	4.568219e+01
1.610000e-06	7.570621e-06	6.755037e-10	5.248587e+01	4.599791e+01
1.620000e-06	7.623965e-06	6.795903e-10	5.285569e+01	4.628255e+01
1.630000e-06	7.674803e-06	6.833979e-10	5.320814e+01	4.655774e+01
1.640000e-06	7.723169e-06	6.867576e-10	5.354346e+01	4.682972e+01
1.650000e-06	7.769388e-06	6.882708e-10	5.386389e+01	4.709285e+01
1.660000e-06	7.813648e-06	6.902894e-10	5.417073e+01	4.734352e+01
1.670000e-06	7.855730e-06	6.953689e-10	5.446248e+01	4.759106e+01
1.680000e-06	7.895514e-06	7.034758e-10	5.473830e+01	4.785524e+01
1.690000e-06	7.933210e-06	7.119803e-10	5.499964e+01	4.815021e+01
1.700000e-06	7.968835e-06	7.179932e-10	5.524662e+01	4.846682e+01
1.710000e-06	8.002149e-06	7.212075e-10	5.547758e+01	4.876808e+01
1.720000e-06	8.033171e-06	7.235590e-10	5.569265e+01	4.900521e+01
1.730000e-06	8.062196e-06	7.246341e-10	5.589388e+01	4.914686e+01
1.740000e-06	8.089032e-06	7.237948e-10	5.607993e+01	4.920333e+01
1.750000e-06	8.113354e-06	7.240182e-10	5.624855e+01	4.922809e+01
1.760000e-06	8.135374e-06	7.280746e-10	5.640121e+01	4.929210e+01
1.770000e-06	8.155325e-06	7.352444e-10	5.653952e+01	4.944400e+01
1.780000e-06	8.173029e-06	7.412182e-10	5.666226e+01	4.968000e+01
1.790000e-06	8.188263e-06	7.439358e-10	5.676788e+01	4.994327e+01
1.800000e-06	8.201004e-06	7.457954e-10	5.685621e+01	5.015498e+01
1.810000e-06	8.211136e-06	7.472055e-10	5.692645e+01	5.025939e+01
1.820000e-06	8.218761e-06	7.471845e-10	5.697932e+01	5.025525e+01
1.830000e-06	8.224129e-06	7.455837e-10	5.701653e+01	5.019381e+01
1.840000e-06	8.227138e-06	7.450344e-10	5.703740e+01	5.014421e+01
1.850000e-06	8.227731e-06	7.479652e-10	5.704150e+01	5.014855e+01
1.860000e-06	8.226104e-06	7.468807e-10	5.703022e+01	5.019609e+01
1.870000e-06	8.222390e-06	7.433359e-10	5.700448e+01	5.023425e+01
1.880000e-06	8.216332e-06	7.427387e-10	5.696248e+01	5.020982e+01
1.890000e-06	8.207980e-06	7.437861e-10	5.690457e+01	5.011254e+01
1.900000e-06	8.197526e-06	7.451842e-10	5.683210e+01	4.998958e+01
1.910000e-06	8.184712e-06	7.472019e-10	5.674326e+01	4.991752e+01
1.920000e-06	8.169543e-06	7.581660e-10	5.663809e+01	4.994640e+01
1.930000e-06	8.152254e-06	7.196928e-10	5.651823e+01	5.005259e+01
1.940000e-06	8.132416e-06	6.834187e-10	5.638070e+01	5.013531e+01
1.950000e-06	8.109236e-06	7.190774e-10	5.622000e+01	5.006740e+01
1.960000e-06	8.083048e-06	7.175880e-10	5.603844e+01	4.977578e+01
1.970000e-06	8.054794e-06	7.199727e-10	5.584256e+01	4.930422e+01
1.980000e-06	8.024881e-06	7.734964e-10	5.563518e+01	4.881557e+01
1.990000e-06	7.993509e-06	6.523433e-10	5.541768e+01	4.852294e+01
2.000000e-06	7.960209e-06	6.761925e-10	5.518682e+01	4.858106e+01
2.010000e-06	7.924815e-06	7.698430e-10	5.494144e+01	4.899632e+01
2.020000e-06	7.887621e-06	6.873177e-10	5.468357e+01	4.960812e+01
2.030000e-06	7.847958e-06	8.119206e-10	5.440860e+01	5.015743e+01
2.040000e-06	7.805895e-06	7.666134e-10	5.411698e+01	5.040963e+01
2.050000e-06	7.761899e-06	7.111740e-10	5.381196e+01	5.026736e+01
2.060000e-06	7.715695e-06	8.424946e-10	5.349164e+01	4.981221e+01
2.070000e-06	7.667416e-06	7.383625e-10	5.315693e+01	4.925295e+01
2.080000e-06	7.616742e-06	7.722942e-10	5.280562e+01	4.880919e+01
2.090000e-06	7.563442e-06	7.640997e-10	5.243610e+01	4.859504e+01
2.100000e-06	7.507909e-06	6.987497e-10	5.205110e+01	4.856626e+01
2.110000e-06	7.450162e-06	7.782755e-10	5.165075e+01	4.855752e+01
2.120000e-06	7.390364e-06	6.992886e-10	5.123618e+01	4.838523e+01
2.130000e-06	7.328332e-06	7.532066e-10	5.080612e+01	4.795536e+01
2.140000e-06	7.264124e-06	7.371272e-10	5.036097e+01	4.731489e+01
2.150000e-06	7.197888e-06	7.306751e-10	4.990177e+01	4.662013e+01
2.160000e-06	7.129372e-06	7.574926e-10	4.942676e+01	4.604357e+01
2.170000e-06	7.058592e-06	6.537871e-10	4.893605e+01	4.567547e+01
2.180000e-06	6.985537e-06	7.094676e-10	4.842958e+01	4.547685e+01
2.190000e-06	6.910427e-06	6.732262e-10	4.790885e+01	4.530873e+01
2.200000e-06	6.833054e-06	7.042713e-10	4.737244e+01	4.501684e+01
2.210000e-06	6.753371e-06	7.130830e-10	4.682001e+01	4.452027e+01
2.220000e-06	6.671834e-06	6.648749e-10	4.625473e+01	4.385256e+01
2.230000e-06	6.588443e-06	6.871254e-10	4.567659e+01	4.313388e+01
2.240000e-06	6.503118e-06	6.377991e-10	4.508504e+01	4.249462e+01
2.250000e-06	6.415755e-06	6.511462e-10	4.447937e+01	4.199761e+01
2.260000e-06	6.326602e-06	6.148738e-10	4.386129e+01	4.160497e+01
2.270000e-06	6.235815e-06	6.416419e-10	4.323188e+01	4.120667e+01
2.280000e-06	6.143293e-06	6.517015e-10	4.259044e+01	4.069074e+01
2.290000e-06	6.048976e-06	6.296217e-10	4.193656e+01	4.001164e+01
2.300000e-06	5.952831e-06	6.127183e-10	4.126999e+01	3.921639e+01
2.310000e-06	5.855146e-06	5.706840e-10	4.059277e+01	3.841497e+01
2.320000e-06	5.755939e-06	5.903549e-10	3.990498e+01	3.771492e+01
2.330000e-06	5.655136e-06	5.766364e-10	3.920613e+01	3.715968e+01
2.340000e-06	5.552613e-06	5.832336e-10	3.849535e+01	3.670604e+01
2.350000e-06	5.448404e-06	5.694493e-10	3.777289e+01	3.625153e+01
2.360000e-06	5.342838e-06	5.680951e-10	3.704102e+01	3.569315e+01
2.370000e-06	5.235994e-06	5.552187e-10	3.630028e+01	3.498265e+01
2.380000e-06	5.127849e-06	5.314783e-10	3.555053e+01	3.414793e+01
2.390000e-06	5.018325e-06	5.205677e-10	3.479122e+01	3.327170e+01
2.400000e-06	4.907286e-06	5.095205e-10	3.402140e+01	3.244336e+01
2.410000e-06	4.794681e-06	5.168268e-10	3.324074e+01	3.171252e+01
2.420000e-06	4.680686e-06	5.058148e-10	3.245042e+01	3.106914e+01
2.430000e-06	4.565300e-06	4.909780e-10	3.165047e+01	3.045680e+01
2.440000e-06	4.448494e-06	4.689283e-10	3.084068e+01	2.980741e+01
2.450000e-06	4.330230e-06	4.627425e-10	3.002077e+01	2.907563e+01
2.460000e-06	4.210536e-06	4.553205e-10	2.919095e+01	2.825552e+01
2.470000e-06	4.089653e-06	4.471901e-10	2.835289e+01	2.737485e+01
2.480000e-06	3.967651e-06	4.350852e-10	2.750707e+01	2.647538e+01
2.490000e-06	3.844443e-06	4.244571e-10	2.665289e+01	2.559277e+01
2.500000e-06	3.720052e-06	4.152905e-10	2.579051e+01	2.474576e+01
2.510000e-06	3.594600e-06	3.985353e-10	2.492077e+01	2.393620e+01
2.520000e-06	3.468065e-06	3.800813e-10	2.404352e+01	2.315431e+01
2.530000e-06	3.340451e-06	3.676760e-10	2.315880e+01	2.238360e+01
2.540000e-06	3.211803e-06	3.642520e-10	2.226690e+01	2.160343e+01
2.550000e-06	3.082206e-06	3.569757e-10	2.136842e+01	2.079185e+01
2.560000e-06	2.951645e-06	3.435435e-10	2.046327e+01	1.993210e+01
2.570000e-06	2.820198e-06	3.244805e-10	1.955197e+01	1.902183e+01
2.580000e-06	2.688013e-06	3.119183e-10	1.863555e+01	1.807960e+01
2.590000e-06	2.555160e-06	2.996478e-10	1.771450e+01	1.714182e+01
2.600000e-06	2.421556e-06	2.837899e-10	1.678825e+01	1.624789e+01
2.610000e-06	2.287179e-06	2.658312e-10	1.585664e+01	1.541939e+01
2.620000e-06	2.152187e-06	2.528501e-10	1.492076e+01	1.464509e+01
2.630000e-06	2.016616e-06	2.434655e-10	1.398086e+01	1.388238e+01
2.640000e-06	1.880407e-06	2.304551e-10	1.303655e+01	1.307715e+01
2.650000e-06	1.743636e-06	2.139564e-10	1.208834e+01	1.219271e+01
2.660000e-06	1.606547e-06	2.005378e-10	1.113793e+01	1.123171e+01
2.670000e-06	1.469016e-06	1.921188e-10	1.018445e+01	1.023737e+01
2.680000e-06	1.330967e-06	1.803411e-10	9.227376e+00	9.271837e+00
2.690000e-06	1.192608e-06	1.612017e-10	8.268155e+00	8.383002e+00
2.700000e-06	1.054061e-06	1.412279e-10	7.307634e+00	7.578184e+00
2.710000e-06	9.153138e-07	1.275933e-10	6.345720e+00	6.820039e+00
2.720000e-06	7.762905e-07	1.167456e-10	5.381894e+00	6.047100e+00
2.730000e-06	6.370513e-07	1.024938e-10	4.416571e+00	5.207272e+00
2.740000e-06	4.977629e-07	8.595688e-11	3.450908e+00	4.285201e+00
2.750000e-06	3.584233e-07	7.388022e-11	2.484890e+00	3.308396e+00
2.760000e-06	2.189525e-07	6.402889e-11	1.517962e+00	2.329718e+00
2.770000e-06	7.938538e-08	5.042634e-11	5.503658e-01	1.397460e+00
2.780000e-06	-6.012589e-08	3.192387e-11	-4.168429e-01	5.306849e-01
2.790000e-06	-1.995433e-07	1.381406e-11	-1.383401e+00	-2.868651e-01
2.800000e-06	-3.389278e-07	-8.377067e-13	-2.349731e+00	-1.092859e+00
2.810000e-06	-4.783512e-07	-1.377745e-11	-3.316330e+00	-1.922844e+00
2.820000e-06	-6.176628e-07	-2.807404e-11	-4.282155e+00	-2.791978e+00
2.830000e-06	-7.567486e-07	-4.239129e-11	-5.246414e+00	-3.691958e+00
2.840000e-06	-8.957078e-07	-5.390590e-11	-6.209794e+00	-4.602472e+00
2.850000e-06	-1.034475e-06	-6.441946e-11	-7.171842e+00	-5.507424e+00
2.860000e-06	-1.173039e-06	-7.697025e-11	-8.132487e+00	-6.404360e+00
2.870000e-06	-1.311264e-06	-9.260037e-11	-9.090775e+00	-7.301563e+00
2.880000e-06	-1.449064e-06	-1.072899e-10	-1.004612e+01	-8.206539e+00
2.890000e-06	-1.586454e-06	-1.209773e-10	-1.099863e+01	-9.115699e+00
2.900000e-06	-1.723380e-06	-1.365104e-10	-1.194791e+01	-1.001374e+01
2.910000e-06	-1.859849e-06	-1.532787e-10	-1.289403e+01	-1.088383e+01
2.920000e-06	-1.995776e-06	-1.670946e-10	-1.383639e+01	-1.172142e+01
2.930000e-06	-2.131119e-06	-1.769580e-10	-1.477470e+01	-1.254120e+01
2.940000e-06	-2.265937e-06	-1.865399e-10	-1.570937e+01	-1.337114e+01
2.950000e-06	-2.400168e-06	-1.988002e-10	-1.663997e+01	-1.423598e+01
