# Temperatura_=_20.0
# Concentracion g/m^3_=_10000.0
# C_Vs_to_Am_M_A/Vsm_=_65563218390.804596
# pendiente_HvsI_1/m_=_3716.3
# ordenada_HvsI_A/m_=_1297.0
# frecuencia_Hz_=_269583.51091503014

Tiempo_(s)	Campo_(V.s)	Magnetizacion_(V.s)	Campo_(kA/m)	Magnetizacion_(A/m)
0.000000e+00	-8.251680e-06	-1.158256e-08	-5.699869e+01	-7.590822e+02
1.000000e-08	-8.248416e-06	-1.158078e-08	-5.697615e+01	-7.589620e+02
2.000000e-08	-8.242933e-06	-1.157781e-08	-5.693827e+01	-7.589270e+02
3.000000e-08	-8.235373e-06	-1.157551e-08	-5.688606e+01	-7.588896e+02
4.000000e-08	-8.225608e-06	-1.157131e-08	-5.681860e+01	-7.587343e+02
5.000000e-08	-8.213414e-06	-1.156688e-08	-5.673437e+01	-7.583830e+02
6.000000e-08	-8.198703e-06	-1.156132e-08	-5.663275e+01	-7.578387e+02
7.000000e-08	-8.181484e-06	-1.156579e-08	-5.651381e+01	-7.571813e+02
8.000000e-08	-8.161969e-06	-1.155755e-08	-5.637902e+01	-7.565143e+02
9.000000e-08	-8.140128e-06	-1.153107e-08	-5.622814e+01	-7.558937e+02
1.000000e-07	-8.115610e-06	-1.152647e-08	-5.605879e+01	-7.552809e+02
1.100000e-07	-8.088430e-06	-1.152577e-08	-5.587104e+01	-7.545493e+02
1.200000e-07	-8.059042e-06	-1.150458e-08	-5.566804e+01	-7.535461e+02
1.300000e-07	-8.027976e-06	-1.150047e-08	-5.545346e+01	-7.521762e+02
1.400000e-07	-7.995182e-06	-1.146216e-08	-5.522692e+01	-7.504630e+02
1.500000e-07	-7.960219e-06	-1.142183e-08	-5.498542e+01	-7.485504e+02
1.600000e-07	-7.923264e-06	-1.145861e-08	-5.473015e+01	-7.466429e+02
1.700000e-07	-7.884344e-06	-1.140251e-08	-5.446131e+01	-7.449153e+02
1.800000e-07	-7.843094e-06	-1.137361e-08	-5.417637e+01	-7.434375e+02
1.900000e-07	-7.799627e-06	-1.139967e-08	-5.387613e+01	-7.421551e+02
2.000000e-07	-7.754032e-06	-1.133770e-08	-5.356118e+01	-7.409301e+02
2.100000e-07	-7.706231e-06	-1.133838e-08	-5.323099e+01	-7.396183e+02
2.200000e-07	-7.655962e-06	-1.130684e-08	-5.288376e+01	-7.381377e+02
2.300000e-07	-7.602994e-06	-1.124812e-08	-5.251788e+01	-7.364929e+02
2.400000e-07	-7.547737e-06	-1.123804e-08	-5.213619e+01	-7.347468e+02
2.500000e-07	-7.490298e-06	-1.120037e-08	-5.173943e+01	-7.329614e+02
2.600000e-07	-7.430632e-06	-1.119125e-08	-5.132729e+01	-7.311475e+02
2.700000e-07	-7.368890e-06	-1.116539e-08	-5.090080e+01	-7.292522e+02
2.800000e-07	-7.305001e-06	-1.112898e-08	-5.045949e+01	-7.271908e+02
2.900000e-07	-7.238871e-06	-1.108918e-08	-5.000269e+01	-7.249012e+02
3.000000e-07	-7.170513e-06	-1.104086e-08	-4.953051e+01	-7.223855e+02
3.100000e-07	-7.100065e-06	-1.100789e-08	-4.904389e+01	-7.197130e+02
3.200000e-07	-7.027501e-06	-1.094292e-08	-4.854264e+01	-7.169823e+02
3.300000e-07	-6.952741e-06	-1.091657e-08	-4.802624e+01	-7.142660e+02
3.400000e-07	-6.875685e-06	-1.088760e-08	-4.749398e+01	-7.115696e+02
3.500000e-07	-6.796304e-06	-1.084116e-08	-4.694565e+01	-7.088287e+02
3.600000e-07	-6.714826e-06	-1.080402e-08	-4.638284e+01	-7.059443e+02
3.700000e-07	-6.631429e-06	-1.074360e-08	-4.580677e+01	-7.028346e+02
3.800000e-07	-6.546220e-06	-1.069248e-08	-4.521819e+01	-6.994732e+02
3.900000e-07	-6.459241e-06	-1.063329e-08	-4.461737e+01	-6.958929e+02
4.000000e-07	-6.370423e-06	-1.057634e-08	-4.400387e+01	-6.921584e+02
4.100000e-07	-6.279786e-06	-1.051889e-08	-4.337779e+01	-6.883251e+02
4.200000e-07	-6.187383e-06	-1.045963e-08	-4.273951e+01	-6.844113e+02
4.300000e-07	-6.093247e-06	-1.040182e-08	-4.208926e+01	-6.803970e+02
4.400000e-07	-5.997396e-06	-1.033105e-08	-4.142717e+01	-6.762460e+02
4.500000e-07	-5.899785e-06	-1.026534e-08	-4.075292e+01	-6.719337e+02
4.600000e-07	-5.800519e-06	-1.019346e-08	-4.006723e+01	-6.674598e+02
4.700000e-07	-5.699685e-06	-1.012678e-08	-3.937072e+01	-6.628385e+02
4.800000e-07	-5.597379e-06	-1.005654e-08	-3.866404e+01	-6.580755e+02
4.900000e-07	-5.493596e-06	-9.977214e-09	-3.794716e+01	-6.531495e+02
5.000000e-07	-5.388167e-06	-9.894713e-09	-3.721890e+01	-6.480150e+02
5.100000e-07	-5.281181e-06	-9.806004e-09	-3.647990e+01	-6.426265e+02
5.200000e-07	-5.172779e-06	-9.718497e-09	-3.573111e+01	-6.369699e+02
5.300000e-07	-5.063025e-06	-9.629492e-09	-3.497298e+01	-6.310800e+02
5.400000e-07	-4.951977e-06	-9.540409e-09	-3.420591e+01	-6.250272e+02
5.500000e-07	-4.839529e-06	-9.445480e-09	-3.342917e+01	-6.188801e+02
5.600000e-07	-4.725560e-06	-9.349587e-09	-3.264193e+01	-6.126605e+02
5.700000e-07	-4.610091e-06	-9.250940e-09	-3.184432e+01	-6.063205e+02
5.800000e-07	-4.493183e-06	-9.147673e-09	-3.103678e+01	-5.997551e+02
5.900000e-07	-4.374997e-06	-9.040652e-09	-3.022040e+01	-5.928483e+02
6.000000e-07	-4.255592e-06	-8.926363e-09	-2.939561e+01	-5.855276e+02
6.100000e-07	-4.134896e-06	-8.809759e-09	-2.856190e+01	-5.777992e+02
6.200000e-07	-4.012984e-06	-8.689067e-09	-2.771979e+01	-5.697421e+02
6.300000e-07	-3.889885e-06	-8.564030e-09	-2.686948e+01	-5.614653e+02
6.400000e-07	-3.765565e-06	-8.433593e-09	-2.601074e+01	-5.530481e+02
6.500000e-07	-3.640085e-06	-8.299285e-09	-2.514398e+01	-5.444959e+02
6.600000e-07	-3.513604e-06	-8.162182e-09	-2.427031e+01	-5.357338e+02
6.700000e-07	-3.386210e-06	-8.022369e-09	-2.339033e+01	-5.266396e+02
6.800000e-07	-3.257723e-06	-7.877809e-09	-2.250280e+01	-5.170990e+02
6.900000e-07	-3.128115e-06	-7.724021e-09	-2.160754e+01	-5.070547e+02
7.000000e-07	-2.997555e-06	-7.563546e-09	-2.070569e+01	-4.965243e+02
7.100000e-07	-2.866036e-06	-7.394971e-09	-1.979722e+01	-4.855829e+02
7.200000e-07	-2.733578e-06	-7.220056e-09	-1.888226e+01	-4.743196e+02
7.300000e-07	-2.600382e-06	-7.041969e-09	-1.796221e+01	-4.627920e+02
7.400000e-07	-2.466555e-06	-6.862357e-09	-1.703779e+01	-4.509998e+02
7.500000e-07	-2.332068e-06	-6.679658e-09	-1.610882e+01	-4.388872e+02
7.600000e-07	-2.196927e-06	-6.488493e-09	-1.517533e+01	-4.263687e+02
7.700000e-07	-2.061076e-06	-6.287655e-09	-1.423694e+01	-4.133629e+02
7.800000e-07	-1.924498e-06	-6.078266e-09	-1.329352e+01	-3.998191e+02
7.900000e-07	-1.787377e-06	-5.862377e-09	-1.234635e+01	-3.857248e+02
8.000000e-07	-1.649876e-06	-5.637497e-09	-1.139656e+01	-3.710972e+02
8.100000e-07	-1.511937e-06	-5.407064e-09	-1.044374e+01	-3.559630e+02
8.200000e-07	-1.373571e-06	-5.169992e-09	-9.487978e+00	-3.403384e+02
8.300000e-07	-1.234870e-06	-4.924036e-09	-8.529899e+00	-3.242155e+02
8.400000e-07	-1.095891e-06	-4.668914e-09	-7.569895e+00	-3.075576e+02
8.500000e-07	-9.566599e-07	-4.402761e-09	-6.608153e+00	-2.903034e+02
8.600000e-07	-8.172506e-07	-4.126515e-09	-5.645180e+00	-2.723764e+02
8.700000e-07	-6.776717e-07	-3.839582e-09	-4.681035e+00	-2.536967e+02
8.800000e-07	-5.378845e-07	-3.542968e-09	-3.715451e+00	-2.341946e+02
8.900000e-07	-3.979674e-07	-3.232341e-09	-2.748970e+00	-2.138189e+02
9.000000e-07	-2.579435e-07	-2.905236e-09	-1.781752e+00	-1.925416e+02
9.100000e-07	-1.178413e-07	-2.564015e-09	-8.139915e-01	-1.703523e+02
9.200000e-07	2.224774e-08	-2.208466e-09	1.536769e-01	-1.472460e+02
9.300000e-07	1.623059e-07	-1.838588e-09	1.121132e+00	-1.232081e+02
9.400000e-07	3.023814e-07	-1.455726e-09	2.088708e+00	-9.820351e+01
9.500000e-07	4.423867e-07	-1.059368e-09	3.055798e+00	-7.217799e+01
9.600000e-07	5.822298e-07	-6.498747e-10	4.021767e+00	-4.507376e+01
9.700000e-07	7.218558e-07	-2.231402e-10	4.986237e+00	-1.685779e+01
9.800000e-07	8.613124e-07	2.243007e-10	5.949538e+00	1.244674e+01
9.900000e-07	1.000597e-06	6.890164e-10	6.911647e+00	4.273615e+01
1.000000e-06	1.139656e-06	1.166107e-09	7.872205e+00	7.381794e+01
1.010000e-06	1.278456e-06	1.650335e-09	8.830967e+00	1.054214e+02
1.020000e-06	1.416861e-06	2.134670e-09	9.787003e+00	1.372234e+02
1.030000e-06	1.554910e-06	2.613661e-09	1.074058e+01	1.688821e+02
1.040000e-06	1.692622e-06	3.086370e-09	1.169183e+01	2.000683e+02
1.050000e-06	1.829862e-06	3.549826e-09	1.263982e+01	2.304889e+02
1.060000e-06	1.966550e-06	3.996834e-09	1.358400e+01	2.598995e+02
1.070000e-06	2.102626e-06	4.425604e-09	1.452394e+01	2.881083e+02
1.080000e-06	2.238012e-06	4.835592e-09	1.545913e+01	3.149744e+02
1.090000e-06	2.372694e-06	5.223452e-09	1.638945e+01	3.404047e+02
1.100000e-06	2.506768e-06	5.584213e-09	1.731556e+01	3.643516e+02
1.110000e-06	2.640270e-06	5.922190e-09	1.823773e+01	3.868117e+02
1.120000e-06	2.773009e-06	6.240774e-09	1.915463e+01	4.078226e+02
1.130000e-06	2.904775e-06	6.539780e-09	2.006481e+01	4.274574e+02
1.140000e-06	3.035614e-06	6.817116e-09	2.096858e+01	4.458136e+02
1.150000e-06	3.165667e-06	7.074465e-09	2.186693e+01	4.629997e+02
1.160000e-06	3.294765e-06	7.314564e-09	2.275867e+01	4.791191e+02
1.170000e-06	3.422739e-06	7.541494e-09	2.364266e+01	4.942592e+02
1.180000e-06	3.549647e-06	7.759527e-09	2.451928e+01	5.084868e+02
1.190000e-06	3.675574e-06	7.964712e-09	2.538912e+01	5.218516e+02
1.200000e-06	3.800562e-06	8.153736e-09	2.625248e+01	5.343966e+02
1.210000e-06	3.924420e-06	8.328926e-09	2.710803e+01	5.461698e+02
1.220000e-06	4.047066e-06	8.495471e-09	2.795521e+01	5.572306e+02
1.230000e-06	4.168492e-06	8.654324e-09	2.879397e+01	5.676486e+02
1.240000e-06	4.288597e-06	8.805036e-09	2.962359e+01	5.774952e+02
1.250000e-06	4.407445e-06	8.947391e-09	3.044454e+01	5.868315e+02
1.260000e-06	4.525046e-06	9.083583e-09	3.125687e+01	5.956998e+02
1.270000e-06	4.641215e-06	9.213277e-09	3.205931e+01	6.041228e+02
1.280000e-06	4.755915e-06	9.335741e-09	3.285160e+01	6.121101e+02
1.290000e-06	4.869190e-06	9.449591e-09	3.363406e+01	6.196687e+02
1.300000e-06	4.981041e-06	9.556699e-09	3.440667e+01	6.268111e+02
1.310000e-06	5.091557e-06	9.657162e-09	3.517006e+01	6.335576e+02
1.320000e-06	5.200771e-06	9.753979e-09	3.592446e+01	6.399336e+02
1.330000e-06	5.308575e-06	9.846866e-09	3.666912e+01	6.459658e+02
1.340000e-06	5.414896e-06	9.934742e-09	3.740354e+01	6.516809e+02
1.350000e-06	5.519623e-06	1.001791e-08	3.812694e+01	6.571100e+02
1.360000e-06	5.622760e-06	1.009561e-08	3.883936e+01	6.622934e+02
1.370000e-06	5.724459e-06	1.017066e-08	3.954185e+01	6.672812e+02
1.380000e-06	5.824587e-06	1.024318e-08	4.023349e+01	6.721243e+02
1.390000e-06	5.923017e-06	1.031416e-08	4.091339e+01	6.768584e+02
1.400000e-06	6.019707e-06	1.038317e-08	4.158129e+01	6.814882e+02
1.410000e-06	6.114637e-06	1.045040e-08	4.223701e+01	6.859835e+02
1.420000e-06	6.207917e-06	1.051533e-08	4.288135e+01	6.902906e+02
1.430000e-06	6.299512e-06	1.057737e-08	4.351404e+01	6.943598e+02
1.440000e-06	6.389301e-06	1.063552e-08	4.413426e+01	6.981736e+02
1.450000e-06	6.477225e-06	1.068846e-08	4.474160e+01	7.017612e+02
1.460000e-06	6.563319e-06	1.073940e-08	4.533630e+01	7.051897e+02
1.470000e-06	6.647646e-06	1.079089e-08	4.591879e+01	7.085337e+02
1.480000e-06	6.730091e-06	1.084064e-08	4.648828e+01	7.118388e+02
1.490000e-06	6.810501e-06	1.088736e-08	4.704371e+01	7.150974e+02
1.500000e-06	6.888900e-06	1.093376e-08	4.758525e+01	7.182529e+02
1.510000e-06	6.965218e-06	1.098073e-08	4.811242e+01	7.212294e+02
1.520000e-06	7.039339e-06	1.102564e-08	4.862441e+01	7.239731e+02
1.530000e-06	7.111329e-06	1.106617e-08	4.912169e+01	7.264832e+02
1.540000e-06	7.181288e-06	1.110325e-08	4.960493e+01	7.288142e+02
1.550000e-06	7.249192e-06	1.113918e-08	5.007398e+01	7.310486e+02
1.560000e-06	7.314911e-06	1.117279e-08	5.052794e+01	7.332555e+02
1.570000e-06	7.378482e-06	1.120254e-08	5.096706e+01	7.354562e+02
1.580000e-06	7.440105e-06	1.123106e-08	5.139272e+01	7.376155e+02
1.590000e-06	7.499750e-06	1.126124e-08	5.180472e+01	7.396639e+02
1.600000e-06	7.557232e-06	1.129243e-08	5.220178e+01	7.415350e+02
1.610000e-06	7.612516e-06	1.132143e-08	5.258365e+01	7.431995e+02
1.620000e-06	7.665493e-06	1.134656e-08	5.294959e+01	7.446775e+02
1.630000e-06	7.715934e-06	1.136976e-08	5.329802e+01	7.460246e+02
1.640000e-06	7.763913e-06	1.139060e-08	5.362943e+01	7.473025e+02
1.650000e-06	7.809771e-06	1.140724e-08	5.394620e+01	7.485528e+02
1.660000e-06	7.853591e-06	1.142265e-08	5.424888e+01	7.497855e+02
1.670000e-06	7.895193e-06	1.144014e-08	5.453625e+01	7.509863e+02
1.680000e-06	7.934565e-06	1.146026e-08	5.480821e+01	7.521335e+02
1.690000e-06	7.971906e-06	1.148060e-08	5.506615e+01	7.532103e+02
1.700000e-06	8.007144e-06	1.149778e-08	5.530956e+01	7.542067e+02
1.710000e-06	8.040050e-06	1.151138e-08	5.553686e+01	7.551123e+02
1.720000e-06	8.070715e-06	1.152341e-08	5.574868e+01	7.559111e+02
1.730000e-06	8.099285e-06	1.153447e-08	5.594602e+01	7.565850e+02
1.740000e-06	8.125533e-06	1.154369e-08	5.612733e+01	7.571291e+02
1.750000e-06	8.149350e-06	1.155115e-08	5.629185e+01	7.575658e+02
1.760000e-06	8.170978e-06	1.155924e-08	5.644124e+01	7.579464e+02
1.770000e-06	8.190441e-06	1.156888e-08	5.657569e+01	7.583321e+02
1.780000e-06	8.207518e-06	1.157750e-08	5.669365e+01	7.587617e+02
1.790000e-06	8.222158e-06	1.158423e-08	5.679477e+01	7.592238e+02
1.800000e-06	8.234255e-06	1.158894e-08	5.687833e+01	7.596533e+02
1.810000e-06	8.243657e-06	1.159261e-08	5.694327e+01	7.599591e+02
1.820000e-06	8.250607e-06	1.159438e-08	5.699128e+01	7.600715e+02
1.830000e-06	8.255384e-06	1.159425e-08	5.702428e+01	7.599843e+02
1.840000e-06	8.257845e-06	1.159518e-08	5.704128e+01	7.597647e+02
1.850000e-06	8.257877e-06	1.159293e-08	5.704150e+01	7.595228e+02
1.860000e-06	8.255733e-06	1.159274e-08	5.702669e+01	7.593542e+02
1.870000e-06	8.251452e-06	1.159158e-08	5.699712e+01	7.592870e+02
1.880000e-06	8.244863e-06	1.158909e-08	5.695161e+01	7.592648e+02
1.890000e-06	8.235969e-06	1.158756e-08	5.689017e+01	7.591768e+02
1.900000e-06	8.224832e-06	1.158391e-08	5.681324e+01	7.589203e+02
1.910000e-06	8.211363e-06	1.158082e-08	5.672021e+01	7.584583e+02
1.920000e-06	8.195605e-06	1.154617e-08	5.661135e+01	7.578396e+02
1.930000e-06	8.177670e-06	1.155187e-08	5.648747e+01	7.571655e+02
1.940000e-06	8.156980e-06	1.155894e-08	5.634455e+01	7.565221e+02
1.950000e-06	8.132962e-06	1.151537e-08	5.617865e+01	7.559169e+02
1.960000e-06	8.106174e-06	1.150099e-08	5.599361e+01	7.552590e+02
1.970000e-06	8.077352e-06	1.148835e-08	5.579452e+01	7.543973e+02
1.980000e-06	8.046894e-06	1.147437e-08	5.558413e+01	7.532005e+02
1.990000e-06	8.014916e-06	1.152204e-08	5.536324e+01	7.516331e+02
2.000000e-06	7.981026e-06	1.141307e-08	5.512915e+01	7.497881e+02
2.010000e-06	7.945233e-06	1.133457e-08	5.488190e+01	7.478525e+02
2.020000e-06	7.907310e-06	1.138063e-08	5.461995e+01	7.460262e+02
2.030000e-06	7.866813e-06	1.127730e-08	5.434022e+01	7.444334e+02
2.040000e-06	7.824167e-06	1.129639e-08	5.404564e+01	7.430750e+02
2.050000e-06	7.779460e-06	1.128720e-08	5.373682e+01	7.418430e+02
2.060000e-06	7.732575e-06	1.121515e-08	5.341296e+01	7.405860e+02
2.070000e-06	7.683573e-06	1.128354e-08	5.307448e+01	7.391872e+02
2.080000e-06	7.632019e-06	1.120944e-08	5.271837e+01	7.376121e+02
2.090000e-06	7.577941e-06	1.120329e-08	5.234483e+01	7.359031e+02
2.100000e-06	7.521614e-06	1.120374e-08	5.195575e+01	7.341303e+02
2.110000e-06	7.463163e-06	1.111379e-08	5.155199e+01	7.323324e+02
2.120000e-06	7.402610e-06	1.114193e-08	5.113372e+01	7.304841e+02
2.130000e-06	7.339761e-06	1.105505e-08	5.069959e+01	7.285090e+02
2.140000e-06	7.274819e-06	1.105894e-08	5.025100e+01	7.263281e+02
2.150000e-06	7.207760e-06	1.102356e-08	4.978779e+01	7.239110e+02
2.160000e-06	7.138357e-06	1.097698e-08	4.930839e+01	7.212985e+02
2.170000e-06	7.066602e-06	1.098771e-08	4.881273e+01	7.185825e+02
2.180000e-06	6.992694e-06	1.087509e-08	4.830222e+01	7.158542e+02
2.190000e-06	6.916748e-06	1.088045e-08	4.777762e+01	7.131529e+02
2.200000e-06	6.838486e-06	1.080523e-08	4.723702e+01	7.104436e+02
2.210000e-06	6.758075e-06	1.076995e-08	4.668158e+01	7.076372e+02
2.220000e-06	6.675748e-06	1.073883e-08	4.611290e+01	7.046379e+02
2.230000e-06	6.591478e-06	1.066000e-08	4.553080e+01	7.013909e+02
2.240000e-06	6.505179e-06	1.064620e-08	4.493469e+01	6.979038e+02
2.250000e-06	6.416929e-06	1.056302e-08	4.432510e+01	6.942315e+02
2.260000e-06	6.327019e-06	1.053628e-08	4.370405e+01	6.904385e+02
2.270000e-06	6.235439e-06	1.045914e-08	4.307145e+01	6.865620e+02
2.280000e-06	6.142031e-06	1.040450e-08	4.242624e+01	6.825978e+02
2.290000e-06	6.046762e-06	1.034090e-08	4.176817e+01	6.785136e+02
2.300000e-06	5.949869e-06	1.026562e-08	4.109888e+01	6.742767e+02
2.310000e-06	5.851496e-06	1.021483e-08	4.041936e+01	6.698754e+02
2.320000e-06	5.751529e-06	1.013135e-08	3.972884e+01	6.653198e+02
2.330000e-06	5.649806e-06	1.007539e-08	3.902618e+01	6.606224e+02
2.340000e-06	5.546389e-06	9.989314e-09	3.831182e+01	6.557756e+02
2.350000e-06	5.441506e-06	9.928985e-09	3.758734e+01	6.507430e+02
2.360000e-06	5.335262e-06	9.849981e-09	3.685346e+01	6.454751e+02
2.370000e-06	5.227688e-06	9.771535e-09	3.611039e+01	6.399400e+02
2.380000e-06	5.118710e-06	9.680608e-09	3.535762e+01	6.341497e+02
2.390000e-06	5.008274e-06	9.585749e-09	3.459478e+01	6.281617e+02
2.400000e-06	4.896357e-06	9.497205e-09	3.382171e+01	6.220513e+02
2.410000e-06	4.782990e-06	9.395308e-09	3.303863e+01	6.158664e+02
2.420000e-06	4.668148e-06	9.302912e-09	3.224536e+01	6.095918e+02
2.430000e-06	4.551807e-06	9.203325e-09	3.144173e+01	6.031447e+02
2.440000e-06	4.434034e-06	9.112185e-09	3.062821e+01	5.964071e+02
2.450000e-06	4.314848e-06	9.004026e-09	2.980493e+01	5.892803e+02
2.460000e-06	4.194440e-06	8.889402e-09	2.897320e+01	5.817327e+02
2.470000e-06	4.072931e-06	8.765213e-09	2.813387e+01	5.738131e+02
2.480000e-06	3.950269e-06	8.643019e-09	2.728659e+01	5.656239e+02
2.490000e-06	3.826366e-06	8.516578e-09	2.643072e+01	5.572651e+02
2.500000e-06	3.701271e-06	8.386968e-09	2.556662e+01	5.487795e+02
2.510000e-06	3.575042e-06	8.254881e-09	2.469469e+01	5.401270e+02
2.520000e-06	3.447664e-06	8.120722e-09	2.381483e+01	5.312009e+02
2.530000e-06	3.319247e-06	7.983463e-09	2.292779e+01	5.218762e+02
2.540000e-06	3.189894e-06	7.835250e-09	2.203427e+01	5.120650e+02
2.550000e-06	3.059709e-06	7.679215e-09	2.113502e+01	5.017506e+02
2.560000e-06	2.928652e-06	7.514717e-09	2.022974e+01	4.909861e+02
2.570000e-06	2.796642e-06	7.349514e-09	1.931788e+01	4.798603e+02
2.580000e-06	2.663756e-06	7.175874e-09	1.839996e+01	4.684500e+02
2.590000e-06	2.530124e-06	6.994883e-09	1.747690e+01	4.567829e+02
2.600000e-06	2.395764e-06	6.808766e-09	1.654880e+01	4.448267e+02
2.610000e-06	2.260657e-06	6.622440e-09	1.561555e+01	4.325052e+02
2.620000e-06	2.124901e-06	6.430196e-09	1.467781e+01	4.197312e+02
2.630000e-06	1.988612e-06	6.228816e-09	1.373639e+01	4.064377e+02
2.640000e-06	1.851831e-06	6.019213e-09	1.279157e+01	3.925949e+02
2.650000e-06	1.714559e-06	5.801974e-09	1.184336e+01	3.782084e+02
2.660000e-06	1.576800e-06	5.576259e-09	1.089179e+01	3.633032e+02
2.670000e-06	1.438652e-06	5.339529e-09	9.937523e+00	3.479026e+02
2.680000e-06	1.300212e-06	5.094001e-09	8.981245e+00	3.320108e+02
2.690000e-06	1.161498e-06	4.842546e-09	8.023077e+00	3.156043e+02
2.700000e-06	1.022469e-06	4.586154e-09	7.062728e+00	2.986322e+02
2.710000e-06	8.831083e-07	4.320192e-09	6.100094e+00	2.810234e+02
2.720000e-06	7.435065e-07	4.040336e-09	5.135791e+00	2.626982e+02
2.730000e-06	6.037057e-07	3.746685e-09	4.170113e+00	2.435805e+02
2.740000e-06	4.637745e-07	3.442088e-09	3.203534e+00	2.236100e+02
2.750000e-06	3.237518e-07	3.125760e-09	2.236324e+00	2.027480e+02
2.760000e-06	1.835952e-07	2.796448e-09	1.268189e+00	1.809772e+02
2.770000e-06	4.336514e-08	2.454050e-09	2.995458e-01	1.582919e+02
2.780000e-06	-9.683981e-08	2.096122e-09	-6.689235e-01	1.346839e+02
2.790000e-06	-2.369993e-07	1.721066e-09	-1.637079e+00	1.101280e+02
2.800000e-06	-3.770984e-07	1.329236e-09	-2.604817e+00	8.457788e+01
2.810000e-06	-5.171513e-07	9.210791e-10	-3.572236e+00	5.797429e+01
2.820000e-06	-6.570801e-07	4.968290e-10	-4.538798e+00	3.026898e+01
2.830000e-06	-7.967399e-07	5.767812e-11	-5.503501e+00	1.455669e+00
2.840000e-06	-9.361204e-07	-3.972675e-10	-6.466276e+00	-2.840101e+01
2.850000e-06	-1.075225e-06	-8.662505e-10	-7.427147e+00	-5.914907e+01
2.860000e-06	-1.214029e-06	-1.343417e-09	-8.385934e+00	-9.055120e+01
2.870000e-06	-1.352522e-06	-1.825947e-09	-9.342580e+00	-1.223044e+02
2.880000e-06	-1.490642e-06	-2.310426e-09	-1.029665e+01	-1.540712e+02
2.890000e-06	-1.628344e-06	-2.792588e-09	-1.124783e+01	-1.855131e+02
2.900000e-06	-1.765636e-06	-3.267472e-09	-1.219618e+01	-2.163181e+02
2.910000e-06	-1.902535e-06	-3.727906e-09	-1.314181e+01	-2.462186e+02
2.920000e-06	-2.038955e-06	-4.168303e-09	-1.408413e+01	-2.749989e+02
2.930000e-06	-2.174755e-06	-4.586722e-09	-1.502218e+01	-3.024949e+02
2.940000e-06	-2.309888e-06	-4.984351e-09	-1.595561e+01	-3.285919e+02
2.950000e-06	-2.444298e-06	-5.362078e-09	-1.688405e+01	-3.532219e+02
