# Temperatura_=_20.0
# Concentracion g/m^3_=_10000.0
# C_Vs_to_Am_M_A/Vsm_=_65563218390.804596
# pendiente_HvsI_1/m_=_3716.3
# ordenada_HvsI_A/m_=_1297.0
# frecuencia_Hz_=_269588.3410177539

Tiempo_(s)	Campo_(V.s)	Magnetizacion_(V.s)	Campo_(kA/m)	Magnetizacion_(A/m)
0.000000e+00	-8.217649e-06	-1.158801e-08	-5.699289e+01	-7.575085e+02
1.000000e-08	-8.214860e-06	-1.159166e-08	-5.697354e+01	-7.575754e+02
2.000000e-08	-8.209824e-06	-1.159184e-08	-5.693862e+01	-7.576361e+02
3.000000e-08	-8.202700e-06	-1.158991e-08	-5.688921e+01	-7.575400e+02
4.000000e-08	-8.193359e-06	-1.158686e-08	-5.682443e+01	-7.572067e+02
5.000000e-08	-8.181576e-06	-1.158031e-08	-5.674271e+01	-7.566711e+02
6.000000e-08	-8.167242e-06	-1.157062e-08	-5.664329e+01	-7.560524e+02
7.000000e-08	-8.150471e-06	-1.154951e-08	-5.652698e+01	-7.554690e+02
8.000000e-08	-8.131478e-06	-1.155065e-08	-5.639525e+01	-7.549534e+02
9.000000e-08	-8.110091e-06	-1.159285e-08	-5.624692e+01	-7.544262e+02
1.000000e-07	-8.086082e-06	-1.157598e-08	-5.608041e+01	-7.537498e+02
1.100000e-07	-8.059421e-06	-1.153844e-08	-5.589551e+01	-7.528330e+02
1.200000e-07	-8.030473e-06	-1.155623e-08	-5.569474e+01	-7.517195e+02
1.300000e-07	-7.999812e-06	-1.149993e-08	-5.548210e+01	-7.506009e+02
1.400000e-07	-7.967506e-06	-1.143416e-08	-5.525804e+01	-7.497335e+02
1.500000e-07	-7.933096e-06	-1.153371e-08	-5.501939e+01	-7.493011e+02
1.600000e-07	-7.896638e-06	-1.144210e-08	-5.476654e+01	-7.492982e+02
1.700000e-07	-7.858258e-06	-1.140663e-08	-5.450036e+01	-7.495038e+02
1.800000e-07	-7.817532e-06	-1.151144e-08	-5.421790e+01	-7.495680e+02
1.900000e-07	-7.774527e-06	-1.140148e-08	-5.391965e+01	-7.491676e+02
2.000000e-07	-7.729475e-06	-1.140693e-08	-5.360720e+01	-7.481495e+02
2.100000e-07	-7.682245e-06	-1.138529e-08	-5.327963e+01	-7.465861e+02
2.200000e-07	-7.632623e-06	-1.131229e-08	-5.293548e+01	-7.447154e+02
2.300000e-07	-7.580386e-06	-1.132939e-08	-5.257320e+01	-7.428023e+02
2.400000e-07	-7.525727e-06	-1.130268e-08	-5.219411e+01	-7.410015e+02
2.500000e-07	-7.468941e-06	-1.128776e-08	-5.180028e+01	-7.392945e+02
2.600000e-07	-7.409893e-06	-1.125653e-08	-5.139076e+01	-7.375303e+02
2.700000e-07	-7.348643e-06	-1.121587e-08	-5.096596e+01	-7.355378e+02
2.800000e-07	-7.285287e-06	-1.117657e-08	-5.052656e+01	-7.332380e+02
2.900000e-07	-7.219798e-06	-1.112503e-08	-5.007236e+01	-7.306907e+02
3.000000e-07	-7.152144e-06	-1.110342e-08	-4.960316e+01	-7.280515e+02
3.100000e-07	-7.082340e-06	-1.103762e-08	-4.911904e+01	-7.254704e+02
3.200000e-07	-7.010466e-06	-1.103018e-08	-4.862056e+01	-7.229966e+02
3.300000e-07	-6.936441e-06	-1.100763e-08	-4.810716e+01	-7.205476e+02
3.400000e-07	-6.860111e-06	-1.093545e-08	-4.757779e+01	-7.179583e+02
3.500000e-07	-6.781439e-06	-1.089967e-08	-4.703216e+01	-7.150800e+02
3.600000e-07	-6.700573e-06	-1.083269e-08	-4.647132e+01	-7.118663e+02
3.700000e-07	-6.617714e-06	-1.079153e-08	-4.589666e+01	-7.083966e+02
3.800000e-07	-6.533064e-06	-1.074708e-08	-4.530957e+01	-7.048249e+02
3.900000e-07	-6.446726e-06	-1.069517e-08	-4.471078e+01	-7.012863e+02
4.000000e-07	-6.358625e-06	-1.063565e-08	-4.409977e+01	-6.978183e+02
4.100000e-07	-6.268732e-06	-1.057870e-08	-4.347632e+01	-6.943398e+02
4.200000e-07	-6.177026e-06	-1.053071e-08	-4.284030e+01	-6.906996e+02
4.300000e-07	-6.083538e-06	-1.045701e-08	-4.219192e+01	-6.867603e+02
4.400000e-07	-5.988371e-06	-1.039394e-08	-4.153190e+01	-6.824701e+02
4.500000e-07	-5.891521e-06	-1.032547e-08	-4.086020e+01	-6.778830e+02
4.600000e-07	-5.793027e-06	-1.026226e-08	-4.017710e+01	-6.731202e+02
4.700000e-07	-5.692874e-06	-1.018863e-08	-3.948250e+01	-6.682998e+02
4.800000e-07	-5.591124e-06	-1.010259e-08	-3.877682e+01	-6.634761e+02
4.900000e-07	-5.487859e-06	-1.002132e-08	-3.806063e+01	-6.586192e+02
5.000000e-07	-5.383041e-06	-9.944309e-09	-3.733368e+01	-6.536407e+02
5.100000e-07	-5.276795e-06	-9.869779e-09	-3.659682e+01	-6.484443e+02
5.200000e-07	-5.169147e-06	-9.784347e-09	-3.585023e+01	-6.429704e+02
5.300000e-07	-5.060098e-06	-9.700257e-09	-3.509393e+01	-6.372127e+02
5.400000e-07	-4.949719e-06	-9.610728e-09	-3.432840e+01	-6.312037e+02
5.500000e-07	-4.837931e-06	-9.516373e-09	-3.355311e+01	-6.249860e+02
5.600000e-07	-4.724712e-06	-9.409841e-09	-3.276789e+01	-6.185866e+02
5.700000e-07	-4.610104e-06	-9.298536e-09	-3.197303e+01	-6.120084e+02
5.800000e-07	-4.494054e-06	-9.194156e-09	-3.116817e+01	-6.052362e+02
5.900000e-07	-4.376590e-06	-9.095186e-09	-3.035351e+01	-5.982472e+02
6.000000e-07	-4.257803e-06	-8.990532e-09	-2.952967e+01	-5.910175e+02
6.100000e-07	-4.137719e-06	-8.871110e-09	-2.869684e+01	-5.835217e+02
6.200000e-07	-4.016462e-06	-8.749099e-09	-2.785587e+01	-5.757321e+02
6.300000e-07	-3.894115e-06	-8.625634e-09	-2.700734e+01	-5.676228e+02
6.400000e-07	-3.770522e-06	-8.498806e-09	-2.615017e+01	-5.591804e+02
6.500000e-07	-3.645682e-06	-8.360491e-09	-2.528435e+01	-5.504125e+02
6.600000e-07	-3.519861e-06	-8.217442e-09	-2.441173e+01	-5.413454e+02
6.700000e-07	-3.393111e-06	-8.077546e-09	-2.353267e+01	-5.320082e+02
6.800000e-07	-3.265219e-06	-7.935162e-09	-2.264568e+01	-5.224102e+02
6.900000e-07	-3.136225e-06	-7.782660e-09	-2.175105e+01	-5.125253e+02
7.000000e-07	-3.006323e-06	-7.621487e-09	-2.085013e+01	-5.022953e+02
7.100000e-07	-2.875467e-06	-7.457642e-09	-1.994259e+01	-4.916542e+02
7.200000e-07	-2.743674e-06	-7.290264e-09	-1.902855e+01	-4.805585e+02
7.300000e-07	-2.611053e-06	-7.115699e-09	-1.810876e+01	-4.690068e+02
7.400000e-07	-2.477733e-06	-6.930925e-09	-1.718413e+01	-4.570348e+02
7.500000e-07	-2.343829e-06	-6.742556e-09	-1.625545e+01	-4.446886e+02
7.600000e-07	-2.209299e-06	-6.548952e-09	-1.532243e+01	-4.319909e+02
7.700000e-07	-2.074022e-06	-6.348021e-09	-1.438422e+01	-4.189229e+02
7.800000e-07	-1.938034e-06	-6.140005e-09	-1.344109e+01	-4.054321e+02
7.900000e-07	-1.801551e-06	-5.926384e-09	-1.249452e+01	-3.914601e+02
8.000000e-07	-1.664734e-06	-5.708210e-09	-1.154564e+01	-3.769721e+02
8.100000e-07	-1.527522e-06	-5.481716e-09	-1.059401e+01	-3.619669e+02
8.200000e-07	-1.389883e-06	-5.246284e-09	-9.639428e+00	-3.464596e+02
8.300000e-07	-1.251879e-06	-5.000209e-09	-8.682312e+00	-3.304492e+02
8.400000e-07	-1.113555e-06	-4.746998e-09	-7.722975e+00	-3.138917e+02
8.500000e-07	-9.749281e-07	-4.486825e-09	-6.761540e+00	-2.967006e+02
8.600000e-07	-8.360135e-07	-4.214784e-09	-5.798109e+00	-2.787752e+02
8.700000e-07	-6.969015e-07	-3.928109e-09	-4.833308e+00	-2.600420e+02
8.800000e-07	-5.576986e-07	-3.628828e-09	-3.867876e+00	-2.404801e+02
8.900000e-07	-4.184026e-07	-3.318533e-09	-2.901800e+00	-2.201142e+02
9.000000e-07	-2.790112e-07	-2.993980e-09	-1.935061e+00	-1.989753e+02
9.100000e-07	-1.395703e-07	-2.657401e-09	-9.679794e-01	-1.770536e+02
9.200000e-07	-7.293785e-11	-2.307930e-09	-5.058550e-04	-1.542729e+02
9.300000e-07	1.394028e-07	-1.944817e-09	9.668177e-01	-1.305052e+02
9.400000e-07	2.788060e-07	-1.567252e-09	1.933638e+00	-1.056203e+02
9.500000e-07	4.181588e-07	-1.172845e-09	2.900109e+00	-7.954318e+01
9.600000e-07	5.574428e-07	-7.606247e-10	3.866102e+00	-5.228737e+01
9.700000e-07	6.966212e-07	-3.306521e-10	4.831364e+00	-2.394791e+01
9.800000e-07	8.356543e-07	1.161139e-10	5.795617e+00	5.337800e+00
9.900000e-07	9.744980e-07	5.764972e-10	6.758557e+00	3.543211e+01
1.000000e-06	1.113040e-06	1.047727e-09	7.719407e+00	6.621195e+01
1.010000e-06	1.251214e-06	1.528447e-09	8.677700e+00	9.754458e+01
1.020000e-06	1.389026e-06	2.011838e-09	9.633483e+00	1.292397e+02
1.030000e-06	1.526476e-06	2.491575e-09	1.058676e+01	1.610112e+02
1.040000e-06	1.663590e-06	2.966333e-09	1.153770e+01	1.924810e+02
1.050000e-06	1.800285e-06	3.434590e-09	1.248574e+01	2.232314e+02
1.060000e-06	1.936488e-06	3.886393e-09	1.343037e+01	2.528877e+02
1.070000e-06	2.072128e-06	4.315884e-09	1.437109e+01	2.811910e+02
1.080000e-06	2.207067e-06	4.723557e-09	1.530695e+01	3.080267e+02
1.090000e-06	2.341347e-06	5.108944e-09	1.623823e+01	3.333983e+02
1.100000e-06	2.475076e-06	5.471279e-09	1.716570e+01	3.573658e+02
1.110000e-06	2.608159e-06	5.811582e-09	1.808869e+01	3.799840e+02
1.120000e-06	2.740434e-06	6.133542e-09	1.900607e+01	4.012732e+02
1.130000e-06	2.871888e-06	6.435591e-09	1.991776e+01	4.212305e+02
1.140000e-06	3.002471e-06	6.717325e-09	2.082341e+01	4.398673e+02
1.150000e-06	3.132085e-06	6.978953e-09	2.172234e+01	4.572406e+02
1.160000e-06	3.260746e-06	7.221415e-09	2.261466e+01	4.734568e+02
1.170000e-06	3.388385e-06	7.449134e-09	2.349989e+01	4.886459e+02
1.180000e-06	3.514996e-06	7.665249e-09	2.437799e+01	5.029221e+02
1.190000e-06	3.640632e-06	7.869807e-09	2.524933e+01	5.163593e+02
1.200000e-06	3.765245e-06	8.059890e-09	2.611357e+01	5.289942e+02
1.210000e-06	3.888755e-06	8.238536e-09	2.697016e+01	5.408539e+02
1.220000e-06	4.011053e-06	8.407774e-09	2.781836e+01	5.519872e+02
1.230000e-06	4.132126e-06	8.568191e-09	2.865805e+01	5.624754e+02
1.240000e-06	4.251988e-06	8.719155e-09	2.948934e+01	5.724166e+02
1.250000e-06	4.370570e-06	8.860703e-09	3.031176e+01	5.818923e+02
1.260000e-06	4.487840e-06	8.996750e-09	3.112507e+01	5.909400e+02
1.270000e-06	4.603810e-06	9.128008e-09	3.192938e+01	5.995507e+02
1.280000e-06	4.718308e-06	9.251564e-09	3.272347e+01	6.076945e+02
1.290000e-06	4.831298e-06	9.367165e-09	3.350711e+01	6.153560e+02
1.300000e-06	4.942866e-06	9.478142e-09	3.428087e+01	6.225590e+02
1.310000e-06	5.053098e-06	9.583709e-09	3.504538e+01	6.293632e+02
1.320000e-06	5.162073e-06	9.682665e-09	3.580117e+01	6.358371e+02
1.330000e-06	5.269701e-06	9.774629e-09	3.654761e+01	6.420263e+02
1.340000e-06	5.375852e-06	9.861408e-09	3.728381e+01	6.479399e+02
1.350000e-06	5.480436e-06	9.945576e-09	3.800915e+01	6.535637e+02
1.360000e-06	5.583481e-06	1.002678e-08	3.872381e+01	6.588918e+02
1.370000e-06	5.684988e-06	1.010309e-08	3.942781e+01	6.639528e+02
1.380000e-06	5.784936e-06	1.017564e-08	4.012099e+01	6.688109e+02
1.390000e-06	5.883213e-06	1.024691e-08	4.080258e+01	6.735384e+02
1.400000e-06	5.979749e-06	1.031655e-08	4.147210e+01	6.781772e+02
1.410000e-06	6.074592e-06	1.038362e-08	4.212988e+01	6.827136e+02
1.420000e-06	6.167798e-06	1.044763e-08	4.277630e+01	6.870872e+02
1.430000e-06	6.259362e-06	1.050945e-08	4.341134e+01	6.912291e+02
1.440000e-06	6.349122e-06	1.056827e-08	4.403386e+01	6.951085e+02
1.450000e-06	6.436991e-06	1.062245e-08	4.464326e+01	6.987571e+02
1.460000e-06	6.523062e-06	1.067297e-08	4.524021e+01	7.022550e+02
1.470000e-06	6.607397e-06	1.072321e-08	4.582511e+01	7.056859e+02
1.480000e-06	6.689892e-06	1.077545e-08	4.639724e+01	7.090875e+02
1.490000e-06	6.770329e-06	1.082575e-08	4.695510e+01	7.124288e+02
1.500000e-06	6.848745e-06	1.087159e-08	4.749895e+01	7.156293e+02
1.510000e-06	6.925167e-06	1.091444e-08	4.802897e+01	7.186077e+02
1.520000e-06	6.999331e-06	1.095588e-08	4.854333e+01	7.213325e+02
1.530000e-06	7.071314e-06	1.099592e-08	4.904257e+01	7.238421e+02
1.540000e-06	7.141336e-06	1.103255e-08	4.952820e+01	7.262240e+02
1.550000e-06	7.209343e-06	1.106667e-08	4.999986e+01	7.285654e+02
1.560000e-06	7.275158e-06	1.109951e-08	5.045631e+01	7.309066e+02
1.570000e-06	7.338830e-06	1.113172e-08	5.089790e+01	7.332229e+02
1.580000e-06	7.400589e-06	1.116285e-08	5.132623e+01	7.354454e+02
1.590000e-06	7.460407e-06	1.119180e-08	5.174109e+01	7.375040e+02
1.600000e-06	7.518026e-06	1.121884e-08	5.214070e+01	7.393651e+02
1.610000e-06	7.573405e-06	1.124412e-08	5.252478e+01	7.410433e+02
1.620000e-06	7.626518e-06	1.126789e-08	5.289314e+01	7.425827e+02
1.630000e-06	7.677074e-06	1.129175e-08	5.324377e+01	7.440255e+02
1.640000e-06	7.725156e-06	1.131419e-08	5.357724e+01	7.453918e+02
1.650000e-06	7.771138e-06	1.133302e-08	5.389615e+01	7.466813e+02
1.660000e-06	7.815178e-06	1.135042e-08	5.420158e+01	7.478936e+02
1.670000e-06	7.856975e-06	1.136835e-08	5.449146e+01	7.490457e+02
1.680000e-06	7.896450e-06	1.138607e-08	5.476523e+01	7.501698e+02
1.690000e-06	7.933921e-06	1.140234e-08	5.502511e+01	7.512891e+02
1.700000e-06	7.969310e-06	1.141778e-08	5.527055e+01	7.523891e+02
1.710000e-06	8.002374e-06	1.143264e-08	5.549986e+01	7.534087e+02
1.720000e-06	8.033212e-06	1.144709e-08	5.571373e+01	7.542656e+02
1.730000e-06	8.062041e-06	1.145869e-08	5.591368e+01	7.549056e+02
1.740000e-06	8.088611e-06	1.146620e-08	5.609795e+01	7.553462e+02
1.750000e-06	8.112667e-06	1.147238e-08	5.626479e+01	7.556834e+02
1.760000e-06	8.134455e-06	1.147960e-08	5.641590e+01	7.560496e+02
1.770000e-06	8.154148e-06	1.148870e-08	5.655248e+01	7.565414e+02
1.780000e-06	8.171546e-06	1.149847e-08	5.667314e+01	7.571591e+02
1.790000e-06	8.186491e-06	1.150844e-08	5.677679e+01	7.577969e+02
1.800000e-06	8.198955e-06	1.151769e-08	5.686323e+01	7.582951e+02
1.810000e-06	8.208814e-06	1.152361e-08	5.693161e+01	7.585275e+02
1.820000e-06	8.216161e-06	1.152361e-08	5.698257e+01	7.584750e+02
1.830000e-06	8.221310e-06	1.151898e-08	5.701828e+01	7.582393e+02
1.840000e-06	8.224194e-06	1.151515e-08	5.703828e+01	7.579873e+02
1.850000e-06	8.224659e-06	1.151558e-08	5.704150e+01	7.578567e+02
1.860000e-06	8.222865e-06	1.151459e-08	5.702906e+01	7.578782e+02
1.870000e-06	8.218940e-06	1.151188e-08	5.700184e+01	7.579615e+02
1.880000e-06	8.212704e-06	1.151201e-08	5.695859e+01	7.579533e+02
1.890000e-06	8.204139e-06	1.151269e-08	5.689919e+01	7.577315e+02
1.900000e-06	8.193426e-06	1.150943e-08	5.682489e+01	7.572773e+02
1.910000e-06	8.180423e-06	1.150541e-08	5.673471e+01	7.566796e+02
1.920000e-06	8.165115e-06	1.151247e-08	5.662854e+01	7.560693e+02
1.930000e-06	8.147623e-06	1.147556e-08	5.650723e+01	7.555261e+02
1.940000e-06	8.127465e-06	1.141646e-08	5.636742e+01	7.550199e+02
1.950000e-06	8.104025e-06	1.142410e-08	5.620486e+01	7.544285e+02
1.960000e-06	8.077671e-06	1.141053e-08	5.602208e+01	7.536260e+02
1.970000e-06	8.049194e-06	1.139446e-08	5.582458e+01	7.525869e+02
1.980000e-06	8.019045e-06	1.148039e-08	5.561549e+01	7.514398e+02
1.990000e-06	7.987449e-06	1.136266e-08	5.539635e+01	7.504267e+02
2.000000e-06	7.953953e-06	1.132233e-08	5.516404e+01	7.497823e+02
2.010000e-06	7.918414e-06	1.145291e-08	5.491757e+01	7.495977e+02
2.020000e-06	7.880967e-06	1.137940e-08	5.465785e+01	7.497465e+02
2.030000e-06	7.841023e-06	1.147864e-08	5.438083e+01	7.499212e+02
2.040000e-06	7.798767e-06	1.146531e-08	5.408776e+01	7.497656e+02
2.050000e-06	7.754462e-06	1.134494e-08	5.378049e+01	7.490351e+02
2.060000e-06	7.707972e-06	1.145885e-08	5.345806e+01	7.476994e+02
2.070000e-06	7.659525e-06	1.138615e-08	5.312206e+01	7.459346e+02
2.080000e-06	7.608691e-06	1.137915e-08	5.276950e+01	7.440124e+02
2.090000e-06	7.555231e-06	1.136049e-08	5.239873e+01	7.421518e+02
2.100000e-06	7.499500e-06	1.124963e-08	5.201222e+01	7.404146e+02
2.110000e-06	7.441588e-06	1.130280e-08	5.161058e+01	7.386996e+02
2.120000e-06	7.381624e-06	1.122271e-08	5.119470e+01	7.368292e+02
2.130000e-06	7.319409e-06	1.121839e-08	5.076321e+01	7.346712e+02
2.140000e-06	7.254981e-06	1.117521e-08	5.031637e+01	7.322218e+02
2.150000e-06	7.188474e-06	1.113815e-08	4.985512e+01	7.296031e+02
2.160000e-06	7.119702e-06	1.115023e-08	4.937816e+01	7.269815e+02
2.170000e-06	7.048665e-06	1.101912e-08	4.888549e+01	7.244611e+02
2.180000e-06	6.975386e-06	1.103563e-08	4.837727e+01	7.220182e+02
2.190000e-06	6.900078e-06	1.097144e-08	4.785497e+01	7.195151e+02
2.200000e-06	6.822567e-06	1.094373e-08	4.731740e+01	7.167826e+02
2.210000e-06	6.742805e-06	1.092383e-08	4.676422e+01	7.137199e+02
2.220000e-06	6.661170e-06	1.083015e-08	4.619804e+01	7.103510e+02
2.230000e-06	6.577597e-06	1.081093e-08	4.561843e+01	7.068058e+02
2.240000e-06	6.492060e-06	1.072203e-08	4.502519e+01	7.032402e+02
2.250000e-06	6.404532e-06	1.069215e-08	4.441815e+01	6.997432e+02
2.260000e-06	6.315176e-06	1.061650e-08	4.379843e+01	6.962857e+02
2.270000e-06	6.224117e-06	1.057448e-08	4.316689e+01	6.927396e+02
2.280000e-06	6.131352e-06	1.053421e-08	4.252353e+01	6.889501e+02
2.290000e-06	6.036873e-06	1.045615e-08	4.186828e+01	6.848201e+02
2.300000e-06	5.940624e-06	1.039566e-08	4.120075e+01	6.803566e+02
2.310000e-06	5.842862e-06	1.029707e-08	4.052273e+01	6.756578e+02
2.320000e-06	5.743558e-06	1.025063e-08	3.983401e+01	6.708521e+02
2.330000e-06	5.642581e-06	1.017588e-08	3.913369e+01	6.660287e+02
2.340000e-06	5.539913e-06	1.011127e-08	3.842165e+01	6.611955e+02
2.350000e-06	5.435656e-06	1.002998e-08	3.769858e+01	6.562854e+02
2.360000e-06	5.330002e-06	9.952303e-09	3.696583e+01	6.511992e+02
2.370000e-06	5.223015e-06	9.876167e-09	3.622383e+01	6.458565e+02
2.380000e-06	5.114652e-06	9.785931e-09	3.547228e+01	6.402266e+02
2.390000e-06	5.004907e-06	9.700584e-09	3.471116e+01	6.343273e+02
2.400000e-06	4.893686e-06	9.599641e-09	3.393979e+01	6.282006e+02
2.410000e-06	4.780958e-06	9.516982e-09	3.315797e+01	6.218826e+02
2.420000e-06	4.666893e-06	9.422389e-09	3.236689e+01	6.153874e+02
2.430000e-06	4.551421e-06	9.321884e-09	3.156604e+01	6.087066e+02
2.440000e-06	4.434531e-06	9.208250e-09	3.075536e+01	6.018200e+02
2.450000e-06	4.316188e-06	9.101148e-09	2.993460e+01	5.947036e+02
2.460000e-06	4.196388e-06	8.993904e-09	2.910374e+01	5.873331e+02
2.470000e-06	4.075400e-06	8.879804e-09	2.826463e+01	5.796816e+02
2.480000e-06	3.953388e-06	8.758114e-09	2.741843e+01	5.717214e+02
2.490000e-06	3.830194e-06	8.629837e-09	2.656403e+01	5.634322e+02
2.500000e-06	3.705760e-06	8.503512e-09	2.570102e+01	5.548111e+02
2.510000e-06	3.580244e-06	8.368917e-09	2.483051e+01	5.458771e+02
2.520000e-06	3.453641e-06	8.228809e-09	2.395247e+01	5.366608e+02
2.530000e-06	3.325933e-06	8.084459e-09	2.306676e+01	5.271833e+02
2.540000e-06	3.197186e-06	7.941921e-09	2.217384e+01	5.174355e+02
2.550000e-06	3.067624e-06	7.791289e-09	2.127527e+01	5.073721e+02
2.560000e-06	2.937202e-06	7.629654e-09	2.037074e+01	4.969269e+02
2.570000e-06	2.805763e-06	7.457859e-09	1.945916e+01	4.860424e+02
2.580000e-06	2.673480e-06	7.286496e-09	1.854172e+01	4.746970e+02
2.590000e-06	2.540558e-06	7.112992e-09	1.761985e+01	4.629118e+02
2.600000e-06	2.406978e-06	6.930174e-09	1.669342e+01	4.507321e+02
2.610000e-06	2.272656e-06	6.739731e-09	1.576184e+01	4.381952e+02
2.620000e-06	2.137665e-06	6.543062e-09	1.482561e+01	4.253019e+02
2.630000e-06	2.002093e-06	6.341926e-09	1.388537e+01	4.120125e+02
2.640000e-06	1.865926e-06	6.131228e-09	1.294099e+01	3.982673e+02
2.650000e-06	1.729185e-06	5.909910e-09	1.199263e+01	3.840179e+02
2.660000e-06	1.591942e-06	5.682323e-09	1.104080e+01	3.692481e+02
2.670000e-06	1.454336e-06	5.451136e-09	1.008643e+01	3.539693e+02
2.680000e-06	1.316473e-06	5.212808e-09	9.130300e+00	3.381920e+02
2.690000e-06	1.178338e-06	4.964474e-09	8.172275e+00	3.218938e+02
2.700000e-06	1.039918e-06	4.704790e-09	7.212272e+00	3.050056e+02
2.710000e-06	9.012201e-07	4.434486e-09	6.250344e+00	2.874284e+02
2.720000e-06	7.622277e-07	4.153781e-09	5.286373e+00	2.690715e+02
2.730000e-06	6.229836e-07	3.860720e-09	4.320656e+00	2.498885e+02
2.740000e-06	4.836547e-07	3.555509e-09	3.354351e+00	2.298864e+02
2.750000e-06	3.442610e-07	3.240301e-09	2.387596e+00	2.090996e+02
2.760000e-06	2.047818e-07	2.915690e-09	1.420249e+00	1.875419e+02
2.770000e-06	6.530455e-08	2.578119e-09	4.529148e-01	1.651685e+02
2.780000e-06	-7.420857e-08	2.221860e-09	-5.146680e-01	1.418706e+02
2.790000e-06	-2.137578e-07	1.845240e-09	-1.482501e+00	1.175116e+02
2.800000e-06	-3.532500e-07	1.451472e-09	-2.449939e+00	9.198484e+01
2.810000e-06	-4.926457e-07	1.044267e-09	-3.416707e+00	6.526171e+01
2.820000e-06	-6.318184e-07	6.216038e-10	-4.381929e+00	3.740329e+01
2.830000e-06	-7.708153e-07	1.801513e-10	-5.345931e+00	8.533411e+00
2.840000e-06	-9.096554e-07	-2.755369e-10	-6.308847e+00	-2.120634e+01
2.850000e-06	-1.048249e-06	-7.405586e-10	-7.270052e+00	-5.168691e+01
2.860000e-06	-1.186556e-06	-1.214803e-09	-8.229268e+00	-8.278517e+01
2.870000e-06	-1.324521e-06	-1.699087e-09	-9.186114e+00	-1.143434e+02
2.880000e-06	-1.462147e-06	-2.187080e-09	-1.014061e+01	-1.461220e+02
2.890000e-06	-1.599393e-06	-2.670299e-09	-1.109247e+01	-1.777813e+02
2.900000e-06	-1.736246e-06	-3.143779e-09	-1.204161e+01	-2.089126e+02
2.910000e-06	-1.872628e-06	-3.605580e-09	-1.298747e+01	-2.391107e+02
2.920000e-06	-2.008474e-06	-4.051381e-09	-1.392962e+01	-2.680571e+02
2.930000e-06	-2.143788e-06	-4.473180e-09	-1.486808e+01	-2.955710e+02
2.940000e-06	-2.278557e-06	-4.870929e-09	-1.580276e+01	-3.216080e+02
2.950000e-06	-2.412635e-06	-5.248547e-09	-1.673265e+01	-3.462108e+02
