# Temperatura_=_20.0
# Concentracion g/m^3_=_10000.0
# C_Vs_to_Am_M_A/Vsm_=_65563218390.804596
# pendiente_HvsI_1/m_=_3716.3
# ordenada_HvsI_A/m_=_1297.0
# frecuencia_Hz_=_269577.3238484014

Tiempo_(s)	Campo_(V.s)	Magnetizacion_(V.s)	Campo_(kA/m)	Magnetizacion_(A/m)
0.000000e+00	-8.176764e-06	-1.143311e-08	-5.700116e+01	-7.466055e+02
1.000000e-08	-8.174118e-06	-1.144114e-08	-5.698271e+01	-7.467364e+02
2.000000e-08	-8.169248e-06	-1.144278e-08	-5.694877e+01	-7.467239e+02
3.000000e-08	-8.162313e-06	-1.143756e-08	-5.690042e+01	-7.464467e+02
4.000000e-08	-8.153169e-06	-1.142884e-08	-5.683667e+01	-7.459037e+02
5.000000e-08	-8.141610e-06	-1.141864e-08	-5.675609e+01	-7.452271e+02
6.000000e-08	-8.127528e-06	-1.140839e-08	-5.665793e+01	-7.446089e+02
7.000000e-08	-8.110976e-06	-1.138240e-08	-5.654255e+01	-7.441816e+02
8.000000e-08	-8.092185e-06	-1.139418e-08	-5.641155e+01	-7.439236e+02
9.000000e-08	-8.071041e-06	-1.145316e-08	-5.626415e+01	-7.436536e+02
1.000000e-07	-8.047318e-06	-1.142774e-08	-5.609878e+01	-7.431284e+02
1.100000e-07	-8.020963e-06	-1.138103e-08	-5.591505e+01	-7.421938e+02
1.200000e-07	-7.992249e-06	-1.139342e-08	-5.571489e+01	-7.409023e+02
1.300000e-07	-7.961784e-06	-1.130519e-08	-5.550251e+01	-7.395227e+02
1.400000e-07	-7.929753e-06	-1.128932e-08	-5.527922e+01	-7.384237e+02
1.500000e-07	-7.895692e-06	-1.140728e-08	-5.504178e+01	-7.378859e+02
1.600000e-07	-7.859558e-06	-1.124815e-08	-5.478988e+01	-7.379436e+02
1.700000e-07	-7.821419e-06	-1.127076e-08	-5.452401e+01	-7.383430e+02
1.800000e-07	-7.780994e-06	-1.137424e-08	-5.424220e+01	-7.386463e+02
1.900000e-07	-7.738373e-06	-1.123060e-08	-5.394509e+01	-7.384292e+02
2.000000e-07	-7.693675e-06	-1.127321e-08	-5.363349e+01	-7.374704e+02
2.100000e-07	-7.646811e-06	-1.122346e-08	-5.330679e+01	-7.358357e+02
2.200000e-07	-7.597572e-06	-1.115386e-08	-5.296354e+01	-7.338163e+02
2.300000e-07	-7.545755e-06	-1.118651e-08	-5.260232e+01	-7.317637e+02
2.400000e-07	-7.491457e-06	-1.114387e-08	-5.222381e+01	-7.299112e+02
2.500000e-07	-7.435019e-06	-1.112392e-08	-5.183037e+01	-7.282776e+02
2.600000e-07	-7.376399e-06	-1.108041e-08	-5.142173e+01	-7.266954e+02
2.700000e-07	-7.315604e-06	-1.105861e-08	-5.099791e+01	-7.249346e+02
2.800000e-07	-7.252709e-06	-1.103084e-08	-5.055947e+01	-7.228438e+02
2.900000e-07	-7.187672e-06	-1.098520e-08	-5.010609e+01	-7.204277e+02
3.000000e-07	-7.120494e-06	-1.095903e-08	-4.963778e+01	-7.178250e+02
3.100000e-07	-7.051143e-06	-1.088334e-08	-4.915433e+01	-7.152101e+02
3.200000e-07	-6.979714e-06	-1.088489e-08	-4.865639e+01	-7.126851e+02
3.300000e-07	-6.906195e-06	-1.083946e-08	-4.814388e+01	-7.102269e+02
3.400000e-07	-6.830420e-06	-1.076917e-08	-4.761564e+01	-7.077144e+02
3.500000e-07	-6.752347e-06	-1.075096e-08	-4.707138e+01	-7.050114e+02
3.600000e-07	-6.672075e-06	-1.069496e-08	-4.651180e+01	-7.020490e+02
3.700000e-07	-6.589722e-06	-1.066575e-08	-4.593771e+01	-6.988560e+02
3.800000e-07	-6.505537e-06	-1.061188e-08	-4.535084e+01	-6.955243e+02
3.900000e-07	-6.419686e-06	-1.055063e-08	-4.475237e+01	-6.921381e+02
4.000000e-07	-6.332144e-06	-1.049034e-08	-4.414210e+01	-6.887143e+02
4.100000e-07	-6.242889e-06	-1.044021e-08	-4.351990e+01	-6.851945e+02
4.200000e-07	-6.151815e-06	-1.039521e-08	-4.288501e+01	-6.814877e+02
4.300000e-07	-6.058914e-06	-1.032019e-08	-4.223738e+01	-6.775346e+02
4.400000e-07	-5.964284e-06	-1.026102e-08	-4.157771e+01	-6.733478e+02
4.500000e-07	-5.867959e-06	-1.019124e-08	-4.090621e+01	-6.690013e+02
4.600000e-07	-5.770016e-06	-1.012980e-08	-4.022344e+01	-6.645791e+02
4.700000e-07	-5.670467e-06	-1.005911e-08	-3.952948e+01	-6.601159e+02
4.800000e-07	-5.569373e-06	-9.981672e-09	-3.882474e+01	-6.555708e+02
4.900000e-07	-5.466775e-06	-9.911282e-09	-3.810952e+01	-6.508517e+02
5.000000e-07	-5.362631e-06	-9.836647e-09	-3.738352e+01	-6.458719e+02
5.100000e-07	-5.257065e-06	-9.757697e-09	-3.664760e+01	-6.406043e+02
5.200000e-07	-5.150079e-06	-9.662086e-09	-3.590179e+01	-6.350952e+02
5.300000e-07	-5.041625e-06	-9.575662e-09	-3.514575e+01	-6.294305e+02
5.400000e-07	-4.931778e-06	-9.491236e-09	-3.437999e+01	-6.236752e+02
5.500000e-07	-4.820574e-06	-9.407425e-09	-3.360478e+01	-6.178261e+02
5.600000e-07	-4.708021e-06	-9.310860e-09	-3.282015e+01	-6.118085e+02
5.700000e-07	-4.594058e-06	-9.206242e-09	-3.202570e+01	-6.055178e+02
5.800000e-07	-4.478689e-06	-9.105122e-09	-3.122145e+01	-5.988816e+02
5.900000e-07	-4.361978e-06	-9.003962e-09	-3.040785e+01	-5.919003e+02
6.000000e-07	-4.243916e-06	-8.894610e-09	-2.958483e+01	-5.846438e+02
6.100000e-07	-4.124541e-06	-8.773348e-09	-2.875265e+01	-5.772029e+02
6.200000e-07	-4.003924e-06	-8.658972e-09	-2.791181e+01	-5.696301e+02
6.300000e-07	-3.882129e-06	-8.544583e-09	-2.706277e+01	-5.619024e+02
6.400000e-07	-3.759193e-06	-8.422447e-09	-2.620576e+01	-5.539314e+02
6.500000e-07	-3.635043e-06	-8.286074e-09	-2.534030e+01	-5.456119e+02
6.600000e-07	-3.509780e-06	-8.145533e-09	-2.446708e+01	-5.368782e+02
6.700000e-07	-3.383516e-06	-8.010324e-09	-2.358688e+01	-5.277342e+02
6.800000e-07	-3.256293e-06	-7.873940e-09	-2.270000e+01	-5.182400e+02
6.900000e-07	-3.128190e-06	-7.726291e-09	-2.180697e+01	-5.084653e+02
7.000000e-07	-2.999081e-06	-7.567857e-09	-2.090694e+01	-4.984404e+02
7.100000e-07	-2.868987e-06	-7.408094e-09	-2.000004e+01	-4.881339e+02
7.200000e-07	-2.738094e-06	-7.244135e-09	-1.908757e+01	-4.774709e+02
7.300000e-07	-2.606379e-06	-7.071763e-09	-1.816937e+01	-4.663771e+02
7.400000e-07	-2.473791e-06	-6.889718e-09	-1.724508e+01	-4.548198e+02
7.500000e-07	-2.340443e-06	-6.706827e-09	-1.631550e+01	-4.428224e+02
7.600000e-07	-2.206412e-06	-6.522162e-09	-1.538115e+01	-4.304417e+02
7.700000e-07	-2.071788e-06	-6.330859e-09	-1.444267e+01	-4.177255e+02
7.800000e-07	-1.936631e-06	-6.130555e-09	-1.350048e+01	-4.046766e+02
7.900000e-07	-1.800995e-06	-5.923136e-09	-1.255494e+01	-3.912432e+02
8.000000e-07	-1.664923e-06	-5.712985e-09	-1.160637e+01	-3.773413e+02
8.100000e-07	-1.528374e-06	-5.493379e-09	-1.065447e+01	-3.628920e+02
8.200000e-07	-1.391437e-06	-5.261190e-09	-9.699864e+00	-3.478520e+02
8.300000e-07	-1.254195e-06	-5.018512e-09	-8.743136e+00	-3.322191e+02
8.400000e-07	-1.116590e-06	-4.770329e-09	-7.783877e+00	-3.160133e+02
8.500000e-07	-9.786799e-07	-4.516524e-09	-6.822490e+00	-2.992463e+02
8.600000e-07	-8.405622e-07	-4.252700e-09	-5.859656e+00	-2.818977e+02
8.700000e-07	-7.022763e-07	-3.976661e-09	-4.895649e+00	-2.639118e+02
8.800000e-07	-5.638858e-07	-3.691471e-09	-3.930913e+00	-2.452112e+02
8.900000e-07	-4.253717e-07	-3.398456e-09	-2.965315e+00	-2.257183e+02
9.000000e-07	-2.867419e-07	-3.089191e-09	-1.998911e+00	-2.053715e+02
9.100000e-07	-1.480464e-07	-2.761208e-09	-1.032049e+00	-1.841288e+02
9.200000e-07	-9.357597e-09	-2.417377e-09	-6.523288e-02	-1.619631e+02
9.300000e-07	1.293134e-07	-2.062510e-09	9.014587e-01	-1.388543e+02
9.400000e-07	2.679894e-07	-1.697266e-09	1.868185e+00	-1.147856e+02
9.500000e-07	4.066263e-07	-1.317587e-09	2.834638e+00	-8.974399e+01
9.600000e-07	5.451386e-07	-9.226351e-10	3.800224e+00	-6.372222e+01
9.700000e-07	6.835045e-07	-5.141711e-10	4.764788e+00	-3.672052e+01
9.800000e-07	8.217035e-07	-9.201031e-11	5.728189e+00	-8.750042e+00
9.900000e-07	9.597256e-07	3.486953e-10	6.690357e+00	2.015647e+01
1.000000e-06	1.097545e-06	8.081405e-10	7.651114e+00	4.992367e+01
1.010000e-06	1.235032e-06	1.279128e-09	8.609552e+00	8.040698e+01
1.020000e-06	1.372169e-06	1.751562e-09	9.565550e+00	1.113731e+02
1.030000e-06	1.508946e-06	2.221881e-09	1.051904e+01	1.425026e+02
1.040000e-06	1.645303e-06	2.689635e-09	1.146960e+01	1.734231e+02
1.050000e-06	1.781252e-06	3.149918e-09	1.241731e+01	2.037636e+02
1.060000e-06	1.916784e-06	3.595996e-09	1.336212e+01	2.332134e+02
1.070000e-06	2.051784e-06	4.024715e-09	1.430322e+01	2.615575e+02
1.080000e-06	2.186114e-06	4.437412e-09	1.523965e+01	2.886787e+02
1.090000e-06	2.319768e-06	4.831476e-09	1.617137e+01	3.145266e+02
1.100000e-06	2.452810e-06	5.202290e-09	1.709882e+01	3.390763e+02
1.110000e-06	2.585234e-06	5.551686e-09	1.802196e+01	3.622997e+02
1.120000e-06	2.716871e-06	5.883254e-09	1.893962e+01	3.841641e+02
1.130000e-06	2.847639e-06	6.194964e-09	1.985122e+01	4.046547e+02
1.140000e-06	2.977532e-06	6.485046e-09	2.075672e+01	4.238010e+02
1.150000e-06	3.106484e-06	6.754199e-09	2.165565e+01	4.416867e+02
1.160000e-06	3.234482e-06	7.005898e-09	2.254794e+01	4.584326e+02
1.170000e-06	3.361489e-06	7.241820e-09	2.343333e+01	4.741615e+02
1.180000e-06	3.487520e-06	7.464902e-09	2.431190e+01	4.889648e+02
1.190000e-06	3.612658e-06	7.676310e-09	2.518426e+01	5.028917e+02
1.200000e-06	3.736844e-06	7.873382e-09	2.604997e+01	5.159654e+02
1.210000e-06	3.859893e-06	8.057029e-09	2.690776e+01	5.282154e+02
1.220000e-06	3.981662e-06	8.229039e-09	2.775662e+01	5.397027e+02
1.230000e-06	4.102165e-06	8.391801e-09	2.859667e+01	5.505212e+02
1.240000e-06	4.221472e-06	8.547181e-09	2.942837e+01	5.607730e+02
1.250000e-06	4.339570e-06	8.695707e-09	3.025164e+01	5.705338e+02
1.260000e-06	4.456396e-06	8.837299e-09	3.106605e+01	5.798310e+02
1.270000e-06	4.571859e-06	8.972964e-09	3.187095e+01	5.886487e+02
1.280000e-06	4.685849e-06	9.100774e-09	3.266559e+01	5.969576e+02
1.290000e-06	4.798354e-06	9.218166e-09	3.344988e+01	6.047501e+02
1.300000e-06	4.909441e-06	9.327887e-09	3.422428e+01	6.120594e+02
1.310000e-06	5.019221e-06	9.429898e-09	3.498957e+01	6.189515e+02
1.320000e-06	5.127778e-06	9.526228e-09	3.574633e+01	6.254971e+02
1.330000e-06	5.234935e-06	9.620349e-09	3.649333e+01	6.317431e+02
1.340000e-06	5.340596e-06	9.710881e-09	3.722990e+01	6.377037e+02
1.350000e-06	5.444743e-06	9.797928e-09	3.795593e+01	6.433747e+02
1.360000e-06	5.547386e-06	9.881572e-09	3.867146e+01	6.487617e+02
1.370000e-06	5.648566e-06	9.960315e-09	3.937680e+01	6.538982e+02
1.380000e-06	5.748149e-06	1.003316e-08	4.007101e+01	6.588405e+02
1.390000e-06	5.846008e-06	1.010162e-08	4.075319e+01	6.636412e+02
1.400000e-06	5.942091e-06	1.016934e-08	4.142300e+01	6.683184e+02
1.410000e-06	6.036490e-06	1.023744e-08	4.208107e+01	6.728455e+02
1.420000e-06	6.129392e-06	1.030219e-08	4.272870e+01	6.771690e+02
1.430000e-06	6.220691e-06	1.036367e-08	4.336515e+01	6.812485e+02
1.440000e-06	6.310126e-06	1.042274e-08	4.398861e+01	6.850908e+02
1.450000e-06	6.397667e-06	1.047776e-08	4.459887e+01	6.887543e+02
1.460000e-06	6.483441e-06	1.052889e-08	4.519681e+01	6.923194e+02
1.470000e-06	6.567465e-06	1.057838e-08	4.578255e+01	6.958379e+02
1.480000e-06	6.649602e-06	1.062841e-08	4.635514e+01	6.992970e+02
1.490000e-06	6.729749e-06	1.067718e-08	4.691385e+01	7.026206e+02
1.500000e-06	6.807910e-06	1.072226e-08	4.745872e+01	7.057126e+02
1.510000e-06	6.884071e-06	1.076382e-08	4.798965e+01	7.085174e+02
1.520000e-06	6.958052e-06	1.080326e-08	4.850538e+01	7.110617e+02
1.530000e-06	7.029845e-06	1.084109e-08	4.900585e+01	7.134489e+02
1.540000e-06	7.099618e-06	1.087780e-08	4.949225e+01	7.158069e+02
1.550000e-06	7.167397e-06	1.091203e-08	4.996475e+01	7.182183e+02
1.560000e-06	7.233033e-06	1.094490e-08	5.042230e+01	7.206735e+02
1.570000e-06	7.296496e-06	1.097863e-08	5.086471e+01	7.230757e+02
1.580000e-06	7.358015e-06	1.101156e-08	5.129356e+01	7.252950e+02
1.590000e-06	7.417616e-06	1.104086e-08	5.170905e+01	7.272409e+02
1.600000e-06	7.475078e-06	1.106537e-08	5.210963e+01	7.289111e+02
1.610000e-06	7.530357e-06	1.108750e-08	5.249499e+01	7.303884e+02
1.620000e-06	7.583420e-06	1.110876e-08	5.286489e+01	7.317914e+02
1.630000e-06	7.633896e-06	1.112956e-08	5.321677e+01	7.332092e+02
1.640000e-06	7.681862e-06	1.115006e-08	5.355114e+01	7.346589e+02
1.650000e-06	7.727789e-06	1.117058e-08	5.387130e+01	7.360896e+02
1.660000e-06	7.771785e-06	1.119126e-08	5.417800e+01	7.374252e+02
1.670000e-06	7.813608e-06	1.121009e-08	5.446956e+01	7.386150e+02
1.680000e-06	7.853148e-06	1.122672e-08	5.474519e+01	7.396612e+02
1.690000e-06	7.890609e-06	1.124191e-08	5.500634e+01	7.406061e+02
1.700000e-06	7.925936e-06	1.125509e-08	5.525261e+01	7.414942e+02
1.710000e-06	7.958954e-06	1.126585e-08	5.548278e+01	7.423381e+02
1.720000e-06	7.989791e-06	1.127525e-08	5.569775e+01	7.431124e+02
1.730000e-06	8.018657e-06	1.128495e-08	5.589898e+01	7.437808e+02
1.740000e-06	8.045226e-06	1.129587e-08	5.608419e+01	7.443331e+02
1.750000e-06	8.069266e-06	1.130630e-08	5.625178e+01	7.448042e+02
1.760000e-06	8.091084e-06	1.131465e-08	5.640388e+01	7.452568e+02
1.770000e-06	8.110869e-06	1.132169e-08	5.654180e+01	7.457369e+02
1.780000e-06	8.128408e-06	1.132897e-08	5.666406e+01	7.462340e+02
1.790000e-06	8.143486e-06	1.133554e-08	5.676918e+01	7.466766e+02
1.800000e-06	8.156111e-06	1.133967e-08	5.685718e+01	7.469714e+02
1.810000e-06	8.166110e-06	1.134119e-08	5.692689e+01	7.470667e+02
1.820000e-06	8.173608e-06	1.134107e-08	5.697916e+01	7.469953e+02
1.830000e-06	8.178928e-06	1.134159e-08	5.701624e+01	7.468668e+02
1.840000e-06	8.181971e-06	1.134172e-08	5.703746e+01	7.468059e+02
1.850000e-06	8.182551e-06	1.134321e-08	5.704150e+01	7.468725e+02
1.860000e-06	8.180830e-06	1.134036e-08	5.702950e+01	7.470140e+02
1.870000e-06	8.177082e-06	1.133616e-08	5.700338e+01	7.470871e+02
1.880000e-06	8.171078e-06	1.133571e-08	5.696152e+01	7.469400e+02
1.890000e-06	8.162720e-06	1.133336e-08	5.690326e+01	7.465097e+02
1.900000e-06	8.152198e-06	1.132669e-08	5.682991e+01	7.458716e+02
1.910000e-06	8.139383e-06	1.132385e-08	5.674057e+01	7.452038e+02
1.920000e-06	8.124261e-06	1.134414e-08	5.663515e+01	7.446811e+02
1.930000e-06	8.106975e-06	1.129168e-08	5.651466e+01	7.443596e+02
1.940000e-06	8.087113e-06	1.122276e-08	5.637619e+01	7.441249e+02
1.950000e-06	8.064006e-06	1.125070e-08	5.621511e+01	7.437448e+02
1.960000e-06	8.037911e-06	1.124257e-08	5.603320e+01	7.430056e+02
1.970000e-06	8.009679e-06	1.125378e-08	5.583639e+01	7.418560e+02
1.980000e-06	7.979943e-06	1.132195e-08	5.562910e+01	7.404732e+02
1.990000e-06	7.948799e-06	1.113616e-08	5.541199e+01	7.392009e+02
2.000000e-06	7.915609e-06	1.117389e-08	5.518062e+01	7.383842e+02
2.010000e-06	7.880342e-06	1.128463e-08	5.493477e+01	7.381840e+02
2.020000e-06	7.843209e-06	1.115036e-08	5.467591e+01	7.384741e+02
2.030000e-06	7.803597e-06	1.132294e-08	5.439977e+01	7.388800e+02
2.040000e-06	7.761721e-06	1.126999e-08	5.410785e+01	7.389447e+02
2.050000e-06	7.717905e-06	1.117654e-08	5.380240e+01	7.383353e+02
2.060000e-06	7.671819e-06	1.131914e-08	5.348113e+01	7.369849e+02
2.070000e-06	7.623680e-06	1.117523e-08	5.314555e+01	7.350973e+02
2.080000e-06	7.573281e-06	1.120192e-08	5.279421e+01	7.330204e+02
2.090000e-06	7.520313e-06	1.117899e-08	5.242497e+01	7.310602e+02
2.100000e-06	7.465019e-06	1.108311e-08	5.203951e+01	7.293379e+02
2.110000e-06	7.407522e-06	1.116741e-08	5.163869e+01	7.277605e+02
2.120000e-06	7.348025e-06	1.103750e-08	5.122392e+01	7.261081e+02
2.130000e-06	7.286296e-06	1.106185e-08	5.079361e+01	7.241781e+02
2.140000e-06	7.222342e-06	1.100231e-08	5.034777e+01	7.219003e+02
2.150000e-06	7.156323e-06	1.096947e-08	4.988755e+01	7.193610e+02
2.160000e-06	7.088179e-06	1.098844e-08	4.941251e+01	7.167325e+02
2.170000e-06	7.017831e-06	1.085457e-08	4.892210e+01	7.141614e+02
2.180000e-06	6.945120e-06	1.091525e-08	4.841523e+01	7.116833e+02
2.190000e-06	6.870299e-06	1.081992e-08	4.789364e+01	7.092140e+02
2.200000e-06	6.793342e-06	1.079779e-08	4.735717e+01	7.066125e+02
2.210000e-06	6.714139e-06	1.076144e-08	4.680503e+01	7.037713e+02
2.220000e-06	6.632939e-06	1.066364e-08	4.623898e+01	7.006749e+02
2.230000e-06	6.549849e-06	1.067318e-08	4.565975e+01	6.973942e+02
2.240000e-06	6.464905e-06	1.058115e-08	4.506759e+01	6.940260e+02
2.250000e-06	6.377953e-06	1.057278e-08	4.446144e+01	6.906227e+02
2.260000e-06	6.289175e-06	1.048472e-08	4.384256e+01	6.871577e+02
2.270000e-06	6.198803e-06	1.044227e-08	4.321257e+01	6.835474e+02
2.280000e-06	6.106653e-06	1.039166e-08	4.257018e+01	6.797104e+02
2.290000e-06	6.012714e-06	1.031164e-08	4.191532e+01	6.756244e+02
2.300000e-06	5.917038e-06	1.026593e-08	4.124835e+01	6.713398e+02
2.310000e-06	5.819794e-06	1.017237e-08	4.057045e+01	6.669440e+02
2.320000e-06	5.721042e-06	1.013925e-08	3.988204e+01	6.625002e+02
2.330000e-06	5.620733e-06	1.005504e-08	3.918278e+01	6.580021e+02
2.340000e-06	5.518821e-06	9.988018e-09	3.847233e+01	6.533754e+02
2.350000e-06	5.415286e-06	9.902179e-09	3.775058e+01	6.485230e+02
2.360000e-06	5.310188e-06	9.833572e-09	3.701793e+01	6.433857e+02
2.370000e-06	5.203742e-06	9.768786e-09	3.627588e+01	6.379779e+02
2.380000e-06	5.096001e-06	9.681992e-09	3.552481e+01	6.323738e+02
2.390000e-06	4.986927e-06	9.596169e-09	3.476444e+01	6.266557e+02
2.400000e-06	4.876477e-06	9.492238e-09	3.399448e+01	6.208551e+02
2.410000e-06	4.764531e-06	9.411595e-09	3.321409e+01	6.149273e+02
2.420000e-06	4.651196e-06	9.314582e-09	3.242402e+01	6.087742e+02
2.430000e-06	4.536519e-06	9.219355e-09	3.162459e+01	6.023012e+02
2.440000e-06	4.420429e-06	9.115294e-09	3.081532e+01	5.954730e+02
2.450000e-06	4.302886e-06	9.016777e-09	2.999591e+01	5.883312e+02
2.460000e-06	4.183944e-06	8.907359e-09	2.916675e+01	5.809648e+02
2.470000e-06	4.063675e-06	8.788790e-09	2.832835e+01	5.734505e+02
2.480000e-06	3.942196e-06	8.667013e-09	2.748150e+01	5.658016e+02
2.490000e-06	3.819556e-06	8.549060e-09	2.662656e+01	5.579556e+02
2.500000e-06	3.695789e-06	8.434482e-09	2.576377e+01	5.498076e+02
2.510000e-06	3.570992e-06	8.307316e-09	2.489380e+01	5.412677e+02
2.520000e-06	3.445136e-06	8.170391e-09	2.401644e+01	5.323070e+02
2.530000e-06	3.318189e-06	8.026525e-09	2.313148e+01	5.229640e+02
2.540000e-06	3.190145e-06	7.882168e-09	2.223886e+01	5.133109e+02
2.550000e-06	3.061110e-06	7.729052e-09	2.133935e+01	5.034009e+02
2.560000e-06	2.931235e-06	7.572961e-09	2.043397e+01	4.932310e+02
2.570000e-06	2.800521e-06	7.413310e-09	1.952275e+01	4.827419e+02
2.580000e-06	2.669011e-06	7.256270e-09	1.860598e+01	4.718529e+02
2.590000e-06	2.536767e-06	7.087103e-09	1.768409e+01	4.605084e+02
2.600000e-06	2.403796e-06	6.904061e-09	1.675714e+01	4.487069e+02
2.610000e-06	2.270132e-06	6.714078e-09	1.582535e+01	4.364944e+02
2.620000e-06	2.135850e-06	6.522694e-09	1.488926e+01	4.239284e+02
2.630000e-06	2.001033e-06	6.328544e-09	1.394943e+01	4.110354e+02
2.640000e-06	1.865637e-06	6.125394e-09	1.300557e+01	3.977875e+02
2.650000e-06	1.729690e-06	5.914652e-09	1.205787e+01	3.841114e+02
2.660000e-06	1.593275e-06	5.698166e-09	1.110691e+01	3.699211e+02
2.670000e-06	1.456436e-06	5.475718e-09	1.015298e+01	3.551544e+02
2.680000e-06	1.319205e-06	5.242457e-09	9.196328e+00	3.397915e+02
2.690000e-06	1.181659e-06	4.999345e-09	8.237484e+00	3.238457e+02
2.700000e-06	1.043893e-06	4.746739e-09	7.277099e+00	3.073362e+02
2.710000e-06	9.059324e-07	4.486926e-09	6.315359e+00	2.902592e+02
2.720000e-06	7.677671e-07	4.216544e-09	5.352192e+00	2.725742e+02
2.730000e-06	6.294353e-07	3.932212e-09	4.387866e+00	2.542113e+02
2.740000e-06	4.909728e-07	3.637296e-09	3.422628e+00	2.350905e+02
2.750000e-06	3.523864e-07	3.334790e-09	2.456526e+00	2.151415e+02
2.760000e-06	2.137455e-07	3.022462e-09	1.490045e+00	1.943135e+02
2.770000e-06	7.511797e-08	2.696407e-09	5.236560e-01	1.725737e+02
2.780000e-06	-6.355960e-08	2.351905e-09	-4.430813e-01	1.498995e+02
2.790000e-06	-2.022747e-07	1.988674e-09	-1.410080e+00	1.262727e+02
2.800000e-06	-3.408899e-07	1.609754e-09	-2.376383e+00	1.016784e+02
2.810000e-06	-4.794447e-07	1.216937e-09	-3.342264e+00	7.610636e+01
2.820000e-06	-6.179103e-07	8.101011e-10	-4.307524e+00	4.955327e+01
2.830000e-06	-7.561885e-07	3.891613e-10	-5.271477e+00	2.202448e+01
2.840000e-06	-8.942702e-07	-4.424065e-11	-6.234060e+00	-6.459131e+00
2.850000e-06	-1.032150e-06	-4.920161e-10	-7.195239e+00	-3.584495e+01
2.860000e-06	-1.169744e-06	-9.528233e-10	-8.154421e+00	-6.602333e+01
2.870000e-06	-1.307054e-06	-1.422798e-09	-9.111626e+00	-9.680294e+01
2.880000e-06	-1.444095e-06	-1.896583e-09	-1.006695e+01	-1.279017e+02
2.890000e-06	-1.580752e-06	-2.369766e-09	-1.101960e+01	-1.589655e+02
2.900000e-06	-1.716969e-06	-2.839422e-09	-1.196919e+01	-1.896151e+02
2.910000e-06	-1.852732e-06	-3.299866e-09	-1.291561e+01	-2.195060e+02
2.920000e-06	-1.987981e-06	-3.745932e-09	-1.385844e+01	-2.483769e+02
2.930000e-06	-2.122591e-06	-4.172208e-09	-1.479683e+01	-2.760679e+02
2.940000e-06	-2.256519e-06	-4.577587e-09	-1.573045e+01	-3.025030e+02
2.950000e-06	-2.389795e-06	-4.962967e-09	-1.665954e+01	-3.276506e+02
