# Temperatura_=_20.0
# Concentracion g/m^3_=_10000.0
# C_Vs_to_Am_M_A/Vsm_=_65563218390.804596
# pendiente_HvsI_1/m_=_3716.3
# ordenada_HvsI_A/m_=_1297.0
# frecuencia_Hz_=_269580.986204471

Tiempo_(s)	Campo_(V.s)	Magnetizacion_(V.s)	Campo_(kA/m)	Magnetizacion_(A/m)
0.000000e+00	-8.188990e-06	-1.152418e-08	-5.699697e+01	-7.523383e+02
1.000000e-08	-8.185884e-06	-1.152321e-08	-5.697535e+01	-7.522534e+02
2.000000e-08	-8.180563e-06	-1.151933e-08	-5.693831e+01	-7.520764e+02
3.000000e-08	-8.173186e-06	-1.151516e-08	-5.688696e+01	-7.517840e+02
4.000000e-08	-8.163607e-06	-1.151195e-08	-5.682029e+01	-7.513997e+02
5.000000e-08	-8.151530e-06	-1.150730e-08	-5.673624e+01	-7.509810e+02
6.000000e-08	-8.136930e-06	-1.150306e-08	-5.663462e+01	-7.505787e+02
7.000000e-08	-8.119908e-06	-1.149742e-08	-5.651614e+01	-7.501923e+02
8.000000e-08	-8.100590e-06	-1.148248e-08	-5.638168e+01	-7.497537e+02
9.000000e-08	-8.078815e-06	-1.148811e-08	-5.623013e+01	-7.491570e+02
1.000000e-07	-8.054357e-06	-1.148682e-08	-5.605989e+01	-7.483239e+02
1.100000e-07	-8.027364e-06	-1.146079e-08	-5.587201e+01	-7.472695e+02
1.200000e-07	-7.998238e-06	-1.145209e-08	-5.566929e+01	-7.461273e+02
1.300000e-07	-7.967409e-06	-1.144578e-08	-5.545472e+01	-7.451107e+02
1.400000e-07	-7.934883e-06	-1.138738e-08	-5.522833e+01	-7.444204e+02
1.500000e-07	-7.900332e-06	-1.141048e-08	-5.498785e+01	-7.441432e+02
1.600000e-07	-7.863850e-06	-1.140084e-08	-5.473393e+01	-7.441929e+02
1.700000e-07	-7.825358e-06	-1.134526e-08	-5.446601e+01	-7.443298e+02
1.800000e-07	-7.784441e-06	-1.138495e-08	-5.418122e+01	-7.442520e+02
1.900000e-07	-7.741290e-06	-1.134253e-08	-5.388089e+01	-7.437170e+02
2.000000e-07	-7.696026e-06	-1.131926e-08	-5.356584e+01	-7.426352e+02
2.100000e-07	-7.648601e-06	-1.131389e-08	-5.323575e+01	-7.410889e+02
2.200000e-07	-7.598822e-06	-1.126324e-08	-5.288928e+01	-7.392740e+02
2.300000e-07	-7.546436e-06	-1.124871e-08	-5.252467e+01	-7.373958e+02
2.400000e-07	-7.491714e-06	-1.122006e-08	-5.214379e+01	-7.355754e+02
2.500000e-07	-7.434856e-06	-1.118842e-08	-5.174805e+01	-7.338111e+02
2.600000e-07	-7.375742e-06	-1.116631e-08	-5.133660e+01	-7.320081e+02
2.700000e-07	-7.314420e-06	-1.113522e-08	-5.090979e+01	-7.300517e+02
2.800000e-07	-7.251080e-06	-1.110691e-08	-5.046893e+01	-7.278777e+02
2.900000e-07	-7.185611e-06	-1.106037e-08	-5.001325e+01	-7.255042e+02
3.000000e-07	-7.117894e-06	-1.102823e-08	-4.954193e+01	-7.230088e+02
3.100000e-07	-7.047990e-06	-1.097361e-08	-4.905538e+01	-7.204737e+02
3.200000e-07	-6.976030e-06	-1.093559e-08	-4.855453e+01	-7.179342e+02
3.300000e-07	-6.901909e-06	-1.091169e-08	-4.803863e+01	-7.153600e+02
3.400000e-07	-6.825452e-06	-1.085918e-08	-4.750647e+01	-7.126786e+02
3.500000e-07	-6.746757e-06	-1.082614e-08	-4.695874e+01	-7.098208e+02
3.600000e-07	-6.665881e-06	-1.077397e-08	-4.639583e+01	-7.067603e+02
3.700000e-07	-6.583027e-06	-1.072433e-08	-4.581915e+01	-7.035215e+02
3.800000e-07	-6.498494e-06	-1.067227e-08	-4.523078e+01	-7.001560e+02
3.900000e-07	-6.412204e-06	-1.061577e-08	-4.463019e+01	-6.967037e+02
4.000000e-07	-6.324148e-06	-1.055926e-08	-4.401730e+01	-6.931652e+02
4.100000e-07	-6.234329e-06	-1.050296e-08	-4.339214e+01	-6.895026e+02
4.200000e-07	-6.142632e-06	-1.045332e-08	-4.275392e+01	-6.856654e+02
4.300000e-07	-6.049198e-06	-1.038771e-08	-4.210359e+01	-6.816246e+02
4.400000e-07	-5.954093e-06	-1.032187e-08	-4.144165e+01	-6.773910e+02
4.500000e-07	-5.857359e-06	-1.024980e-08	-4.076836e+01	-6.730070e+02
4.600000e-07	-5.758964e-06	-1.018139e-08	-4.008351e+01	-6.685182e+02
4.700000e-07	-5.658928e-06	-1.011424e-08	-3.938724e+01	-6.639421e+02
4.800000e-07	-5.557350e-06	-1.004093e-08	-3.868024e+01	-6.592554e+02
4.900000e-07	-5.454291e-06	-9.965628e-09	-3.796293e+01	-6.544056e+02
5.000000e-07	-5.349768e-06	-9.887666e-09	-3.723543e+01	-6.493390e+02
5.100000e-07	-5.243728e-06	-9.805056e-09	-3.649737e+01	-6.440281e+02
5.200000e-07	-5.136183e-06	-9.715812e-09	-3.574883e+01	-6.384813e+02
5.300000e-07	-5.027257e-06	-9.630961e-09	-3.499069e+01	-6.327305e+02
5.400000e-07	-4.916985e-06	-9.543234e-09	-3.422317e+01	-6.268068e+02
5.500000e-07	-4.805346e-06	-9.449902e-09	-3.344614e+01	-6.207197e+02
5.600000e-07	-4.692393e-06	-9.348857e-09	-3.265997e+01	-6.144524e+02
5.700000e-07	-4.578018e-06	-9.244067e-09	-3.186390e+01	-6.079730e+02
5.800000e-07	-4.462130e-06	-9.139993e-09	-3.105730e+01	-6.012536e+02
5.900000e-07	-4.344873e-06	-9.036964e-09	-3.024116e+01	-5.942817e+02
6.000000e-07	-4.226357e-06	-8.927604e-09	-2.941627e+01	-5.870588e+02
6.100000e-07	-4.106580e-06	-8.812228e-09	-2.858259e+01	-5.795881e+02
6.200000e-07	-3.985639e-06	-8.696048e-09	-2.774082e+01	-5.718615e+02
6.300000e-07	-3.863542e-06	-8.573813e-09	-2.689101e+01	-5.638567e+02
6.400000e-07	-3.740167e-06	-8.444278e-09	-2.603229e+01	-5.555469e+02
6.500000e-07	-3.615581e-06	-8.306056e-09	-2.516515e+01	-5.469153e+02
6.600000e-07	-3.489973e-06	-8.167441e-09	-2.429089e+01	-5.379629e+02
6.700000e-07	-3.363392e-06	-8.029055e-09	-2.340986e+01	-5.287038e+02
6.800000e-07	-3.235818e-06	-7.886848e-09	-2.252192e+01	-5.191480e+02
6.900000e-07	-3.107240e-06	-7.736731e-09	-2.162699e+01	-5.092849e+02
7.000000e-07	-2.977719e-06	-7.577823e-09	-2.072550e+01	-4.990783e+02
7.100000e-07	-2.847286e-06	-7.413280e-09	-1.981766e+01	-4.884794e+02
7.200000e-07	-2.715893e-06	-7.242165e-09	-1.890314e+01	-4.774506e+02
7.300000e-07	-2.583604e-06	-7.065378e-09	-1.798239e+01	-4.659856e+02
7.400000e-07	-2.450592e-06	-6.885071e-09	-1.705660e+01	-4.541125e+02
7.500000e-07	-2.316972e-06	-6.700148e-09	-1.612657e+01	-4.418751e+02
7.600000e-07	-2.182745e-06	-6.508179e-09	-1.519233e+01	-4.293025e+02
7.700000e-07	-2.047926e-06	-6.308463e-09	-1.425396e+01	-4.163847e+02
7.800000e-07	-1.912517e-06	-6.102597e-09	-1.331149e+01	-4.030674e+02
7.900000e-07	-1.776596e-06	-5.893076e-09	-1.236546e+01	-3.892725e+02
8.000000e-07	-1.640225e-06	-5.676798e-09	-1.141628e+01	-3.749299e+02
8.100000e-07	-1.503375e-06	-5.452357e-09	-1.046378e+01	-3.600060e+02
8.200000e-07	-1.366107e-06	-5.217728e-09	-9.508371e+00	-3.445093e+02
8.300000e-07	-1.228482e-06	-4.972285e-09	-8.550477e+00	-3.284723e+02
8.400000e-07	-1.090584e-06	-4.717166e-09	-7.590675e+00	-3.119187e+02
8.500000e-07	-9.524731e-07	-4.452652e-09	-6.629398e+00	-2.948340e+02
8.600000e-07	-8.141481e-07	-4.180197e-09	-5.666629e+00	-2.771564e+02
8.700000e-07	-6.756698e-07	-3.898711e-09	-4.702793e+00	-2.587907e+02
8.800000e-07	-5.370725e-07	-3.610035e-09	-3.738129e+00	-2.396370e+02
8.900000e-07	-3.983474e-07	-3.309924e-09	-2.772575e+00	-2.196187e+02
9.000000e-07	-2.595050e-07	-2.991195e-09	-1.806205e+00	-1.986962e+02
9.100000e-07	-1.206062e-07	-2.655077e-09	-8.394423e-01	-1.768601e+02
9.200000e-07	1.829156e-08	-2.303313e-09	1.273128e-01	-1.541125e+02
9.300000e-07	1.571881e-07	-1.938518e-09	1.094060e+00	-1.304468e+02
9.400000e-07	2.960315e-07	-1.561482e-09	2.060437e+00	-1.058366e+02
9.500000e-07	4.348017e-07	-1.171406e-09	3.026305e+00	-8.023996e+01
9.600000e-07	5.734672e-07	-7.692555e-10	3.991443e+00	-5.361339e+01
9.700000e-07	7.119849e-07	-3.529448e-10	4.955554e+00	-2.593283e+01
9.800000e-07	8.503365e-07	8.137387e-11	5.918507e+00	2.786350e+00
9.900000e-07	9.884798e-07	5.344760e-10	6.880012e+00	3.247206e+01
1.000000e-06	1.126386e-06	1.002806e-09	7.839863e+00	6.298264e+01
1.010000e-06	1.263989e-06	1.480834e-09	8.797608e+00	9.410078e+01
1.020000e-06	1.401257e-06	1.960797e-09	9.753021e+00	1.255380e+02
1.030000e-06	1.538211e-06	2.437336e-09	1.070624e+01	1.569540e+02
1.040000e-06	1.674784e-06	2.908499e-09	1.165682e+01	1.879897e+02
1.050000e-06	1.810886e-06	3.369586e-09	1.260412e+01	2.183092e+02
1.060000e-06	1.946455e-06	3.814142e-09	1.354771e+01	2.476366e+02
1.070000e-06	2.081423e-06	4.239579e-09	1.448711e+01	2.757769e+02
1.080000e-06	2.215788e-06	4.644800e-09	1.542232e+01	3.026148e+02
1.090000e-06	2.349605e-06	5.029076e-09	1.635371e+01	3.280943e+02
1.100000e-06	2.482848e-06	5.392044e-09	1.728110e+01	3.521928e+02
1.110000e-06	2.615404e-06	5.734308e-09	1.820372e+01	3.749020e+02
1.120000e-06	2.747096e-06	6.057286e-09	1.912032e+01	3.962248e+02
1.130000e-06	2.877866e-06	6.359171e-09	2.003051e+01	4.161841e+02
1.140000e-06	3.007819e-06	6.639944e-09	2.093501e+01	4.348352e+02
1.150000e-06	3.136935e-06	6.902408e-09	2.183368e+01	4.522672e+02
1.160000e-06	3.265056e-06	7.147566e-09	2.272542e+01	4.685915e+02
1.170000e-06	3.392115e-06	7.378752e-09	2.360978e+01	4.839186e+02
1.180000e-06	3.518206e-06	7.597204e-09	2.448740e+01	4.983378e+02
1.190000e-06	3.643364e-06	7.801901e-09	2.535852e+01	5.119088e+02
1.200000e-06	3.767458e-06	7.991845e-09	2.622224e+01	5.246705e+02
1.210000e-06	3.890323e-06	8.169957e-09	2.707741e+01	5.366584e+02
1.220000e-06	4.012010e-06	8.339450e-09	2.792437e+01	5.479208e+02
1.230000e-06	4.132570e-06	8.501235e-09	2.876349e+01	5.585234e+02
1.240000e-06	4.251898e-06	8.654979e-09	2.959404e+01	5.685387e+02
1.250000e-06	4.369967e-06	8.801059e-09	3.041582e+01	5.780298e+02
1.260000e-06	4.486683e-06	8.939819e-09	3.122819e+01	5.870385e+02
1.270000e-06	4.601971e-06	9.070956e-09	3.203061e+01	5.955851e+02
1.280000e-06	4.715833e-06	9.191761e-09	3.282312e+01	6.036798e+02
1.290000e-06	4.828232e-06	9.304353e-09	3.360543e+01	6.113367e+02
1.300000e-06	4.939230e-06	9.413035e-09	3.437800e+01	6.185816e+02
1.310000e-06	5.048989e-06	9.516467e-09	3.514195e+01	6.254470e+02
1.320000e-06	5.157488e-06	9.616595e-09	3.589712e+01	6.319613e+02
1.330000e-06	5.264548e-06	9.711187e-09	3.664228e+01	6.381398e+02
1.340000e-06	5.370103e-06	9.801273e-09	3.737696e+01	6.439879e+02
1.350000e-06	5.474134e-06	9.885707e-09	3.810104e+01	6.495144e+02
1.360000e-06	5.576658e-06	9.964461e-09	3.881463e+01	6.547485e+02
1.370000e-06	5.677692e-06	1.003745e-08	3.951784e+01	6.597460e+02
1.380000e-06	5.777107e-06	1.010634e-08	4.020979e+01	6.645777e+02
1.390000e-06	5.874773e-06	1.017542e-08	4.088957e+01	6.693035e+02
1.400000e-06	5.970689e-06	1.024373e-08	4.155716e+01	6.739451e+02
1.410000e-06	6.064969e-06	1.031216e-08	4.221337e+01	6.784756e+02
1.420000e-06	6.157651e-06	1.037911e-08	4.285845e+01	6.828328e+02
1.430000e-06	6.248632e-06	1.044383e-08	4.349169e+01	6.869532e+02
1.440000e-06	6.337857e-06	1.050337e-08	4.411272e+01	6.908083e+02
1.450000e-06	6.425250e-06	1.055562e-08	4.472099e+01	6.944231e+02
1.460000e-06	6.510811e-06	1.060442e-08	4.531651e+01	6.978670e+02
1.470000e-06	6.594584e-06	1.065213e-08	4.589959e+01	7.012203e+02
1.480000e-06	6.676449e-06	1.070062e-08	4.646939e+01	7.045350e+02
1.490000e-06	6.756308e-06	1.074861e-08	4.702522e+01	7.078106e+02
1.500000e-06	6.834148e-06	1.079483e-08	4.756700e+01	7.109976e+02
1.510000e-06	6.909921e-06	1.084197e-08	4.809439e+01	7.140264e+02
1.520000e-06	6.983556e-06	1.088744e-08	4.860691e+01	7.168440e+02
1.530000e-06	7.055023e-06	1.092845e-08	4.910433e+01	7.194405e+02
1.540000e-06	7.124506e-06	1.096537e-08	4.958795e+01	7.218505e+02
1.550000e-06	7.191964e-06	1.099826e-08	5.005747e+01	7.241331e+02
1.560000e-06	7.257251e-06	1.102920e-08	5.051188e+01	7.263415e+02
1.570000e-06	7.320484e-06	1.105863e-08	5.095199e+01	7.284997e+02
1.580000e-06	7.381766e-06	1.108728e-08	5.137853e+01	7.305965e+02
1.590000e-06	7.441057e-06	1.111653e-08	5.179120e+01	7.325970e+02
1.600000e-06	7.498155e-06	1.114511e-08	5.218862e+01	7.344629e+02
1.610000e-06	7.553046e-06	1.117187e-08	5.257067e+01	7.361691e+02
1.620000e-06	7.605639e-06	1.119542e-08	5.293673e+01	7.377126e+02
1.630000e-06	7.655757e-06	1.121658e-08	5.328556e+01	7.391096e+02
1.640000e-06	7.703502e-06	1.123592e-08	5.361787e+01	7.403896e+02
1.650000e-06	7.749122e-06	1.125314e-08	5.393540e+01	7.415874e+02
1.660000e-06	7.792644e-06	1.126985e-08	5.423832e+01	7.427367e+02
1.670000e-06	7.833939e-06	1.128651e-08	5.452574e+01	7.438632e+02
1.680000e-06	7.873026e-06	1.130313e-08	5.479780e+01	7.449769e+02
1.690000e-06	7.910105e-06	1.131995e-08	5.505587e+01	7.460653e+02
1.700000e-06	7.945141e-06	1.133541e-08	5.529973e+01	7.470945e+02
1.710000e-06	7.977877e-06	1.134890e-08	5.552758e+01	7.480194e+02
1.720000e-06	8.008425e-06	1.136119e-08	5.574019e+01	7.488042e+02
1.730000e-06	8.036907e-06	1.137155e-08	5.593844e+01	7.494416e+02
1.740000e-06	8.063066e-06	1.137980e-08	5.612051e+01	7.499612e+02
1.750000e-06	8.086737e-06	1.138636e-08	5.628526e+01	7.504188e+02
1.760000e-06	8.108199e-06	1.139373e-08	5.643464e+01	7.508702e+02
1.770000e-06	8.127570e-06	1.140358e-08	5.656947e+01	7.513414e+02
1.780000e-06	8.144618e-06	1.141331e-08	5.668812e+01	7.518148e+02
1.790000e-06	8.159247e-06	1.141980e-08	5.678994e+01	7.522380e+02
1.800000e-06	8.171388e-06	1.142311e-08	5.687445e+01	7.525537e+02
1.810000e-06	8.180892e-06	1.142443e-08	5.694060e+01	7.527323e+02
1.820000e-06	8.187933e-06	1.142385e-08	5.698961e+01	7.527891e+02
1.830000e-06	8.192773e-06	1.142246e-08	5.702329e+01	7.527732e+02
1.840000e-06	8.195285e-06	1.142235e-08	5.704078e+01	7.527363e+02
1.850000e-06	8.195389e-06	1.142226e-08	5.704150e+01	7.526994e+02
1.860000e-06	8.193308e-06	1.142280e-08	5.702702e+01	7.526405e+02
1.870000e-06	8.189122e-06	1.142112e-08	5.699788e+01	7.525109e+02
1.880000e-06	8.182632e-06	1.141774e-08	5.695271e+01	7.522714e+02
1.890000e-06	8.173852e-06	1.141483e-08	5.689160e+01	7.519234e+02
1.900000e-06	8.162895e-06	1.141032e-08	5.681534e+01	7.515126e+02
1.910000e-06	8.149573e-06	1.140229e-08	5.672261e+01	7.510990e+02
1.920000e-06	8.133924e-06	1.139048e-08	5.661370e+01	7.507097e+02
1.930000e-06	8.116083e-06	1.138742e-08	5.648952e+01	7.503071e+02
1.940000e-06	8.095479e-06	1.136437e-08	5.634611e+01	7.497960e+02
1.950000e-06	8.071621e-06	1.134639e-08	5.618006e+01	7.490763e+02
1.960000e-06	8.045097e-06	1.134424e-08	5.599544e+01	7.481137e+02
1.970000e-06	8.016600e-06	1.131247e-08	5.579710e+01	7.469884e+02
1.980000e-06	7.986463e-06	1.133819e-08	5.558734e+01	7.458860e+02
1.990000e-06	7.954796e-06	1.131654e-08	5.536693e+01	7.450264e+02
2.000000e-06	7.921107e-06	1.124689e-08	5.513244e+01	7.445596e+02
2.010000e-06	7.885507e-06	1.132105e-08	5.488466e+01	7.444813e+02
2.020000e-06	7.847981e-06	1.134605e-08	5.462348e+01	7.446148e+02
2.030000e-06	7.807886e-06	1.136750e-08	5.434441e+01	7.446718e+02
2.040000e-06	7.765579e-06	1.138638e-08	5.404994e+01	7.443681e+02
2.050000e-06	7.721228e-06	1.130573e-08	5.374125e+01	7.435365e+02
2.060000e-06	7.674682e-06	1.133358e-08	5.341728e+01	7.421835e+02
2.070000e-06	7.626034e-06	1.130970e-08	5.307868e+01	7.404642e+02
2.080000e-06	7.574972e-06	1.127178e-08	5.272328e+01	7.385932e+02
2.090000e-06	7.521390e-06	1.128041e-08	5.235034e+01	7.367390e+02
2.100000e-06	7.465560e-06	1.120767e-08	5.196175e+01	7.349565e+02
2.110000e-06	7.407620e-06	1.120463e-08	5.155848e+01	7.331862e+02
2.120000e-06	7.347619e-06	1.116071e-08	5.114086e+01	7.313124e+02
2.130000e-06	7.285352e-06	1.111671e-08	5.070747e+01	7.292409e+02
2.140000e-06	7.220834e-06	1.110152e-08	5.025841e+01	7.269518e+02
2.150000e-06	7.154239e-06	1.105410e-08	4.979490e+01	7.245008e+02
2.160000e-06	7.085496e-06	1.105901e-08	4.931643e+01	7.219758e+02
2.170000e-06	7.014434e-06	1.099694e-08	4.882183e+01	7.194382e+02
2.180000e-06	6.941113e-06	1.096613e-08	4.831150e+01	7.168873e+02
2.190000e-06	6.865786e-06	1.091455e-08	4.778721e+01	7.142650e+02
2.200000e-06	6.788199e-06	1.085290e-08	4.724719e+01	7.114945e+02
2.210000e-06	6.708436e-06	1.083019e-08	4.669202e+01	7.085266e+02
2.220000e-06	6.626773e-06	1.076339e-08	4.612363e+01	7.053639e+02
2.230000e-06	6.543215e-06	1.073537e-08	4.554205e+01	7.020499e+02
2.240000e-06	6.457693e-06	1.067865e-08	4.494680e+01	6.986346e+02
2.250000e-06	6.370190e-06	1.063505e-08	4.433776e+01	6.951384e+02
2.260000e-06	6.280954e-06	1.057015e-08	4.371666e+01	6.915389e+02
2.270000e-06	6.190032e-06	1.050239e-08	4.308382e+01	6.877873e+02
2.280000e-06	6.097415e-06	1.045227e-08	4.243920e+01	6.838411e+02
2.290000e-06	6.003000e-06	1.038569e-08	4.178205e+01	6.796919e+02
2.300000e-06	5.906846e-06	1.032995e-08	4.111279e+01	6.753706e+02
2.310000e-06	5.809162e-06	1.024936e-08	4.043290e+01	6.709253e+02
2.320000e-06	5.709955e-06	1.019045e-08	3.974240e+01	6.663896e+02
2.330000e-06	5.609175e-06	1.011769e-08	3.904095e+01	6.617589e+02
2.340000e-06	5.506640e-06	1.004452e-08	3.832729e+01	6.569912e+02
2.350000e-06	5.402484e-06	9.968002e-09	3.760234e+01	6.520294e+02
2.360000e-06	5.296970e-06	9.892561e-09	3.686794e+01	6.468316e+02
2.370000e-06	5.190182e-06	9.819006e-09	3.612468e+01	6.413899e+02
2.380000e-06	5.082068e-06	9.730556e-09	3.537218e+01	6.357280e+02
2.390000e-06	4.972551e-06	9.640536e-09	3.460992e+01	6.298807e+02
2.400000e-06	4.861591e-06	9.541278e-09	3.383762e+01	6.238691e+02
2.410000e-06	4.749197e-06	9.450609e-09	3.305534e+01	6.176878e+02
2.420000e-06	4.635409e-06	9.356638e-09	3.226335e+01	6.113098e+02
2.430000e-06	4.520181e-06	9.260484e-09	3.146134e+01	6.047030e+02
2.440000e-06	4.403570e-06	9.156581e-09	3.064970e+01	5.978472e+02
2.450000e-06	4.285493e-06	9.049610e-09	2.982786e+01	5.907387e+02
2.460000e-06	4.166014e-06	8.935929e-09	2.899627e+01	5.833817e+02
2.470000e-06	4.045321e-06	8.818114e-09	2.815622e+01	5.757743e+02
2.480000e-06	3.923485e-06	8.698429e-09	2.730822e+01	5.679004e+02
2.490000e-06	3.800486e-06	8.576628e-09	2.645212e+01	5.597334e+02
2.500000e-06	3.676336e-06	8.453680e-09	2.558801e+01	5.512503e+02
2.510000e-06	3.551098e-06	8.322373e-09	2.471634e+01	5.424436e+02
2.520000e-06	3.424769e-06	8.183134e-09	2.383706e+01	5.333231e+02
2.530000e-06	3.297400e-06	8.037126e-09	2.295055e+01	5.239031e+02
2.540000e-06	3.168997e-06	7.890053e-09	2.205684e+01	5.141839e+02
2.550000e-06	3.039661e-06	7.737319e-09	2.115663e+01	5.041405e+02
2.560000e-06	2.909445e-06	7.579726e-09	2.025030e+01	4.937273e+02
2.570000e-06	2.778337e-06	7.417264e-09	1.933776e+01	4.828985e+02
2.580000e-06	2.646508e-06	7.250571e-09	1.842021e+01	4.716318e+02
2.590000e-06	2.514038e-06	7.074338e-09	1.749819e+01	4.599406e+02
2.600000e-06	2.380802e-06	6.888445e-09	1.657085e+01	4.478649e+02
2.610000e-06	2.246782e-06	6.698154e-09	1.563804e+01	4.354444e+02
2.620000e-06	2.112129e-06	6.504302e-09	1.470083e+01	4.226891e+02
2.630000e-06	1.976918e-06	6.305405e-09	1.375973e+01	4.095638e+02
2.640000e-06	1.841126e-06	6.098484e-09	1.281460e+01	3.959978e+02
2.650000e-06	1.704772e-06	5.881873e-09	1.186555e+01	3.819130e+02
2.660000e-06	1.567988e-06	5.655754e-09	1.091350e+01	3.672569e+02
2.670000e-06	1.430873e-06	5.422953e-09	9.959156e+00	3.520194e+02
2.680000e-06	1.293478e-06	5.184509e-09	9.002858e+00	3.362258e+02
2.690000e-06	1.155859e-06	4.938292e-09	8.045001e+00	3.199079e+02
2.700000e-06	1.017990e-06	4.683086e-09	7.085408e+00	3.030715e+02
2.710000e-06	8.797861e-07	4.419170e-09	6.123483e+00	2.856760e+02
2.720000e-06	7.413087e-07	4.142855e-09	5.159653e+00	2.676386e+02
2.730000e-06	6.026887e-07	3.852552e-09	4.194831e+00	2.488574e+02
2.740000e-06	4.639177e-07	3.549660e-09	3.228957e+00	2.292426e+02
2.750000e-06	3.250830e-07	3.236080e-09	2.262641e+00	2.087372e+02
2.760000e-06	1.862386e-07	2.913576e-09	1.296257e+00	1.873197e+02
2.770000e-06	4.723684e-08	2.580264e-09	3.287776e-01	1.649898e+02
2.780000e-06	-9.186935e-08	2.229998e-09	-6.394285e-01	1.417468e+02
2.790000e-06	-2.309254e-07	1.860827e-09	-1.607286e+00	1.175740e+02
2.800000e-06	-3.699259e-07	1.474396e-09	-2.574757e+00	9.243523e+01
2.810000e-06	-5.087679e-07	1.072858e-09	-3.541123e+00	6.628532e+01
2.820000e-06	-6.474135e-07	6.558814e-10	-4.506124e+00	3.908874e+01
2.830000e-06	-7.858681e-07	2.219081e-10	-5.469795e+00	1.084041e+01
2.840000e-06	-9.241235e-07	-2.267607e-10	-6.432080e+00	-1.841547e+01
2.850000e-06	-1.062172e-06	-6.863741e-10	-7.392924e+00	-4.857038e+01
2.860000e-06	-1.199913e-06	-1.153733e-09	-8.351630e+00	-7.944185e+01
2.870000e-06	-1.337379e-06	-1.628485e-09	-9.308418e+00	-1.107726e+02
2.880000e-06	-1.474565e-06	-2.107969e-09	-1.026326e+01	-1.422427e+02
2.890000e-06	-1.611367e-06	-2.586760e-09	-1.121543e+01	-1.734968e+02
2.900000e-06	-1.747741e-06	-3.058335e-09	-1.216462e+01	-2.041832e+02
2.910000e-06	-1.883657e-06	-3.517260e-09	-1.311062e+01	-2.339946e+02
2.920000e-06	-2.019022e-06	-3.960531e-09	-1.405279e+01	-2.626978e+02
2.930000e-06	-2.153745e-06	-4.382640e-09	-1.499049e+01	-2.901425e+02
2.940000e-06	-2.287778e-06	-4.781192e-09	-1.592338e+01	-3.162489e+02
2.950000e-06	-2.421148e-06	-5.159698e-09	-1.685166e+01	-3.409820e+02
