# Temperatura_=_20.0
# Concentracion g/m^3_=_10000.0
# C_Vs_to_Am_M_A/Vsm_=_65563218390.804596
# pendiente_HvsI_1/m_=_3716.3
# ordenada_HvsI_A/m_=_1297.0
# frecuencia_Hz_=_81116.3631064823

Tiempo_(s)	Campo_(V.s)	Magnetizacion_(V.s)	Campo_(kA/m)	Magnetizacion_(A/m)
0.000000e+00	-8.309387e-07	4.147983e-12	-6.870389e+00	1.194649e-01
1.000000e-08	-8.309208e-07	-2.395445e-12	-6.870241e+00	1.246248e-01
2.000000e-08	-8.308851e-07	-5.355842e-12	-6.869946e+00	1.281866e-01
3.000000e-08	-8.308387e-07	-7.946015e-12	-6.869563e+00	1.298321e-01
4.000000e-08	-8.307963e-07	-5.143588e-12	-6.869212e+00	1.293070e-01
5.000000e-08	-8.307315e-07	-1.057155e-12	-6.868676e+00	1.264415e-01
6.000000e-08	-8.306386e-07	2.403076e-12	-6.867908e+00	1.211666e-01
7.000000e-08	-8.305346e-07	4.511446e-12	-6.867048e+00	1.135240e-01
8.000000e-08	-8.304080e-07	-3.380356e-12	-6.866002e+00	1.036702e-01
9.000000e-08	-8.302641e-07	-1.609438e-11	-6.864811e+00	9.187351e-02
1.000000e-07	-8.301147e-07	-1.790723e-11	-6.863576e+00	7.850460e-02
1.100000e-07	-8.299395e-07	-1.724957e-11	-6.862128e+00	6.402021e-02
1.200000e-07	-8.297338e-07	-2.522292e-11	-6.860427e+00	4.894187e-02
1.300000e-07	-8.295088e-07	-2.700645e-11	-6.858567e+00	3.383014e-02
1.400000e-07	-8.292481e-07	-2.964816e-11	-6.856411e+00	1.925618e-02
1.500000e-07	-8.289419e-07	-2.880668e-11	-6.853879e+00	5.772018e-03
1.600000e-07	-8.286056e-07	-2.753195e-11	-6.851099e+00	-6.118508e-03
1.700000e-07	-8.282418e-07	-3.476350e-11	-6.848091e+00	-1.598664e-02
1.800000e-07	-8.278359e-07	-3.473016e-11	-6.844735e+00	-2.350173e-02
1.900000e-07	-8.274012e-07	-2.737734e-11	-6.841141e+00	-2.844908e-02
2.000000e-07	-8.269517e-07	-1.525641e-11	-6.837424e+00	-3.074163e-02
2.100000e-07	-8.264876e-07	-2.353498e-11	-6.833587e+00	-3.042461e-02
2.200000e-07	-8.260073e-07	-4.321934e-11	-6.829615e+00	-2.767316e-02
2.300000e-07	-8.255057e-07	-5.578319e-11	-6.825468e+00	-2.278274e-02
2.400000e-07	-8.249860e-07	-6.174894e-11	-6.821171e+00	-1.615316e-02
2.500000e-07	-8.244522e-07	-5.533323e-11	-6.816757e+00	-8.267016e-03
2.600000e-07	-8.239086e-07	-4.942771e-11	-6.812262e+00	3.362266e-04
2.700000e-07	-8.233561e-07	-3.838309e-11	-6.807694e+00	9.088845e-03
2.800000e-07	-8.227853e-07	-3.308858e-11	-6.802975e+00	1.742468e-02
2.900000e-07	-8.221898e-07	-3.677425e-11	-6.798051e+00	2.480835e-02
3.000000e-07	-8.215619e-07	-4.294507e-11	-6.792860e+00	3.076217e-02
3.100000e-07	-8.209095e-07	-5.809015e-11	-6.787466e+00	3.488932e-02
3.200000e-07	-8.202328e-07	-6.316023e-11	-6.781871e+00	3.689191e-02
3.300000e-07	-8.195403e-07	-5.828307e-11	-6.776144e+00	3.658298e-02
3.400000e-07	-8.188433e-07	-4.657868e-11	-6.770382e+00	3.389183e-02
3.500000e-07	-8.181307e-07	-3.860657e-11	-6.764490e+00	2.886250e-02
3.600000e-07	-8.173873e-07	-3.741209e-11	-6.758343e+00	2.164551e-02
3.700000e-07	-8.166101e-07	-3.557524e-11	-6.751917e+00	1.248358e-02
3.800000e-07	-8.158197e-07	-4.304154e-11	-6.745382e+00	1.692298e-03
3.900000e-07	-8.150096e-07	-4.759264e-11	-6.738684e+00	-1.036319e-02
4.000000e-07	-8.141760e-07	-4.571438e-11	-6.731791e+00	-2.329372e-02
4.100000e-07	-8.133275e-07	-3.208739e-11	-6.724776e+00	-3.671245e-02
4.200000e-07	-8.124592e-07	-2.091463e-11	-6.717597e+00	-5.026031e-02
4.300000e-07	-8.115657e-07	-2.679150e-11	-6.710209e+00	-6.362896e-02
4.400000e-07	-8.106582e-07	-4.043555e-11	-6.702705e+00	-7.657996e-02
4.500000e-07	-8.097420e-07	-5.062960e-11	-6.695130e+00	-8.895880e-02
4.600000e-07	-8.088105e-07	-4.294247e-11	-6.687428e+00	-1.007032e-01
4.700000e-07	-8.078662e-07	-3.331422e-11	-6.679621e+00	-1.118448e-01
4.800000e-07	-8.069090e-07	-2.903120e-11	-6.671706e+00	-1.225051e-01
4.900000e-07	-8.059342e-07	-2.746340e-11	-6.663646e+00	-1.328844e-01
5.000000e-07	-8.049245e-07	-2.814632e-11	-6.655298e+00	-1.432462e-01
5.100000e-07	-8.038737e-07	-2.888823e-11	-6.646610e+00	-1.538965e-01
5.200000e-07	-8.027929e-07	-3.646145e-11	-6.637673e+00	-1.651608e-01
5.300000e-07	-8.016720e-07	-4.317822e-11	-6.628406e+00	-1.773587e-01
5.400000e-07	-8.005220e-07	-4.583964e-11	-6.618897e+00	-1.907792e-01
5.500000e-07	-7.993421e-07	-3.969730e-11	-6.609141e+00	-2.056573e-01
5.600000e-07	-7.981230e-07	-2.977669e-11	-6.599062e+00	-2.221531e-01
5.700000e-07	-7.968812e-07	-2.827993e-11	-6.588794e+00	-2.403362e-01
5.800000e-07	-7.956144e-07	-2.931313e-11	-6.578320e+00	-2.601745e-01
5.900000e-07	-7.943193e-07	-3.238957e-11	-6.567612e+00	-2.815301e-01
6.000000e-07	-7.930117e-07	-3.542694e-11	-6.556800e+00	-3.041602e-01
6.100000e-07	-7.916911e-07	-4.171493e-11	-6.545881e+00	-3.277256e-01
6.200000e-07	-7.903462e-07	-5.089986e-11	-6.534761e+00	-3.518048e-01
6.300000e-07	-7.889811e-07	-5.613990e-11	-6.523474e+00	-3.759124e-01
6.400000e-07	-7.875954e-07	-5.663522e-11	-6.512017e+00	-3.995227e-01
6.500000e-07	-7.861947e-07	-5.433636e-11	-6.500436e+00	-4.220956e-01
6.600000e-07	-7.847766e-07	-5.597586e-11	-6.488711e+00	-4.431034e-01
6.700000e-07	-7.833311e-07	-5.704304e-11	-6.476759e+00	-4.620575e-01
6.800000e-07	-7.818509e-07	-5.647124e-11	-6.464520e+00	-4.785336e-01
6.900000e-07	-7.803462e-07	-5.606710e-11	-6.452079e+00	-4.921935e-01
7.000000e-07	-7.788359e-07	-5.737766e-11	-6.439592e+00	-5.028018e-01
7.100000e-07	-7.773089e-07	-6.392829e-11	-6.426966e+00	-5.102381e-01
7.200000e-07	-7.757486e-07	-7.003756e-11	-6.414065e+00	-5.145027e-01
7.300000e-07	-7.741535e-07	-7.262783e-11	-6.400877e+00	-5.157158e-01
7.400000e-07	-7.725311e-07	-7.166244e-11	-6.387462e+00	-5.141110e-01
7.500000e-07	-7.708950e-07	-7.120557e-11	-6.373935e+00	-5.100222e-01
7.600000e-07	-7.692488e-07	-6.908088e-11	-6.360324e+00	-5.038665e-01
7.700000e-07	-7.675657e-07	-6.475809e-11	-6.346407e+00	-4.961220e-01
7.800000e-07	-7.658326e-07	-6.425747e-11	-6.332077e+00	-4.873035e-01
7.900000e-07	-7.640706e-07	-6.716226e-11	-6.317508e+00	-4.779372e-01
8.000000e-07	-7.622958e-07	-7.189049e-11	-6.302834e+00	-4.685344e-01
8.100000e-07	-7.605097e-07	-7.389480e-11	-6.288066e+00	-4.595681e-01
8.200000e-07	-7.586965e-07	-7.739445e-11	-6.273074e+00	-4.514510e-01
8.300000e-07	-7.568621e-07	-8.227956e-11	-6.257907e+00	-4.445185e-01
8.400000e-07	-7.550180e-07	-8.515762e-11	-6.242660e+00	-4.390160e-01
8.500000e-07	-7.531558e-07	-8.697588e-11	-6.227263e+00	-4.350915e-01
8.600000e-07	-7.512812e-07	-8.317210e-11	-6.211763e+00	-4.327939e-01
8.700000e-07	-7.493917e-07	-7.904415e-11	-6.196140e+00	-4.320765e-01
8.800000e-07	-7.474736e-07	-7.661493e-11	-6.180281e+00	-4.328059e-01
8.900000e-07	-7.455454e-07	-7.537106e-11	-6.164338e+00	-4.347748e-01
9.000000e-07	-7.436102e-07	-7.656332e-11	-6.148338e+00	-4.377186e-01
9.100000e-07	-7.416477e-07	-7.966204e-11	-6.132111e+00	-4.413341e-01
9.200000e-07	-7.396628e-07	-8.275612e-11	-6.115699e+00	-4.452997e-01
9.300000e-07	-7.376537e-07	-8.313560e-11	-6.099088e+00	-4.492945e-01
9.400000e-07	-7.356164e-07	-8.356231e-11	-6.082243e+00	-4.530175e-01
9.500000e-07	-7.335561e-07	-8.161726e-11	-6.065208e+00	-4.562036e-01
9.600000e-07	-7.314790e-07	-7.715607e-11	-6.048034e+00	-4.586362e-01
9.700000e-07	-7.293890e-07	-7.184245e-11	-6.030754e+00	-4.601571e-01
9.800000e-07	-7.272888e-07	-6.766488e-11	-6.013388e+00	-4.606707e-01
9.900000e-07	-7.251815e-07	-6.595348e-11	-5.995965e+00	-4.601450e-01
1.000000e-06	-7.230648e-07	-6.509435e-11	-5.978464e+00	-4.586083e-01
1.010000e-06	-7.209343e-07	-6.501061e-11	-5.960848e+00	-4.561414e-01
1.020000e-06	-7.187897e-07	-6.481949e-11	-5.943116e+00	-4.528680e-01
1.030000e-06	-7.166397e-07	-6.462797e-11	-5.925339e+00	-4.489421e-01
1.040000e-06	-7.144806e-07	-6.256924e-11	-5.907487e+00	-4.445338e-01
1.050000e-06	-7.122910e-07	-5.975959e-11	-5.889384e+00	-4.398163e-01
1.060000e-06	-7.100809e-07	-5.739755e-11	-5.871109e+00	-4.349518e-01
1.070000e-06	-7.078626e-07	-5.356701e-11	-5.852768e+00	-4.300804e-01
1.080000e-06	-7.056216e-07	-5.127839e-11	-5.834239e+00	-4.253106e-01
1.090000e-06	-7.033606e-07	-4.822896e-11	-5.815545e+00	-4.207132e-01
1.100000e-06	-7.010888e-07	-4.492912e-11	-5.796761e+00	-4.163183e-01
1.110000e-06	-6.987983e-07	-4.421034e-11	-5.777823e+00	-4.121158e-01
1.120000e-06	-6.964811e-07	-4.301539e-11	-5.758663e+00	-4.080593e-01
1.130000e-06	-6.941404e-07	-4.175095e-11	-5.739310e+00	-4.040724e-01
1.140000e-06	-6.917910e-07	-4.076284e-11	-5.719885e+00	-4.000589e-01
1.150000e-06	-6.894293e-07	-3.948703e-11	-5.700358e+00	-3.959127e-01
1.160000e-06	-6.870417e-07	-3.523688e-11	-5.680616e+00	-3.915301e-01
1.170000e-06	-6.846401e-07	-3.100545e-11	-5.660759e+00	-3.868219e-01
1.180000e-06	-6.822277e-07	-2.896849e-11	-5.640813e+00	-3.817236e-01
1.190000e-06	-6.797906e-07	-2.620363e-11	-5.620663e+00	-3.762053e-01
1.200000e-06	-6.773262e-07	-2.244073e-11	-5.600286e+00	-3.702785e-01
1.210000e-06	-6.748518e-07	-2.025875e-11	-5.579827e+00	-3.639999e-01
1.220000e-06	-6.723665e-07	-2.382836e-11	-5.559278e+00	-3.574723e-01
1.230000e-06	-6.698616e-07	-3.109768e-11	-5.538568e+00	-3.508417e-01
1.240000e-06	-6.673424e-07	-3.695109e-11	-5.517738e+00	-3.442919e-01
1.250000e-06	-6.648157e-07	-3.985010e-11	-5.496847e+00	-3.380352e-01
1.260000e-06	-6.622806e-07	-3.985570e-11	-5.475886e+00	-3.323014e-01
1.270000e-06	-6.597366e-07	-3.513619e-11	-5.454852e+00	-3.273247e-01
1.280000e-06	-6.571801e-07	-2.652796e-11	-5.433714e+00	-3.233295e-01
1.290000e-06	-6.546051e-07	-2.175516e-11	-5.412423e+00	-3.205168e-01
1.300000e-06	-6.520142e-07	-2.333907e-11	-5.391001e+00	-3.190504e-01
1.310000e-06	-6.494033e-07	-2.867138e-11	-5.369414e+00	-3.190453e-01
1.320000e-06	-6.467673e-07	-3.484696e-11	-5.347619e+00	-3.205583e-01
1.330000e-06	-6.441003e-07	-3.708818e-11	-5.325567e+00	-3.235816e-01
1.340000e-06	-6.414064e-07	-3.894189e-11	-5.303293e+00	-3.280391e-01
1.350000e-06	-6.386837e-07	-4.058792e-11	-5.280781e+00	-3.337874e-01
1.360000e-06	-6.359197e-07	-3.978973e-11	-5.257928e+00	-3.406190e-01
1.370000e-06	-6.331232e-07	-3.646634e-11	-5.234806e+00	-3.482698e-01
1.380000e-06	-6.303020e-07	-3.067877e-11	-5.211479e+00	-3.564290e-01
1.390000e-06	-6.274635e-07	-2.701694e-11	-5.188010e+00	-3.647516e-01
1.400000e-06	-6.246113e-07	-2.691478e-11	-5.164428e+00	-3.728723e-01
1.410000e-06	-6.217367e-07	-2.853326e-11	-5.140660e+00	-3.804207e-01
1.420000e-06	-6.188503e-07	-3.078567e-11	-5.116794e+00	-3.870357e-01
1.430000e-06	-6.159552e-07	-3.508635e-11	-5.092857e+00	-3.923805e-01
1.440000e-06	-6.130456e-07	-3.942322e-11	-5.068800e+00	-3.961549e-01
1.450000e-06	-6.101263e-07	-4.075157e-11	-5.044662e+00	-3.981062e-01
1.460000e-06	-6.072009e-07	-3.829929e-11	-5.020475e+00	-3.980372e-01
1.470000e-06	-6.042652e-07	-3.333768e-11	-4.996201e+00	-3.958115e-01
1.480000e-06	-6.013182e-07	-2.910496e-11	-4.971835e+00	-3.913559e-01
1.490000e-06	-5.983637e-07	-2.478006e-11	-4.947407e+00	-3.846594e-01
1.500000e-06	-5.953943e-07	-2.150984e-11	-4.922855e+00	-3.757700e-01
1.510000e-06	-5.924079e-07	-2.316685e-11	-4.898162e+00	-3.647888e-01
1.520000e-06	-5.894059e-07	-2.932620e-11	-4.873341e+00	-3.518621e-01
1.530000e-06	-5.863839e-07	-3.556929e-11	-4.848355e+00	-3.371725e-01
1.540000e-06	-5.833512e-07	-3.823282e-11	-4.823280e+00	-3.209292e-01
1.550000e-06	-5.803091e-07	-3.983629e-11	-4.798127e+00	-3.033580e-01
1.560000e-06	-5.772596e-07	-3.961676e-11	-4.772913e+00	-2.846924e-01
1.570000e-06	-5.742032e-07	-3.500047e-11	-4.747642e+00	-2.651647e-01
1.580000e-06	-5.711265e-07	-2.860075e-11	-4.722203e+00	-2.449996e-01
1.590000e-06	-5.680255e-07	-2.477710e-11	-4.696564e+00	-2.244083e-01
1.600000e-06	-5.649067e-07	-2.378249e-11	-4.670776e+00	-2.035853e-01
1.610000e-06	-5.617740e-07	-2.441158e-11	-4.644875e+00	-1.827064e-01
1.620000e-06	-5.586324e-07	-2.645685e-11	-4.618899e+00	-1.619279e-01
1.630000e-06	-5.554795e-07	-2.894840e-11	-4.592830e+00	-1.413881e-01
1.640000e-06	-5.523077e-07	-3.036475e-11	-4.566605e+00	-1.212088e-01
1.650000e-06	-5.491369e-07	-2.899100e-11	-4.540388e+00	-1.014973e-01
1.660000e-06	-5.459699e-07	-2.644578e-11	-4.514203e+00	-8.234920e-02
1.670000e-06	-5.427797e-07	-2.408658e-11	-4.487826e+00	-6.385008e-02
1.680000e-06	-5.395722e-07	-2.136770e-11	-4.461305e+00	-4.607705e-02
1.690000e-06	-5.363506e-07	-1.865984e-11	-4.434668e+00	-2.909908e-02
1.700000e-06	-5.331081e-07	-1.641356e-11	-4.407858e+00	-1.297639e-02
1.710000e-06	-5.298577e-07	-1.456914e-11	-4.380984e+00	2.241276e-03
1.720000e-06	-5.265988e-07	-1.272024e-11	-4.354038e+00	1.651734e-02
1.730000e-06	-5.233167e-07	-1.009563e-11	-4.326901e+00	2.983183e-02
1.740000e-06	-5.200215e-07	-8.365519e-12	-4.299656e+00	4.218522e-02
1.750000e-06	-5.167265e-07	-6.524718e-12	-4.272412e+00	5.360223e-02
1.760000e-06	-5.134193e-07	-4.448334e-12	-4.245067e+00	6.413528e-02
1.770000e-06	-5.101012e-07	-2.125022e-12	-4.217632e+00	7.386680e-02
1.780000e-06	-5.067827e-07	2.421110e-12	-4.190194e+00	8.291038e-02
1.790000e-06	-5.034571e-07	6.696381e-12	-4.162697e+00	9.141000e-02
1.800000e-06	-5.001207e-07	5.535197e-12	-4.135111e+00	9.953731e-02
1.810000e-06	-4.967708e-07	2.518008e-12	-4.107413e+00	1.074868e-01
1.820000e-06	-4.933995e-07	1.951935e-12	-4.079538e+00	1.154689e-01
1.830000e-06	-4.900144e-07	1.779574e-12	-4.051550e+00	1.237008e-01
1.840000e-06	-4.866216e-07	7.755425e-13	-4.023498e+00	1.323962e-01
1.850000e-06	-4.832273e-07	-2.837482e-13	-3.995433e+00	1.417538e-01
1.860000e-06	-4.798233e-07	1.015308e-12	-3.967288e+00	1.519447e-01
1.870000e-06	-4.763928e-07	5.288503e-12	-3.938924e+00	1.631014e-01
1.880000e-06	-4.729473e-07	9.263772e-12	-3.910435e+00	1.753065e-01
1.890000e-06	-4.694945e-07	9.138221e-12	-3.881887e+00	1.885836e-01
1.900000e-06	-4.660095e-07	7.013007e-12	-3.853072e+00	2.028910e-01
1.910000e-06	-4.624937e-07	6.658634e-12	-3.824002e+00	2.181180e-01
1.920000e-06	-4.589630e-07	6.846372e-12	-3.794810e+00	2.340853e-01
1.930000e-06	-4.554087e-07	5.682761e-12	-3.765423e+00	2.505480e-01
1.940000e-06	-4.518317e-07	2.255629e-12	-3.735847e+00	2.672041e-01
1.950000e-06	-4.482341e-07	-2.799693e-12	-3.706101e+00	2.837054e-01
1.960000e-06	-4.446136e-07	-3.160721e-12	-3.676166e+00	2.996718e-01
1.970000e-06	-4.409791e-07	-3.743164e-13	-3.646115e+00	3.147095e-01
1.980000e-06	-4.373365e-07	7.034728e-13	-3.615998e+00	3.284289e-01
1.990000e-06	-4.336792e-07	-2.975463e-13	-3.585758e+00	3.404657e-01
2.000000e-06	-4.300147e-07	5.109953e-13	-3.555459e+00	3.505003e-01
2.010000e-06	-4.263415e-07	4.416869e-12	-3.525088e+00	3.582764e-01
2.020000e-06	-4.226604e-07	5.746150e-12	-3.494652e+00	3.636176e-01
2.030000e-06	-4.189716e-07	1.128889e-12	-3.464152e+00	3.664407e-01
2.040000e-06	-4.152665e-07	-9.071347e-12	-3.433517e+00	3.667641e-01
2.050000e-06	-4.115500e-07	-1.782836e-11	-3.402788e+00	3.647127e-01
2.060000e-06	-4.078302e-07	-2.125282e-11	-3.372032e+00	3.605167e-01
2.070000e-06	-4.041064e-07	-2.129041e-11	-3.341243e+00	3.545051e-01
2.080000e-06	-4.003785e-07	-1.923829e-11	-3.310420e+00	3.470951e-01
2.090000e-06	-3.966505e-07	-1.661341e-11	-3.279596e+00	3.387754e-01
2.100000e-06	-3.929168e-07	-1.461638e-11	-3.248725e+00	3.300864e-01
2.110000e-06	-3.891761e-07	-1.642094e-11	-3.217796e+00	3.215975e-01
2.120000e-06	-3.854250e-07	-2.422800e-11	-3.186781e+00	3.138813e-01
2.130000e-06	-3.816623e-07	-3.398590e-11	-3.155670e+00	3.074886e-01
2.140000e-06	-3.778894e-07	-3.911249e-11	-3.124475e+00	3.029230e-01
2.150000e-06	-3.741033e-07	-4.094084e-11	-3.093171e+00	3.006177e-01
2.160000e-06	-3.703051e-07	-4.116043e-11	-3.061767e+00	3.009151e-01
2.170000e-06	-3.665085e-07	-3.752209e-11	-3.030376e+00	3.040513e-01
2.180000e-06	-3.627107e-07	-3.329717e-11	-2.998974e+00	3.101448e-01
2.190000e-06	-3.588987e-07	-3.223666e-11	-2.967455e+00	3.191908e-01
2.200000e-06	-3.550687e-07	-3.397937e-11	-2.935789e+00	3.310620e-01
2.210000e-06	-3.512345e-07	-3.557849e-11	-2.904087e+00	3.455145e-01
2.220000e-06	-3.474035e-07	-3.610318e-11	-2.872411e+00	3.621997e-01
2.230000e-06	-3.435586e-07	-3.787544e-11	-2.840620e+00	3.806804e-01
2.240000e-06	-3.396908e-07	-4.231247e-11	-2.808640e+00	4.004519e-01
2.250000e-06	-3.358120e-07	-4.583210e-11	-2.776570e+00	4.209651e-01
2.260000e-06	-3.319322e-07	-4.478456e-11	-2.744490e+00	4.416521e-01
2.270000e-06	-3.280527e-07	-4.308238e-11	-2.712414e+00	4.619511e-01
2.280000e-06	-3.241647e-07	-4.259239e-11	-2.680267e+00	4.813316e-01
2.290000e-06	-3.202581e-07	-3.920583e-11	-2.647966e+00	4.993170e-01
2.300000e-06	-3.163468e-07	-3.375034e-11	-2.615627e+00	5.155033e-01
2.310000e-06	-3.124327e-07	-3.082625e-11	-2.583264e+00	5.295748e-01
2.320000e-06	-3.085006e-07	-3.248506e-11	-2.550753e+00	5.413139e-01
2.330000e-06	-3.045574e-07	-3.778491e-11	-2.518149e+00	5.506066e-01
2.340000e-06	-3.006151e-07	-4.157209e-11	-2.485554e+00	5.574418e-01
2.350000e-06	-2.966707e-07	-4.134265e-11	-2.452940e+00	5.619061e-01
2.360000e-06	-2.927203e-07	-3.879801e-11	-2.420278e+00	5.641734e-01
2.370000e-06	-2.887616e-07	-3.404728e-11	-2.387546e+00	5.644913e-01
2.380000e-06	-2.847981e-07	-2.713421e-11	-2.354775e+00	5.631633e-01
2.390000e-06	-2.808264e-07	-2.081947e-11	-2.321937e+00	5.605298e-01
2.400000e-06	-2.768399e-07	-1.814918e-11	-2.288975e+00	5.569481e-01
2.410000e-06	-2.728517e-07	-1.982813e-11	-2.256000e+00	5.527719e-01
2.420000e-06	-2.688587e-07	-2.111125e-11	-2.222985e+00	5.483330e-01
2.430000e-06	-2.648488e-07	-2.024654e-11	-2.189830e+00	5.439247e-01
2.440000e-06	-2.608293e-07	-2.161756e-11	-2.156596e+00	5.397880e-01
2.450000e-06	-2.568024e-07	-2.218014e-11	-2.123301e+00	5.361021e-01
2.460000e-06	-2.527682e-07	-1.879717e-11	-2.089945e+00	5.329781e-01
2.470000e-06	-2.487256e-07	-1.465104e-11	-2.056520e+00	5.304575e-01
2.480000e-06	-2.446675e-07	-1.073745e-11	-2.022966e+00	5.285140e-01
2.490000e-06	-2.406117e-07	-7.014170e-12	-1.989432e+00	5.270596e-01
2.500000e-06	-2.365637e-07	-5.036813e-12	-1.955963e+00	5.259529e-01
2.510000e-06	-2.325038e-07	-3.382698e-12	-1.922394e+00	5.250106e-01
2.520000e-06	-2.284308e-07	-3.453977e-12	-1.888718e+00	5.240201e-01
2.530000e-06	-2.243521e-07	-8.125280e-12	-1.854994e+00	5.227531e-01
2.540000e-06	-2.202710e-07	-1.277768e-11	-1.821250e+00	5.209788e-01
2.550000e-06	-2.161912e-07	-1.172515e-11	-1.787517e+00	5.184767e-01
2.560000e-06	-2.121111e-07	-7.402795e-12	-1.753782e+00	5.150472e-01
2.570000e-06	-2.080212e-07	-4.879650e-12	-1.719967e+00	5.105211e-01
2.580000e-06	-2.039194e-07	-4.543823e-12	-1.686052e+00	5.047656e-01
2.590000e-06	-1.998134e-07	-2.798941e-12	-1.652102e+00	4.976887e-01
2.600000e-06	-1.956995e-07	-2.843279e-13	-1.618087e+00	4.892404e-01
2.610000e-06	-1.915773e-07	-2.563859e-12	-1.584004e+00	4.794118e-01
2.620000e-06	-1.874627e-07	-9.600980e-12	-1.549984e+00	4.682322e-01
2.630000e-06	-1.833508e-07	-1.310209e-11	-1.515986e+00	4.557648e-01
2.640000e-06	-1.792327e-07	-9.376846e-12	-1.481937e+00	4.421006e-01
2.650000e-06	-1.751123e-07	-7.131969e-12	-1.447868e+00	4.273530e-01
2.660000e-06	-1.709952e-07	-9.929466e-12	-1.413827e+00	4.116513e-01
2.670000e-06	-1.668833e-07	-1.192520e-11	-1.379829e+00	3.951359e-01
2.680000e-06	-1.627711e-07	-9.271659e-12	-1.345829e+00	3.779533e-01
2.690000e-06	-1.586523e-07	-6.226726e-12	-1.311773e+00	3.602536e-01
2.700000e-06	-1.545242e-07	-7.695145e-12	-1.277641e+00	3.421885e-01
2.710000e-06	-1.503912e-07	-1.081381e-11	-1.243468e+00	3.239109e-01
2.720000e-06	-1.462625e-07	-1.124023e-11	-1.209332e+00	3.055762e-01
2.730000e-06	-1.421318e-07	-9.970696e-12	-1.175178e+00	2.873439e-01
2.740000e-06	-1.379923e-07	-1.168127e-11	-1.140952e+00	2.693801e-01
2.750000e-06	-1.338520e-07	-1.713664e-11	-1.106719e+00	2.518604e-01
2.760000e-06	-1.297134e-07	-2.019636e-11	-1.072500e+00	2.349717e-01
2.770000e-06	-1.255742e-07	-1.699971e-11	-1.038276e+00	2.189138e-01
2.780000e-06	-1.214348e-07	-1.281993e-11	-1.004050e+00	2.038995e-01
2.790000e-06	-1.172969e-07	-1.442241e-11	-9.698371e-01	1.901531e-01
2.800000e-06	-1.131626e-07	-1.991200e-11	-9.356539e-01	1.779067e-01
2.810000e-06	-1.090265e-07	-2.126123e-11	-9.014560e-01	1.673954e-01
2.820000e-06	-1.048820e-07	-1.707365e-11	-8.671878e-01	1.588500e-01
2.830000e-06	-1.007346e-07	-1.493650e-11	-8.328968e-01	1.524886e-01
2.840000e-06	-9.658926e-08	-1.671681e-11	-7.986219e-01	1.485070e-01
2.850000e-06	-9.243402e-08	-1.813235e-11	-7.642654e-01	1.470686e-01
2.860000e-06	-8.826949e-08	-1.926934e-11	-7.298321e-01	1.482941e-01
2.870000e-06	-8.411211e-08	-2.024050e-11	-6.954579e-01	1.522528e-01
