# Temperatura_=_20.0
# Concentracion g/m^3_=_10000.0
# C_Vs_to_Am_M_A/Vsm_=_65563218390.804596
# pendiente_HvsI_1/m_=_3716.3
# ordenada_HvsI_A/m_=_1297.0
# frecuencia_Hz_=_81118.92834064981

Tiempo_(s)	Campo_(V.s)	Magnetizacion_(V.s)	Campo_(kA/m)	Magnetizacion_(A/m)
0.000000e+00	-8.312730e-07	-1.739426e-11	-6.866203e+00	8.414320e-03
1.000000e-08	-8.312598e-07	-3.322291e-11	-6.866094e+00	1.309339e-02
2.000000e-08	-8.312396e-07	-3.625156e-11	-6.865927e+00	1.806695e-02
3.000000e-08	-8.312150e-07	-2.522659e-11	-6.865723e+00	2.305657e-02
4.000000e-08	-8.311798e-07	-1.289773e-11	-6.865433e+00	2.776130e-02
5.000000e-08	-8.311288e-07	-1.315262e-11	-6.865012e+00	3.187080e-02
6.000000e-08	-8.310561e-07	-2.269943e-11	-6.864411e+00	3.507883e-02
7.000000e-08	-8.309622e-07	-2.289218e-11	-6.863636e+00	3.709668e-02
8.000000e-08	-8.308553e-07	-4.831573e-12	-6.862753e+00	3.766562e-02
9.000000e-08	-8.307329e-07	4.547973e-12	-6.861742e+00	3.656794e-02
1.000000e-07	-8.305893e-07	8.982354e-12	-6.860555e+00	3.363603e-02
1.100000e-07	-8.304190e-07	1.591748e-11	-6.859149e+00	2.875901e-02
1.200000e-07	-8.302243e-07	9.070076e-12	-6.857541e+00	2.188677e-02
1.300000e-07	-8.300030e-07	-7.911136e-12	-6.855713e+00	1.303107e-02
1.400000e-07	-8.297598e-07	-3.418488e-11	-6.853704e+00	2.263895e-03
1.500000e-07	-8.295040e-07	-5.721132e-11	-6.851591e+00	-1.028694e-02
1.600000e-07	-8.292041e-07	-5.942313e-11	-6.849114e+00	-2.444457e-02
1.700000e-07	-8.288560e-07	-3.715445e-11	-6.846239e+00	-3.999186e-02
1.800000e-07	-8.284836e-07	-5.275575e-12	-6.843163e+00	-5.668179e-02
1.900000e-07	-8.280904e-07	1.234394e-11	-6.839915e+00	-7.424874e-02
2.000000e-07	-8.276694e-07	1.659978e-11	-6.836437e+00	-9.242014e-02
2.100000e-07	-8.272149e-07	2.497405e-12	-6.832683e+00	-1.109279e-01
2.200000e-07	-8.267386e-07	-2.579431e-11	-6.828749e+00	-1.295191e-01
2.300000e-07	-8.262498e-07	-5.611659e-11	-6.824712e+00	-1.479651e-01
2.400000e-07	-8.257449e-07	-7.987720e-11	-6.820542e+00	-1.660691e-01
2.500000e-07	-8.252251e-07	-7.243321e-11	-6.816248e+00	-1.836714e-01
2.600000e-07	-8.246927e-07	-5.016549e-11	-6.811850e+00	-2.006525e-01
2.700000e-07	-8.241391e-07	-3.217873e-11	-6.807278e+00	-2.169339e-01
2.800000e-07	-8.235685e-07	-2.728729e-11	-6.802565e+00	-2.324756e-01
2.900000e-07	-8.229844e-07	-3.776775e-11	-6.797740e+00	-2.472731e-01
3.000000e-07	-8.223831e-07	-4.856713e-11	-6.792774e+00	-2.613511e-01
3.100000e-07	-8.217621e-07	-5.880844e-11	-6.787644e+00	-2.747562e-01
3.200000e-07	-8.211057e-07	-6.481036e-11	-6.782222e+00	-2.875490e-01
3.300000e-07	-8.204344e-07	-6.766530e-11	-6.776678e+00	-2.997954e-01
3.400000e-07	-8.197516e-07	-6.368728e-11	-6.771038e+00	-3.115577e-01
3.500000e-07	-8.190402e-07	-5.539826e-11	-6.765162e+00	-3.228873e-01
3.600000e-07	-8.183111e-07	-5.664592e-11	-6.759139e+00	-3.338174e-01
3.700000e-07	-8.175638e-07	-6.184745e-11	-6.752967e+00	-3.443583e-01
3.800000e-07	-8.167887e-07	-6.513182e-11	-6.746564e+00	-3.544937e-01
3.900000e-07	-8.159806e-07	-6.352536e-11	-6.739890e+00	-3.641796e-01
4.000000e-07	-8.151564e-07	-5.940738e-11	-6.733082e+00	-3.733454e-01
4.100000e-07	-8.143120e-07	-5.251411e-11	-6.726108e+00	-3.818970e-01
4.200000e-07	-8.134443e-07	-4.204120e-11	-6.718940e+00	-3.897215e-01
4.300000e-07	-8.125659e-07	-4.057974e-11	-6.711685e+00	-3.966943e-01
4.400000e-07	-8.116678e-07	-5.065681e-11	-6.704267e+00	-4.026871e-01
4.500000e-07	-8.107563e-07	-6.737178e-11	-6.696738e+00	-4.075765e-01
4.600000e-07	-8.098399e-07	-7.097175e-11	-6.689168e+00	-4.112530e-01
4.700000e-07	-8.089002e-07	-5.695285e-11	-6.681407e+00	-4.136301e-01
4.800000e-07	-8.079403e-07	-3.812758e-11	-6.673478e+00	-4.146523e-01
4.900000e-07	-8.069655e-07	-2.816543e-11	-6.665426e+00	-4.143013e-01
5.000000e-07	-8.059501e-07	-2.798096e-11	-6.657040e+00	-4.126013e-01
5.100000e-07	-8.048962e-07	-2.640939e-11	-6.648334e+00	-4.096218e-01
5.200000e-07	-8.038171e-07	-2.909534e-11	-6.639421e+00	-4.054778e-01
5.300000e-07	-8.027144e-07	-3.791530e-11	-6.630313e+00	-4.003279e-01
5.400000e-07	-8.015893e-07	-4.820706e-11	-6.621019e+00	-3.943700e-01
5.500000e-07	-8.004240e-07	-4.664548e-11	-6.611395e+00	-3.878345e-01
5.600000e-07	-7.992262e-07	-2.734121e-11	-6.601501e+00	-3.809758e-01
5.700000e-07	-7.980081e-07	-9.055707e-12	-6.591439e+00	-3.740619e-01
5.800000e-07	-7.967607e-07	-3.626931e-12	-6.581136e+00	-3.673634e-01
5.900000e-07	-7.954927e-07	-5.890582e-12	-6.570662e+00	-3.611418e-01
6.000000e-07	-7.941984e-07	-3.178146e-12	-6.559972e+00	-3.556377e-01
6.100000e-07	-7.928783e-07	-2.523734e-12	-6.549068e+00	-3.510600e-01
6.200000e-07	-7.915509e-07	-1.324207e-11	-6.538104e+00	-3.475763e-01
6.300000e-07	-7.902088e-07	-2.466314e-11	-6.527018e+00	-3.453052e-01
6.400000e-07	-7.888435e-07	-2.235671e-11	-6.515741e+00	-3.443106e-01
6.500000e-07	-7.874444e-07	-6.162206e-12	-6.504184e+00	-3.445990e-01
6.600000e-07	-7.860229e-07	3.118148e-12	-6.492443e+00	-3.461188e-01
6.700000e-07	-7.845971e-07	9.975580e-13	-6.480666e+00	-3.487636e-01
6.800000e-07	-7.831496e-07	9.637058e-13	-6.468710e+00	-3.523768e-01
6.900000e-07	-7.816689e-07	8.806247e-12	-6.456480e+00	-3.567599e-01
7.000000e-07	-7.801644e-07	1.403744e-11	-6.444052e+00	-3.616818e-01
7.100000e-07	-7.786459e-07	7.057510e-12	-6.431511e+00	-3.668911e-01
7.200000e-07	-7.771097e-07	-2.569688e-13	-6.418821e+00	-3.721278e-01
7.300000e-07	-7.755550e-07	1.729052e-12	-6.405979e+00	-3.771367e-01
7.400000e-07	-7.739641e-07	9.950039e-12	-6.392839e+00	-3.816800e-01
7.500000e-07	-7.723375e-07	1.482910e-11	-6.379404e+00	-3.855492e-01
7.600000e-07	-7.706906e-07	1.360235e-11	-6.365800e+00	-3.885752e-01
7.700000e-07	-7.690215e-07	1.707669e-11	-6.352014e+00	-3.906368e-01
7.800000e-07	-7.673188e-07	2.552834e-11	-6.337950e+00	-3.916667e-01
7.900000e-07	-7.655797e-07	2.779637e-11	-6.323585e+00	-3.916541e-01
8.000000e-07	-7.638101e-07	1.947481e-11	-6.308969e+00	-3.906451e-01
8.100000e-07	-7.620177e-07	9.216000e-12	-6.294164e+00	-3.887399e-01
8.200000e-07	-7.602303e-07	4.588003e-12	-6.279400e+00	-3.860871e-01
8.300000e-07	-7.584316e-07	1.302771e-12	-6.264543e+00	-3.828755e-01
8.400000e-07	-7.566026e-07	-5.142613e-12	-6.249435e+00	-3.793234e-01
8.500000e-07	-7.547594e-07	-1.059500e-11	-6.234211e+00	-3.756674e-01
8.600000e-07	-7.528942e-07	-7.956709e-12	-6.218805e+00	-3.721486e-01
8.700000e-07	-7.510092e-07	-3.306374e-13	-6.203235e+00	-3.689997e-01
8.800000e-07	-7.491087e-07	2.460338e-12	-6.187537e+00	-3.664320e-01
8.900000e-07	-7.471860e-07	-1.319316e-12	-6.171655e+00	-3.646233e-01
9.000000e-07	-7.452408e-07	-6.501006e-12	-6.155589e+00	-3.637073e-01
9.100000e-07	-7.432794e-07	-8.815791e-12	-6.139388e+00	-3.637656e-01
9.200000e-07	-7.413016e-07	-1.260697e-11	-6.123051e+00	-3.648217e-01
9.300000e-07	-7.392882e-07	-2.018760e-11	-6.106421e+00	-3.668382e-01
9.400000e-07	-7.372518e-07	-2.562555e-11	-6.089600e+00	-3.697170e-01
9.500000e-07	-7.352055e-07	-2.454683e-11	-6.072698e+00	-3.733025e-01
9.600000e-07	-7.331502e-07	-1.877299e-11	-6.055722e+00	-3.773870e-01
9.700000e-07	-7.310881e-07	-1.398583e-11	-6.038689e+00	-3.817200e-01
9.800000e-07	-7.290052e-07	-1.209989e-11	-6.021485e+00	-3.860183e-01
9.900000e-07	-7.269021e-07	-1.304373e-11	-6.004114e+00	-3.899782e-01
1.000000e-06	-7.247882e-07	-1.648015e-11	-5.986653e+00	-3.932892e-01
1.010000e-06	-7.226656e-07	-2.311476e-11	-5.969121e+00	-3.956472e-01
1.020000e-06	-7.205368e-07	-3.163746e-11	-5.951537e+00	-3.967677e-01
1.030000e-06	-7.183934e-07	-3.644695e-11	-5.933833e+00	-3.963984e-01
1.040000e-06	-7.162274e-07	-3.383291e-11	-5.915942e+00	-3.943297e-01
1.050000e-06	-7.140430e-07	-2.735931e-11	-5.897899e+00	-3.904034e-01
1.060000e-06	-7.118462e-07	-2.334142e-11	-5.879754e+00	-3.845188e-01
1.070000e-06	-7.096316e-07	-2.209475e-11	-5.861461e+00	-3.766367e-01
1.080000e-06	-7.073982e-07	-2.251634e-11	-5.843013e+00	-3.667793e-01
1.090000e-06	-7.051512e-07	-2.471406e-11	-5.824454e+00	-3.550288e-01
1.100000e-06	-7.028851e-07	-2.655028e-11	-5.805736e+00	-3.415219e-01
1.110000e-06	-7.005964e-07	-2.830682e-11	-5.786832e+00	-3.264432e-01
1.120000e-06	-6.982900e-07	-2.849059e-11	-5.767781e+00	-3.100157e-01
1.130000e-06	-6.959701e-07	-2.401191e-11	-5.748619e+00	-2.924906e-01
1.140000e-06	-6.936320e-07	-1.816634e-11	-5.729307e+00	-2.741355e-01
1.150000e-06	-6.912799e-07	-1.700368e-11	-5.709879e+00	-2.552229e-01
1.160000e-06	-6.889052e-07	-1.695568e-11	-5.690264e+00	-2.360191e-01
1.170000e-06	-6.865093e-07	-1.281197e-11	-5.670474e+00	-2.167735e-01
1.180000e-06	-6.840975e-07	-6.478249e-12	-5.650553e+00	-1.977095e-01
1.190000e-06	-6.816677e-07	-6.201165e-13	-5.630484e+00	-1.790180e-01
1.200000e-06	-6.792242e-07	3.442097e-12	-5.610300e+00	-1.608517e-01
1.210000e-06	-6.767655e-07	8.164061e-12	-5.589992e+00	-1.433232e-01
1.220000e-06	-6.742954e-07	1.103489e-11	-5.569589e+00	-1.265040e-01
1.230000e-06	-6.718119e-07	8.073280e-12	-5.549076e+00	-1.104276e-01
1.240000e-06	-6.693148e-07	2.498562e-13	-5.528450e+00	-9.509305e-02
1.250000e-06	-6.668018e-07	-6.134400e-12	-5.507693e+00	-8.047134e-02
1.260000e-06	-6.642730e-07	-5.619873e-12	-5.486806e+00	-6.651274e-02
1.270000e-06	-6.617380e-07	6.096764e-13	-5.465867e+00	-5.315515e-02
1.280000e-06	-6.591921e-07	1.076720e-11	-5.444838e+00	-4.033278e-02
1.290000e-06	-6.566302e-07	2.021466e-11	-5.423677e+00	-2.798454e-02
1.300000e-06	-6.540495e-07	2.773443e-11	-5.402361e+00	-1.606184e-02
1.310000e-06	-6.514472e-07	3.142907e-11	-5.380866e+00	-4.535044e-03
1.320000e-06	-6.488211e-07	2.678258e-11	-5.359175e+00	6.601635e-03
1.330000e-06	-6.461622e-07	1.917029e-11	-5.337212e+00	1.732717e-02
1.340000e-06	-6.434788e-07	1.672553e-11	-5.315048e+00	2.759288e-02
1.350000e-06	-6.407721e-07	1.780016e-11	-5.292691e+00	3.732379e-02
1.360000e-06	-6.380385e-07	1.589821e-11	-5.270112e+00	4.642205e-02
1.370000e-06	-6.352716e-07	1.311661e-11	-5.247258e+00	5.477232e-02
1.380000e-06	-6.324799e-07	1.536727e-11	-5.224199e+00	6.224877e-02
1.390000e-06	-6.296744e-07	2.281114e-11	-5.201026e+00	6.872319e-02
1.400000e-06	-6.268428e-07	2.893646e-11	-5.177637e+00	7.407395e-02
1.410000e-06	-6.239850e-07	2.854996e-11	-5.154032e+00	7.819504e-02
1.420000e-06	-6.211113e-07	2.549660e-11	-5.130295e+00	8.100474e-02
1.430000e-06	-6.182234e-07	2.485709e-11	-5.106442e+00	8.245345e-02
1.440000e-06	-6.153167e-07	2.586804e-11	-5.082433e+00	8.253004e-02
1.450000e-06	-6.124019e-07	2.367231e-11	-5.058357e+00	8.126641e-02
1.460000e-06	-6.094905e-07	1.922072e-11	-5.034309e+00	7.873991e-02
1.470000e-06	-6.065749e-07	1.750450e-11	-5.010227e+00	7.507332e-02
1.480000e-06	-6.036376e-07	2.143528e-11	-4.985965e+00	7.043246e-02
1.490000e-06	-6.006882e-07	2.508767e-11	-4.961604e+00	6.502136e-02
1.500000e-06	-5.977303e-07	2.371664e-11	-4.937172e+00	5.907525e-02
1.510000e-06	-5.947493e-07	2.045696e-11	-4.912549e+00	5.285161e-02
1.520000e-06	-5.917564e-07	1.829486e-11	-4.887828e+00	4.661978e-02
1.530000e-06	-5.887565e-07	1.508528e-11	-4.863049e+00	4.064964e-02
1.540000e-06	-5.857453e-07	5.858898e-12	-4.838177e+00	3.519982e-02
1.550000e-06	-5.827173e-07	-2.401075e-12	-4.813167e+00	3.050619e-02
1.560000e-06	-5.796656e-07	-4.417661e-12	-4.787960e+00	2.677117e-02
1.570000e-06	-5.766001e-07	-3.599887e-12	-4.762639e+00	2.415439e-02
1.580000e-06	-5.735191e-07	-3.758316e-12	-4.737191e+00	2.276528e-02
1.590000e-06	-5.704244e-07	-5.164471e-12	-4.711629e+00	2.265797e-02
1.600000e-06	-5.673253e-07	-6.150262e-12	-4.686031e+00	2.382878e-02
1.610000e-06	-5.642163e-07	-7.200311e-12	-4.660350e+00	2.621649e-02
1.620000e-06	-5.610852e-07	-1.134287e-11	-4.634488e+00	2.970542e-02
1.630000e-06	-5.579340e-07	-2.049630e-11	-4.608460e+00	3.413117e-02
1.640000e-06	-5.547705e-07	-2.816975e-11	-4.582330e+00	3.928879e-02
1.650000e-06	-5.515998e-07	-2.804535e-11	-4.556140e+00	4.494295e-02
1.660000e-06	-5.484183e-07	-2.685529e-11	-4.529861e+00	5.083966e-02
1.670000e-06	-5.452240e-07	-2.866337e-11	-4.503477e+00	5.671891e-02
1.680000e-06	-5.420172e-07	-3.039616e-11	-4.476989e+00	6.232761e-02
1.690000e-06	-5.387993e-07	-2.857698e-11	-4.450410e+00	6.743223e-02
1.700000e-06	-5.355714e-07	-2.487705e-11	-4.423748e+00	7.183035e-02
1.710000e-06	-5.323308e-07	-2.390942e-11	-4.396980e+00	7.536071e-02
1.720000e-06	-5.290793e-07	-2.711894e-11	-4.370124e+00	7.791111e-02
1.730000e-06	-5.258108e-07	-3.017072e-11	-4.343126e+00	7.942376e-02
1.740000e-06	-5.225297e-07	-2.612454e-11	-4.316025e+00	7.989786e-02
1.750000e-06	-5.192252e-07	-2.157353e-11	-4.288730e+00	7.938920e-02
1.760000e-06	-5.159036e-07	-2.156905e-11	-4.261294e+00	7.800681e-02
1.770000e-06	-5.125847e-07	-2.347268e-11	-4.233881e+00	7.590687e-02
1.780000e-06	-5.092666e-07	-2.079265e-11	-4.206474e+00	7.328404e-02
1.790000e-06	-5.059414e-07	-1.373713e-11	-4.179008e+00	7.036082e-02
1.800000e-06	-5.026066e-07	-1.111851e-11	-4.151463e+00	6.737538e-02
1.810000e-06	-4.992661e-07	-1.248470e-11	-4.123870e+00	6.456842e-02
1.820000e-06	-4.959118e-07	-1.320741e-11	-4.096165e+00	6.216987e-02
1.830000e-06	-4.925425e-07	-1.119211e-11	-4.068335e+00	6.038601e-02
1.840000e-06	-4.891646e-07	-1.119024e-11	-4.040434e+00	5.938764e-02
1.850000e-06	-4.857751e-07	-1.447901e-11	-4.012437e+00	5.930005e-02
1.860000e-06	-4.823731e-07	-1.389783e-11	-3.984337e+00	6.019505e-02
1.870000e-06	-4.789572e-07	-8.424621e-12	-3.956122e+00	6.208578e-02
1.880000e-06	-4.755168e-07	-2.855788e-12	-3.927705e+00	6.492429e-02
1.890000e-06	-4.720594e-07	-2.090801e-12	-3.899147e+00	6.860218e-02
1.900000e-06	-4.685924e-07	-6.986284e-13	-3.870510e+00	7.295423e-02
1.910000e-06	-4.651087e-07	4.407398e-12	-3.841735e+00	7.776483e-02
1.920000e-06	-4.615959e-07	7.781546e-12	-3.812720e+00	8.277686e-02
1.930000e-06	-4.580560e-07	6.633330e-12	-3.783481e+00	8.770269e-02
1.940000e-06	-4.544993e-07	2.565191e-12	-3.754103e+00	9.223658e-02
1.950000e-06	-4.509164e-07	2.049442e-12	-3.724509e+00	9.606807e-02
1.960000e-06	-4.473147e-07	3.927977e-12	-3.694759e+00	9.889552e-02
1.970000e-06	-4.437023e-07	5.930435e-12	-3.664922e+00	1.004392e-01
1.980000e-06	-4.400751e-07	6.628635e-12	-3.634961e+00	1.004535e-01
1.990000e-06	-4.364326e-07	6.752870e-12	-3.604874e+00	9.873712e-02
2.000000e-06	-4.327712e-07	1.071426e-11	-3.574632e+00	9.514142e-02
2.010000e-06	-4.291046e-07	1.704619e-11	-3.544346e+00	8.957627e-02
2.020000e-06	-4.254306e-07	2.176625e-11	-3.513999e+00	8.201300e-02
2.030000e-06	-4.217400e-07	2.122681e-11	-3.483515e+00	7.248454e-02
2.040000e-06	-4.180416e-07	1.582183e-11	-3.452967e+00	6.108282e-02
2.050000e-06	-4.143369e-07	5.949907e-12	-3.422367e+00	4.795352e-02
2.060000e-06	-4.106242e-07	-4.014223e-12	-3.391701e+00	3.328854e-02
2.070000e-06	-4.069038e-07	-9.012853e-12	-3.360971e+00	1.731658e-02
2.080000e-06	-4.031788e-07	-9.481041e-12	-3.330203e+00	2.924031e-04
2.090000e-06	-3.994479e-07	-3.037988e-12	-3.299386e+00	-1.751463e-02
2.100000e-06	-3.957081e-07	5.961231e-12	-3.268495e+00	-3.583225e-02
2.110000e-06	-3.919629e-07	1.044363e-11	-3.237561e+00	-5.439648e-02
2.120000e-06	-3.882164e-07	5.693859e-12	-3.206616e+00	-7.296180e-02
2.130000e-06	-3.844596e-07	-3.383901e-12	-3.175584e+00	-9.130987e-02
2.140000e-06	-3.806810e-07	-1.141423e-11	-3.144373e+00	-1.092562e-01
2.150000e-06	-3.768906e-07	-1.904844e-11	-3.113066e+00	-1.266550e-01
2.160000e-06	-3.730993e-07	-2.406023e-11	-3.081750e+00	-1.434008e-01
2.170000e-06	-3.693081e-07	-2.568080e-11	-3.050435e+00	-1.594287e-01
2.180000e-06	-3.655076e-07	-2.086001e-11	-3.019043e+00	-1.747117e-01
2.190000e-06	-3.616867e-07	-1.512541e-11	-2.987484e+00	-1.892561e-01
2.200000e-06	-3.578582e-07	-1.602675e-11	-2.955860e+00	-2.030949e-01
2.210000e-06	-3.540235e-07	-1.967799e-11	-2.924186e+00	-2.162808e-01
2.220000e-06	-3.501738e-07	-2.157417e-11	-2.892388e+00	-2.288770e-01
2.230000e-06	-3.463083e-07	-2.477734e-11	-2.860460e+00	-2.409492e-01
2.240000e-06	-3.424313e-07	-3.172406e-11	-2.828436e+00	-2.525567e-01
2.250000e-06	-3.385520e-07	-3.771846e-11	-2.796394e+00	-2.637453e-01
2.260000e-06	-3.346666e-07	-3.952334e-11	-2.764301e+00	-2.745409e-01
2.270000e-06	-3.307726e-07	-3.903530e-11	-2.732137e+00	-2.849446e-01
2.280000e-06	-3.268680e-07	-4.018610e-11	-2.699886e+00	-2.949308e-01
2.290000e-06	-3.229580e-07	-4.092694e-11	-2.667589e+00	-3.044459e-01
2.300000e-06	-3.190461e-07	-3.749882e-11	-2.635278e+00	-3.134109e-01
2.310000e-06	-3.151250e-07	-3.471816e-11	-2.602890e+00	-3.217243e-01
2.320000e-06	-3.111930e-07	-3.817301e-11	-2.570412e+00	-3.292684e-01
2.330000e-06	-3.072521e-07	-4.544885e-11	-2.537861e+00	-3.359165e-01
2.340000e-06	-3.033117e-07	-4.895485e-11	-2.505314e+00	-3.415408e-01
2.350000e-06	-2.993697e-07	-4.770583e-11	-2.472753e+00	-3.460217e-01
2.360000e-06	-2.954143e-07	-4.973397e-11	-2.440082e+00	-3.492568e-01
2.370000e-06	-2.914533e-07	-5.312270e-11	-2.407365e+00	-3.511694e-01
2.380000e-06	-2.874897e-07	-4.825987e-11	-2.374626e+00	-3.517163e-01
2.390000e-06	-2.835163e-07	-3.790407e-11	-2.341806e+00	-3.508933e-01
2.400000e-06	-2.795272e-07	-3.186567e-11	-2.308857e+00	-3.487402e-01
2.410000e-06	-2.755267e-07	-3.211114e-11	-2.275814e+00	-3.453423e-01
2.420000e-06	-2.715374e-07	-3.274069e-11	-2.242863e+00	-3.408301e-01
2.430000e-06	-2.675456e-07	-2.905807e-11	-2.209890e+00	-3.353763e-01
2.440000e-06	-2.635355e-07	-2.745094e-11	-2.176768e+00	-3.291909e-01
2.450000e-06	-2.595183e-07	-3.463870e-11	-2.143586e+00	-3.225138e-01
2.460000e-06	-2.554843e-07	-4.071575e-11	-2.110266e+00	-3.156053e-01
2.470000e-06	-2.514369e-07	-3.623024e-11	-2.076835e+00	-3.087356e-01
2.480000e-06	-2.473852e-07	-2.452504e-11	-2.043368e+00	-3.021734e-01
2.490000e-06	-2.433216e-07	-1.404098e-11	-2.009804e+00	-2.961744e-01
2.500000e-06	-2.392624e-07	-9.943668e-12	-1.976275e+00	-2.909692e-01
2.510000e-06	-2.352206e-07	-5.733231e-12	-1.942891e+00	-2.867536e-01
2.520000e-06	-2.311732e-07	4.320914e-13	-1.909459e+00	-2.836789e-01
2.530000e-06	-2.271149e-07	-8.953616e-13	-1.875939e+00	-2.818453e-01
2.540000e-06	-2.230471e-07	-1.089273e-11	-1.842339e+00	-2.812971e-01
2.550000e-06	-2.189699e-07	-1.614647e-11	-1.808662e+00	-2.820204e-01
2.560000e-06	-2.148910e-07	-7.781708e-12	-1.774971e+00	-2.839444e-01
2.570000e-06	-2.108071e-07	3.590286e-12	-1.741238e+00	-2.869444e-01
2.580000e-06	-2.067081e-07	7.547326e-12	-1.707381e+00	-2.908484e-01
2.590000e-06	-2.025984e-07	5.657301e-12	-1.673436e+00	-2.954455e-01
2.600000e-06	-1.984929e-07	1.030346e-11	-1.639525e+00	-3.004961e-01
2.610000e-06	-1.943923e-07	1.854426e-11	-1.605654e+00	-3.057443e-01
2.620000e-06	-1.902919e-07	1.580017e-11	-1.571786e+00	-3.109304e-01
2.630000e-06	-1.861853e-07	6.354688e-12	-1.537866e+00	-3.158038e-01
2.640000e-06	-1.820739e-07	4.892183e-12	-1.503906e+00	-3.201355e-01
2.650000e-06	-1.779562e-07	1.008502e-11	-1.469895e+00	-3.237297e-01
2.660000e-06	-1.738357e-07	8.329963e-12	-1.435859e+00	-3.264329e-01
2.670000e-06	-1.697167e-07	4.350453e-12	-1.401837e+00	-3.281422e-01
2.680000e-06	-1.655951e-07	6.258118e-12	-1.367794e+00	-3.288095e-01
2.690000e-06	-1.614681e-07	1.071950e-11	-1.333705e+00	-3.284440e-01
2.700000e-06	-1.573410e-07	1.081144e-11	-1.299615e+00	-3.271108e-01
2.710000e-06	-1.532161e-07	7.252154e-12	-1.265544e+00	-3.249278e-01
2.720000e-06	-1.490880e-07	1.125767e-11	-1.231447e+00	-3.220585e-01
2.730000e-06	-1.449556e-07	2.051471e-11	-1.197314e+00	-3.187031e-01
2.740000e-06	-1.408204e-07	2.310102e-11	-1.163157e+00	-3.150877e-01
2.750000e-06	-1.366776e-07	1.659388e-11	-1.128938e+00	-3.114521e-01
2.760000e-06	-1.325338e-07	6.863077e-12	-1.094711e+00	-3.080358e-01
2.770000e-06	-1.283968e-07	3.292193e-12	-1.060540e+00	-3.050657e-01
2.780000e-06	-1.242560e-07	5.786720e-12	-1.026338e+00	-3.027426e-01
2.790000e-06	-1.201141e-07	7.143716e-12	-9.921261e-01	-3.012303e-01
2.800000e-06	-1.159725e-07	3.088810e-12	-9.579170e-01	-3.006452e-01
2.810000e-06	-1.118286e-07	-3.428336e-12	-9.236890e-01	-3.010492e-01
2.820000e-06	-1.076819e-07	-6.739295e-12	-8.894382e-01	-3.024451e-01
2.830000e-06	-1.035326e-07	-7.454702e-12	-8.551652e-01	-3.047742e-01
2.840000e-06	-9.938568e-08	-8.841862e-12	-8.209124e-01	-3.079181e-01
2.850000e-06	-9.523112e-08	-1.367334e-11	-7.865963e-01	-3.117022e-01
2.860000e-06	-9.106979e-08	-1.942148e-11	-7.522242e-01	-3.159030e-01
2.870000e-06	-8.691477e-08	-2.409724e-11	-7.179043e-01	-3.202573e-01
