# Temperatura_=_20.0
# Concentracion g/m^3_=_10000.0
# C_Vs_to_Am_M_A/Vsm_=_65563218390.804596
# pendiente_HvsI_1/m_=_3716.3
# ordenada_HvsI_A/m_=_1297.0
# frecuencia_Hz_=_81115.3016707191

Tiempo_(s)	Campo_(V.s)	Magnetizacion_(V.s)	Campo_(kA/m)	Magnetizacion_(A/m)
0.000000e+00	-8.316737e-07	-1.265839e-09	-6.869503e+00	-8.392690e+01
1.000000e-08	-8.316431e-07	-1.269066e-09	-6.869251e+00	-8.405972e+01
2.000000e-08	-8.316180e-07	-1.274813e-09	-6.869044e+00	-8.419069e+01
3.000000e-08	-8.315817e-07	-1.281340e-09	-6.868744e+00	-8.431815e+01
4.000000e-08	-8.315238e-07	-1.283150e-09	-6.868265e+00	-8.444059e+01
5.000000e-08	-8.314456e-07	-1.278646e-09	-6.867620e+00	-8.455674e+01
6.000000e-08	-8.313461e-07	-1.275603e-09	-6.866798e+00	-8.466554e+01
7.000000e-08	-8.312397e-07	-1.271667e-09	-6.865919e+00	-8.476620e+01
8.000000e-08	-8.311292e-07	-1.270271e-09	-6.865006e+00	-8.485814e+01
9.000000e-08	-8.310004e-07	-1.267369e-09	-6.863942e+00	-8.494104e+01
1.000000e-07	-8.308480e-07	-1.263054e-09	-6.862684e+00	-8.501478e+01
1.100000e-07	-8.306725e-07	-1.272727e-09	-6.861234e+00	-8.507939e+01
1.200000e-07	-8.304779e-07	-1.288272e-09	-6.859627e+00	-8.513506e+01
1.300000e-07	-8.302615e-07	-1.296267e-09	-6.857839e+00	-8.518205e+01
1.400000e-07	-8.300176e-07	-1.299507e-09	-6.855824e+00	-8.522068e+01
1.500000e-07	-8.297386e-07	-1.297954e-09	-6.853520e+00	-8.525125e+01
1.600000e-07	-8.294288e-07	-1.283595e-09	-6.850961e+00	-8.527405e+01
1.700000e-07	-8.290833e-07	-1.261975e-09	-6.848108e+00	-8.528928e+01
1.800000e-07	-8.286896e-07	-1.255851e-09	-6.844855e+00	-8.529707e+01
1.900000e-07	-8.282672e-07	-1.266239e-09	-6.841366e+00	-8.529741e+01
2.000000e-07	-8.278202e-07	-1.282769e-09	-6.837674e+00	-8.529024e+01
2.100000e-07	-8.273492e-07	-1.298356e-09	-6.833784e+00	-8.527535e+01
2.200000e-07	-8.268555e-07	-1.304618e-09	-6.829706e+00	-8.525250e+01
2.300000e-07	-8.263413e-07	-1.308937e-09	-6.825459e+00	-8.522136e+01
2.400000e-07	-8.258222e-07	-1.304720e-09	-6.821171e+00	-8.518160e+01
2.500000e-07	-8.252892e-07	-1.291933e-09	-6.816769e+00	-8.513293e+01
2.600000e-07	-8.247360e-07	-1.281048e-09	-6.812199e+00	-8.507511e+01
2.700000e-07	-8.241655e-07	-1.271500e-09	-6.807487e+00	-8.500798e+01
2.800000e-07	-8.235899e-07	-1.270997e-09	-6.802733e+00	-8.493156e+01
2.900000e-07	-8.230076e-07	-1.276193e-09	-6.797923e+00	-8.484603e+01
3.000000e-07	-8.224002e-07	-1.280086e-09	-6.792906e+00	-8.475175e+01
3.100000e-07	-8.217609e-07	-1.279447e-09	-6.787626e+00	-8.464931e+01
3.200000e-07	-8.210880e-07	-1.277223e-09	-6.782068e+00	-8.453949e+01
3.300000e-07	-8.203922e-07	-1.278123e-09	-6.776320e+00	-8.442330e+01
3.400000e-07	-8.196845e-07	-1.276279e-09	-6.770475e+00	-8.430190e+01
3.500000e-07	-8.189658e-07	-1.277714e-09	-6.764538e+00	-8.417662e+01
3.600000e-07	-8.182251e-07	-1.279749e-09	-6.758420e+00	-8.404891e+01
3.700000e-07	-8.174606e-07	-1.275440e-09	-6.752105e+00	-8.392026e+01
3.800000e-07	-8.166682e-07	-1.266655e-09	-6.745561e+00	-8.379219e+01
3.900000e-07	-8.158420e-07	-1.260030e-09	-6.738736e+00	-8.366618e+01
4.000000e-07	-8.149932e-07	-1.262450e-09	-6.731725e+00	-8.354359e+01
4.100000e-07	-8.141372e-07	-1.265320e-09	-6.724655e+00	-8.342566e+01
4.200000e-07	-8.132659e-07	-1.267696e-09	-6.717458e+00	-8.331343e+01
4.300000e-07	-8.123669e-07	-1.266776e-09	-6.710033e+00	-8.320773e+01
4.400000e-07	-8.114488e-07	-1.267894e-09	-6.702449e+00	-8.310910e+01
4.500000e-07	-8.105202e-07	-1.270428e-09	-6.694779e+00	-8.301787e+01
4.600000e-07	-8.095818e-07	-1.268069e-09	-6.687028e+00	-8.293406e+01
4.700000e-07	-8.086330e-07	-1.262822e-09	-6.679191e+00	-8.285745e+01
4.800000e-07	-8.076719e-07	-1.252946e-09	-6.671252e+00	-8.278761e+01
4.900000e-07	-8.066920e-07	-1.250268e-09	-6.663159e+00	-8.272388e+01
5.000000e-07	-8.056913e-07	-1.256318e-09	-6.654893e+00	-8.266544e+01
5.100000e-07	-8.046529e-07	-1.262501e-09	-6.646316e+00	-8.261137e+01
5.200000e-07	-8.035658e-07	-1.265289e-09	-6.637337e+00	-8.256068e+01
5.300000e-07	-8.024458e-07	-1.266279e-09	-6.628086e+00	-8.251237e+01
5.400000e-07	-8.013059e-07	-1.269702e-09	-6.618670e+00	-8.246546e+01
5.500000e-07	-8.001348e-07	-1.268455e-09	-6.608997e+00	-8.241906e+01
5.600000e-07	-7.989242e-07	-1.257498e-09	-6.598998e+00	-8.237239e+01
5.700000e-07	-7.976874e-07	-1.244475e-09	-6.588781e+00	-8.232479e+01
5.800000e-07	-7.964217e-07	-1.241066e-09	-6.578327e+00	-8.227578e+01
5.900000e-07	-7.951308e-07	-1.248989e-09	-6.567665e+00	-8.222503e+01
6.000000e-07	-7.938225e-07	-1.258339e-09	-6.556859e+00	-8.217234e+01
6.100000e-07	-7.925017e-07	-1.264759e-09	-6.545949e+00	-8.211769e+01
6.200000e-07	-7.911619e-07	-1.270773e-09	-6.534882e+00	-8.206114e+01
6.300000e-07	-7.897971e-07	-1.275119e-09	-6.523609e+00	-8.200284e+01
6.400000e-07	-7.884178e-07	-1.271223e-09	-6.512216e+00	-8.194298e+01
6.500000e-07	-7.870114e-07	-1.260349e-09	-6.500600e+00	-8.188174e+01
6.600000e-07	-7.855666e-07	-1.252403e-09	-6.488666e+00	-8.181928e+01
6.700000e-07	-7.841054e-07	-1.252855e-09	-6.476597e+00	-8.175565e+01
6.800000e-07	-7.826355e-07	-1.257473e-09	-6.464456e+00	-8.169082e+01
6.900000e-07	-7.811400e-07	-1.258275e-09	-6.452103e+00	-8.162459e+01
7.000000e-07	-7.796221e-07	-1.257676e-09	-6.439565e+00	-8.155663e+01
7.100000e-07	-7.780823e-07	-1.261076e-09	-6.426847e+00	-8.148643e+01
7.200000e-07	-7.765244e-07	-1.267954e-09	-6.413978e+00	-8.141331e+01
7.300000e-07	-7.749415e-07	-1.268540e-09	-6.400904e+00	-8.133649e+01
7.400000e-07	-7.733357e-07	-1.259966e-09	-6.387640e+00	-8.125501e+01
7.500000e-07	-7.717177e-07	-1.251130e-09	-6.374276e+00	-8.116787e+01
7.600000e-07	-7.700557e-07	-1.246388e-09	-6.360548e+00	-8.107401e+01
7.700000e-07	-7.683619e-07	-1.243568e-09	-6.346557e+00	-8.097235e+01
7.800000e-07	-7.666537e-07	-1.239345e-09	-6.332448e+00	-8.086188e+01
7.900000e-07	-7.649143e-07	-1.237863e-09	-6.318081e+00	-8.074166e+01
8.000000e-07	-7.631540e-07	-1.242987e-09	-6.303541e+00	-8.061092e+01
8.100000e-07	-7.613720e-07	-1.251103e-09	-6.288822e+00	-8.046902e+01
8.200000e-07	-7.595618e-07	-1.255530e-09	-6.273870e+00	-8.031556e+01
8.300000e-07	-7.577403e-07	-1.250904e-09	-6.258824e+00	-8.015034e+01
8.400000e-07	-7.559083e-07	-1.241493e-09	-6.243693e+00	-7.997343e+01
8.500000e-07	-7.540557e-07	-1.235128e-09	-6.228390e+00	-7.978509e+01
8.600000e-07	-7.521844e-07	-1.229869e-09	-6.212934e+00	-7.958583e+01
8.700000e-07	-7.502925e-07	-1.222200e-09	-6.197307e+00	-7.937638e+01
8.800000e-07	-7.483851e-07	-1.215195e-09	-6.181552e+00	-7.915760e+01
8.900000e-07	-7.464706e-07	-1.214706e-09	-6.165738e+00	-7.893052e+01
9.000000e-07	-7.445352e-07	-1.217581e-09	-6.149752e+00	-7.869625e+01
9.100000e-07	-7.425637e-07	-1.216884e-09	-6.133468e+00	-7.845593e+01
9.200000e-07	-7.405692e-07	-1.210624e-09	-6.116994e+00	-7.821072e+01
9.300000e-07	-7.385466e-07	-1.203907e-09	-6.100288e+00	-7.796172e+01
9.400000e-07	-7.365038e-07	-1.201005e-09	-6.083414e+00	-7.770995e+01
9.500000e-07	-7.344514e-07	-1.196789e-09	-6.066462e+00	-7.745634e+01
9.600000e-07	-7.323770e-07	-1.188186e-09	-6.049328e+00	-7.720164e+01
9.700000e-07	-7.302820e-07	-1.178844e-09	-6.032023e+00	-7.694649e+01
9.800000e-07	-7.281775e-07	-1.175911e-09	-6.014640e+00	-7.669134e+01
9.900000e-07	-7.260634e-07	-1.176530e-09	-5.997178e+00	-7.643651e+01
1.000000e-06	-7.239375e-07	-1.173696e-09	-5.979618e+00	-7.618219e+01
1.010000e-06	-7.218048e-07	-1.168571e-09	-5.962002e+00	-7.592846e+01
1.020000e-06	-7.196625e-07	-1.166418e-09	-5.944308e+00	-7.567531e+01
1.030000e-06	-7.175085e-07	-1.166261e-09	-5.926516e+00	-7.542269e+01
1.040000e-06	-7.153483e-07	-1.161552e-09	-5.908673e+00	-7.517053e+01
1.050000e-06	-7.131755e-07	-1.154664e-09	-5.890726e+00	-7.491881e+01
1.060000e-06	-7.109823e-07	-1.151911e-09	-5.872611e+00	-7.466754e+01
1.070000e-06	-7.087709e-07	-1.151997e-09	-5.854344e+00	-7.441682e+01
1.080000e-06	-7.065281e-07	-1.149725e-09	-5.835820e+00	-7.416684e+01
1.090000e-06	-7.042602e-07	-1.143767e-09	-5.817087e+00	-7.391792e+01
1.100000e-06	-7.019709e-07	-1.139177e-09	-5.798178e+00	-7.367047e+01
1.110000e-06	-6.996673e-07	-1.140083e-09	-5.779150e+00	-7.342502e+01
1.120000e-06	-6.973502e-07	-1.139953e-09	-5.760011e+00	-7.318215e+01
1.130000e-06	-6.950043e-07	-1.133715e-09	-5.740634e+00	-7.294254e+01
1.140000e-06	-6.926460e-07	-1.130775e-09	-5.721155e+00	-7.270684e+01
1.150000e-06	-6.902806e-07	-1.133179e-09	-5.701617e+00	-7.247571e+01
1.160000e-06	-6.878966e-07	-1.131276e-09	-5.681926e+00	-7.224974e+01
1.170000e-06	-6.854898e-07	-1.124267e-09	-5.662046e+00	-7.202941e+01
1.180000e-06	-6.830607e-07	-1.117528e-09	-5.641982e+00	-7.181504e+01
1.190000e-06	-6.806211e-07	-1.114268e-09	-5.621831e+00	-7.160679e+01
1.200000e-06	-6.781713e-07	-1.111999e-09	-5.601596e+00	-7.140459e+01
1.210000e-06	-6.757053e-07	-1.108999e-09	-5.581227e+00	-7.120814e+01
1.220000e-06	-6.732260e-07	-1.107194e-09	-5.560749e+00	-7.101690e+01
1.230000e-06	-6.707340e-07	-1.109984e-09	-5.540165e+00	-7.083010e+01
1.240000e-06	-6.682285e-07	-1.114139e-09	-5.519470e+00	-7.064672e+01
1.250000e-06	-6.657071e-07	-1.113474e-09	-5.498644e+00	-7.046558e+01
1.260000e-06	-6.631697e-07	-1.107114e-09	-5.477685e+00	-7.028530e+01
1.270000e-06	-6.606218e-07	-1.099272e-09	-5.456640e+00	-7.010442e+01
1.280000e-06	-6.580534e-07	-1.094660e-09	-5.435426e+00	-6.992139e+01
1.290000e-06	-6.554747e-07	-1.090662e-09	-5.414126e+00	-6.973467e+01
1.300000e-06	-6.528821e-07	-1.085576e-09	-5.392711e+00	-6.954278e+01
1.310000e-06	-6.502684e-07	-1.085420e-09	-5.371123e+00	-6.934433e+01
1.320000e-06	-6.476330e-07	-1.089447e-09	-5.349355e+00	-6.913813e+01
1.330000e-06	-6.449528e-07	-1.088519e-09	-5.327216e+00	-6.892316e+01
1.340000e-06	-6.422513e-07	-1.081872e-09	-5.304902e+00	-6.869870e+01
1.350000e-06	-6.395155e-07	-1.075114e-09	-5.282305e+00	-6.846427e+01
1.360000e-06	-6.367473e-07	-1.071587e-09	-5.259440e+00	-6.821971e+01
1.370000e-06	-6.339689e-07	-1.066850e-09	-5.236491e+00	-6.796513e+01
1.380000e-06	-6.311531e-07	-1.056453e-09	-5.213233e+00	-6.770095e+01
1.390000e-06	-6.283177e-07	-1.047944e-09	-5.189812e+00	-6.742783e+01
1.400000e-06	-6.254695e-07	-1.046477e-09	-5.166287e+00	-6.714666e+01
1.410000e-06	-6.225945e-07	-1.045810e-09	-5.142540e+00	-6.685851e+01
1.420000e-06	-6.197003e-07	-1.041587e-09	-5.118634e+00	-6.656458e+01
1.430000e-06	-6.167970e-07	-1.036549e-09	-5.094654e+00	-6.626613e+01
1.440000e-06	-6.138851e-07	-1.035553e-09	-5.070601e+00	-6.596444e+01
1.450000e-06	-6.109608e-07	-1.035800e-09	-5.046447e+00	-6.566073e+01
1.460000e-06	-6.080310e-07	-1.029040e-09	-5.022248e+00	-6.535611e+01
1.470000e-06	-6.051000e-07	-1.013915e-09	-4.998038e+00	-6.505154e+01
1.480000e-06	-6.021594e-07	-9.997854e-10	-4.973749e+00	-6.474780e+01
1.490000e-06	-5.992063e-07	-9.952125e-10	-4.949356e+00	-6.444541e+01
1.500000e-06	-5.962460e-07	-9.939837e-10	-4.924906e+00	-6.414468e+01
1.510000e-06	-5.932687e-07	-9.898709e-10	-4.900313e+00	-6.384564e+01
1.520000e-06	-5.902754e-07	-9.870979e-10	-4.875589e+00	-6.354808e+01
1.530000e-06	-5.872729e-07	-9.876118e-10	-4.850789e+00	-6.325155e+01
1.540000e-06	-5.842442e-07	-9.868660e-10	-4.825772e+00	-6.295541e+01
1.550000e-06	-5.811994e-07	-9.796526e-10	-4.800623e+00	-6.265884e+01
1.560000e-06	-5.781443e-07	-9.675038e-10	-4.775388e+00	-6.236090e+01
1.570000e-06	-5.750719e-07	-9.581740e-10	-4.750010e+00	-6.206056e+01
1.580000e-06	-5.719833e-07	-9.536188e-10	-4.724499e+00	-6.175678e+01
1.590000e-06	-5.688780e-07	-9.492592e-10	-4.698849e+00	-6.144854e+01
1.600000e-06	-5.657679e-07	-9.415897e-10	-4.673161e+00	-6.113488e+01
1.610000e-06	-5.626488e-07	-9.349657e-10	-4.647398e+00	-6.081497e+01
1.620000e-06	-5.595141e-07	-9.327822e-10	-4.621505e+00	-6.048814e+01
1.630000e-06	-5.563708e-07	-9.314367e-10	-4.595542e+00	-6.015391e+01
1.640000e-06	-5.532215e-07	-9.264606e-10	-4.569529e+00	-5.981200e+01
1.650000e-06	-5.500565e-07	-9.191792e-10	-4.543386e+00	-5.946236e+01
1.660000e-06	-5.468719e-07	-9.137706e-10	-4.517082e+00	-5.910516e+01
1.670000e-06	-5.436632e-07	-9.070547e-10	-4.490579e+00	-5.874080e+01
1.680000e-06	-5.404430e-07	-8.978318e-10	-4.463981e+00	-5.836988e+01
1.690000e-06	-5.372179e-07	-8.903307e-10	-4.437342e+00	-5.799319e+01
1.700000e-06	-5.339688e-07	-8.861988e-10	-4.410504e+00	-5.761165e+01
1.710000e-06	-5.307100e-07	-8.839871e-10	-4.383588e+00	-5.722635e+01
1.720000e-06	-5.274400e-07	-8.809074e-10	-4.356578e+00	-5.683844e+01
1.730000e-06	-5.241617e-07	-8.755249e-10	-4.329500e+00	-5.644910e+01
1.740000e-06	-5.208776e-07	-8.704535e-10	-4.302373e+00	-5.605957e+01
1.750000e-06	-5.175706e-07	-8.649574e-10	-4.275058e+00	-5.567103e+01
1.760000e-06	-5.142520e-07	-8.584851e-10	-4.247646e+00	-5.528463e+01
1.770000e-06	-5.109328e-07	-8.506451e-10	-4.220231e+00	-5.490143e+01
1.780000e-06	-5.076100e-07	-8.429327e-10	-4.192785e+00	-5.452236e+01
1.790000e-06	-5.042751e-07	-8.392839e-10	-4.165239e+00	-5.414827e+01
1.800000e-06	-5.009274e-07	-8.386621e-10	-4.137587e+00	-5.377984e+01
1.810000e-06	-4.975685e-07	-8.375067e-10	-4.109844e+00	-5.341762e+01
1.820000e-06	-4.942066e-07	-8.347561e-10	-4.082075e+00	-5.306198e+01
1.830000e-06	-4.908318e-07	-8.311760e-10	-4.054199e+00	-5.271320e+01
1.840000e-06	-4.874365e-07	-8.259666e-10	-4.026154e+00	-5.237135e+01
1.850000e-06	-4.840291e-07	-8.177808e-10	-3.998010e+00	-5.203643e+01
1.860000e-06	-4.806156e-07	-8.087091e-10	-3.969815e+00	-5.170827e+01
1.870000e-06	-4.771884e-07	-8.005639e-10	-3.941507e+00	-5.138661e+01
1.880000e-06	-4.737270e-07	-7.954801e-10	-3.912916e+00	-5.107110e+01
1.890000e-06	-4.702377e-07	-7.937979e-10	-3.884095e+00	-5.076130e+01
1.900000e-06	-4.667399e-07	-7.919975e-10	-3.855204e+00	-5.045669e+01
1.910000e-06	-4.632281e-07	-7.900654e-10	-3.826197e+00	-5.015673e+01
1.920000e-06	-4.596890e-07	-7.880072e-10	-3.796964e+00	-4.986079e+01
1.930000e-06	-4.561292e-07	-7.855237e-10	-3.767561e+00	-4.956826e+01
1.940000e-06	-4.525546e-07	-7.818930e-10	-3.738035e+00	-4.927848e+01
1.950000e-06	-4.489631e-07	-7.770937e-10	-3.708369e+00	-4.899079e+01
1.960000e-06	-4.453591e-07	-7.716233e-10	-3.678602e+00	-4.870454e+01
1.970000e-06	-4.417384e-07	-7.672037e-10	-3.648695e+00	-4.841908e+01
1.980000e-06	-4.380867e-07	-7.636863e-10	-3.618533e+00	-4.813378e+01
1.990000e-06	-4.344171e-07	-7.595165e-10	-3.588222e+00	-4.784803e+01
2.000000e-06	-4.307429e-07	-7.545502e-10	-3.557873e+00	-4.756127e+01
2.010000e-06	-4.270541e-07	-7.471495e-10	-3.527404e+00	-4.727296e+01
2.020000e-06	-4.233512e-07	-7.398194e-10	-3.496819e+00	-4.698261e+01
2.030000e-06	-4.196462e-07	-7.371848e-10	-3.466216e+00	-4.668976e+01
2.040000e-06	-4.159385e-07	-7.385874e-10	-3.435592e+00	-4.639403e+01
2.050000e-06	-4.122237e-07	-7.399258e-10	-3.404908e+00	-4.609507e+01
2.060000e-06	-4.085002e-07	-7.365888e-10	-3.374152e+00	-4.579258e+01
2.070000e-06	-4.047725e-07	-7.293065e-10	-3.343362e+00	-4.548634e+01
2.080000e-06	-4.010462e-07	-7.225907e-10	-3.312583e+00	-4.517613e+01
2.090000e-06	-3.973194e-07	-7.159636e-10	-3.281800e+00	-4.486182e+01
2.100000e-06	-3.935828e-07	-7.078380e-10	-3.250937e+00	-4.454331e+01
2.110000e-06	-3.898326e-07	-7.028095e-10	-3.219960e+00	-4.422051e+01
2.120000e-06	-3.860748e-07	-7.020093e-10	-3.188922e+00	-4.389337e+01
2.130000e-06	-3.823046e-07	-6.996776e-10	-3.157780e+00	-4.356188e+01
2.140000e-06	-3.785252e-07	-6.951448e-10	-3.126563e+00	-4.322599e+01
2.150000e-06	-3.747453e-07	-6.880394e-10	-3.095342e+00	-4.288569e+01
2.160000e-06	-3.709581e-07	-6.781991e-10	-3.064060e+00	-4.254094e+01
2.170000e-06	-3.671588e-07	-6.687289e-10	-3.032678e+00	-4.219170e+01
2.180000e-06	-3.633506e-07	-6.603880e-10	-3.001223e+00	-4.183789e+01
2.190000e-06	-3.595349e-07	-6.541694e-10	-2.969706e+00	-4.147944e+01
2.200000e-06	-3.557122e-07	-6.491931e-10	-2.938131e+00	-4.111621e+01
2.210000e-06	-3.518790e-07	-6.426598e-10	-2.906470e+00	-4.074809e+01
2.220000e-06	-3.480210e-07	-6.368336e-10	-2.874602e+00	-4.037491e+01
2.230000e-06	-3.441508e-07	-6.348723e-10	-2.842636e+00	-3.999652e+01
2.240000e-06	-3.402781e-07	-6.336658e-10	-2.810648e+00	-3.961276e+01
2.250000e-06	-3.363945e-07	-6.281789e-10	-2.778569e+00	-3.922348e+01
2.260000e-06	-3.325038e-07	-6.197303e-10	-2.746433e+00	-3.882855e+01
2.270000e-06	-3.286113e-07	-6.122827e-10	-2.714282e+00	-3.842789e+01
2.280000e-06	-3.247215e-07	-6.048353e-10	-2.682152e+00	-3.802146e+01
2.290000e-06	-3.208210e-07	-5.954317e-10	-2.649935e+00	-3.760928e+01
2.300000e-06	-3.169001e-07	-5.857133e-10	-2.617548e+00	-3.719145e+01
2.310000e-06	-3.129696e-07	-5.796244e-10	-2.585083e+00	-3.676815e+01
2.320000e-06	-3.090373e-07	-5.785987e-10	-2.552603e+00	-3.633963e+01
2.330000e-06	-3.050948e-07	-5.782341e-10	-2.520039e+00	-3.590627e+01
2.340000e-06	-3.011415e-07	-5.731762e-10	-2.487385e+00	-3.546849e+01
2.350000e-06	-2.971758e-07	-5.647424e-10	-2.454629e+00	-3.502682e+01
2.360000e-06	-2.932098e-07	-5.561344e-10	-2.421870e+00	-3.458188e+01
2.370000e-06	-2.892563e-07	-5.453394e-10	-2.389215e+00	-3.413434e+01
2.380000e-06	-2.852873e-07	-5.323772e-10	-2.356431e+00	-3.368493e+01
2.390000e-06	-2.813009e-07	-5.221221e-10	-2.323504e+00	-3.323440e+01
2.400000e-06	-2.773096e-07	-5.168728e-10	-2.290537e+00	-3.278356e+01
2.410000e-06	-2.733089e-07	-5.141041e-10	-2.257492e+00	-3.233319e+01
2.420000e-06	-2.693011e-07	-5.091633e-10	-2.224388e+00	-3.188409e+01
2.430000e-06	-2.652835e-07	-5.028163e-10	-2.191203e+00	-3.143700e+01
2.440000e-06	-2.612533e-07	-4.998860e-10	-2.157914e+00	-3.099265e+01
2.450000e-06	-2.572179e-07	-4.973011e-10	-2.124582e+00	-3.055169e+01
2.460000e-06	-2.531756e-07	-4.884898e-10	-2.091194e+00	-3.011472e+01
2.470000e-06	-2.491122e-07	-4.748600e-10	-2.057631e+00	-2.968228e+01
2.480000e-06	-2.450380e-07	-4.636587e-10	-2.023979e+00	-2.925482e+01
2.490000e-06	-2.409733e-07	-4.580448e-10	-1.990404e+00	-2.883271e+01
2.500000e-06	-2.369107e-07	-4.544995e-10	-1.956848e+00	-2.841626e+01
2.510000e-06	-2.328403e-07	-4.504636e-10	-1.923227e+00	-2.800571e+01
2.520000e-06	-2.287708e-07	-4.486488e-10	-1.889613e+00	-2.760122e+01
2.530000e-06	-2.246994e-07	-4.486535e-10	-1.855984e+00	-2.720290e+01
2.540000e-06	-2.206142e-07	-4.448770e-10	-1.822241e+00	-2.681080e+01
2.550000e-06	-2.165227e-07	-4.341930e-10	-1.788446e+00	-2.642493e+01
2.560000e-06	-2.124295e-07	-4.226730e-10	-1.754637e+00	-2.604523e+01
2.570000e-06	-2.083324e-07	-4.160944e-10	-1.720795e+00	-2.567161e+01
2.580000e-06	-2.042325e-07	-4.117273e-10	-1.686931e+00	-2.530393e+01
2.590000e-06	-2.001225e-07	-4.034066e-10	-1.652982e+00	-2.494202e+01
2.600000e-06	-1.960104e-07	-3.935066e-10	-1.619017e+00	-2.458563e+01
2.610000e-06	-1.919024e-07	-3.897263e-10	-1.585086e+00	-2.423449e+01
2.620000e-06	-1.877908e-07	-3.889239e-10	-1.551125e+00	-2.388823e+01
2.630000e-06	-1.836752e-07	-3.825720e-10	-1.517130e+00	-2.354643e+01
2.640000e-06	-1.795551e-07	-3.708614e-10	-1.483099e+00	-2.320860e+01
2.650000e-06	-1.754312e-07	-3.641878e-10	-1.449036e+00	-2.287415e+01
2.660000e-06	-1.713060e-07	-3.643377e-10	-1.414962e+00	-2.254239e+01
2.670000e-06	-1.671839e-07	-3.627401e-10	-1.380914e+00	-2.221257e+01
2.680000e-06	-1.630559e-07	-3.531327e-10	-1.346818e+00	-2.188381e+01
2.690000e-06	-1.589168e-07	-3.412517e-10	-1.312630e+00	-2.155516e+01
2.700000e-06	-1.547832e-07	-3.370786e-10	-1.278487e+00	-2.122559e+01
2.710000e-06	-1.506572e-07	-3.362137e-10	-1.244407e+00	-2.089399e+01
2.720000e-06	-1.465286e-07	-3.292835e-10	-1.210305e+00	-2.055919e+01
2.730000e-06	-1.423935e-07	-3.191752e-10	-1.176149e+00	-2.022001e+01
2.740000e-06	-1.382509e-07	-3.139163e-10	-1.141933e+00	-1.987524e+01
2.750000e-06	-1.341094e-07	-3.144533e-10	-1.107725e+00	-1.952368e+01
2.760000e-06	-1.299695e-07	-3.131053e-10	-1.073529e+00	-1.916420e+01
2.770000e-06	-1.258268e-07	-3.036540e-10	-1.039311e+00	-1.879573e+01
2.780000e-06	-1.216868e-07	-2.928836e-10	-1.005116e+00	-1.841730e+01
2.790000e-06	-1.175498e-07	-2.875972e-10	-9.709443e-01	-1.802807e+01
2.800000e-06	-1.134043e-07	-2.828294e-10	-9.367032e-01	-1.762735e+01
2.810000e-06	-1.092439e-07	-2.743162e-10	-9.023387e-01	-1.721463e+01
2.820000e-06	-1.050876e-07	-2.655714e-10	-8.680085e-01	-1.678959e+01
2.830000e-06	-1.009379e-07	-2.598707e-10	-8.337320e-01	-1.635211e+01
2.840000e-06	-9.678243e-08	-2.565280e-10	-7.994088e-01	-1.590226e+01
2.850000e-06	-9.262504e-08	-2.518559e-10	-7.650694e-01	-1.544034e+01
