# Temperatura_=_20.0
# Concentracion g/m^3_=_10000.0
# C_Vs_to_Am_M_A/Vsm_=_65563218390.804596
# pendiente_HvsI_1/m_=_3716.3
# ordenada_HvsI_A/m_=_1297.0
# frecuencia_Hz_=_81115.25243020468

Tiempo_(s)	Campo_(V.s)	Magnetizacion_(V.s)	Campo_(kA/m)	Magnetizacion_(A/m)
0.000000e+00	-8.322468e-07	-1.252194e-09	-6.869140e+00	-8.114674e+01
1.000000e-08	-8.322257e-07	-1.259434e-09	-6.868966e+00	-8.126013e+01
2.000000e-08	-8.321964e-07	-1.267250e-09	-6.868724e+00	-8.139161e+01
3.000000e-08	-8.321626e-07	-1.269227e-09	-6.868445e+00	-8.153886e+01
4.000000e-08	-8.321191e-07	-1.264566e-09	-6.868086e+00	-8.169938e+01
5.000000e-08	-8.320614e-07	-1.260505e-09	-6.867610e+00	-8.187058e+01
6.000000e-08	-8.319789e-07	-1.261448e-09	-6.866929e+00	-8.204985e+01
7.000000e-08	-8.318699e-07	-1.271626e-09	-6.866029e+00	-8.223466e+01
8.000000e-08	-8.317458e-07	-1.276486e-09	-6.865005e+00	-8.242259e+01
9.000000e-08	-8.316131e-07	-1.273527e-09	-6.863910e+00	-8.261142e+01
1.000000e-07	-8.314626e-07	-1.267086e-09	-6.862668e+00	-8.279912e+01
1.100000e-07	-8.312887e-07	-1.267382e-09	-6.861233e+00	-8.298393e+01
1.200000e-07	-8.310902e-07	-1.272104e-09	-6.859594e+00	-8.316434e+01
1.300000e-07	-8.308587e-07	-1.279872e-09	-6.857683e+00	-8.333912e+01
1.400000e-07	-8.306060e-07	-1.295706e-09	-6.855598e+00	-8.350727e+01
1.500000e-07	-8.303359e-07	-1.306420e-09	-6.853368e+00	-8.366802e+01
1.600000e-07	-8.300329e-07	-1.309970e-09	-6.850868e+00	-8.382081e+01
1.700000e-07	-8.296900e-07	-1.297701e-09	-6.848037e+00	-8.396521e+01
1.800000e-07	-8.293143e-07	-1.277504e-09	-6.844936e+00	-8.410088e+01
1.900000e-07	-8.289075e-07	-1.268689e-09	-6.841578e+00	-8.422755e+01
2.000000e-07	-8.284682e-07	-1.270717e-09	-6.837953e+00	-8.434493e+01
2.100000e-07	-8.280083e-07	-1.284106e-09	-6.834157e+00	-8.445268e+01
2.200000e-07	-8.275343e-07	-1.301135e-09	-6.830245e+00	-8.455039e+01
2.300000e-07	-8.270404e-07	-1.316261e-09	-6.826168e+00	-8.463751e+01
2.400000e-07	-8.265261e-07	-1.324471e-09	-6.821923e+00	-8.471337e+01
2.500000e-07	-8.259976e-07	-1.316094e-09	-6.817561e+00	-8.477716e+01
2.600000e-07	-8.254556e-07	-1.303868e-09	-6.813087e+00	-8.482791e+01
2.700000e-07	-8.248916e-07	-1.287843e-09	-6.808433e+00	-8.486455e+01
2.800000e-07	-8.243130e-07	-1.275272e-09	-6.803657e+00	-8.488591e+01
2.900000e-07	-8.237337e-07	-1.285030e-09	-6.798875e+00	-8.489079e+01
3.000000e-07	-8.231391e-07	-1.296852e-09	-6.793968e+00	-8.487797e+01
3.100000e-07	-8.225089e-07	-1.303167e-09	-6.788767e+00	-8.484633e+01
3.200000e-07	-8.218437e-07	-1.304024e-09	-6.783276e+00	-8.479483e+01
3.300000e-07	-8.211566e-07	-1.292878e-09	-6.777605e+00	-8.472264e+01
3.400000e-07	-8.204551e-07	-1.283458e-09	-6.771814e+00	-8.462915e+01
3.500000e-07	-8.197326e-07	-1.279368e-09	-6.765851e+00	-8.451406e+01
3.600000e-07	-8.189898e-07	-1.281471e-09	-6.759721e+00	-8.437738e+01
3.700000e-07	-8.182297e-07	-1.289171e-09	-6.753447e+00	-8.421950e+01
3.800000e-07	-8.174578e-07	-1.288936e-09	-6.747076e+00	-8.404118e+01
3.900000e-07	-8.166629e-07	-1.279290e-09	-6.740515e+00	-8.384358e+01
4.000000e-07	-8.158354e-07	-1.267783e-09	-6.733685e+00	-8.362822e+01
4.100000e-07	-8.149906e-07	-1.260143e-09	-6.726713e+00	-8.339696e+01
4.200000e-07	-8.141332e-07	-1.254537e-09	-6.719636e+00	-8.315198e+01
4.300000e-07	-8.132576e-07	-1.253698e-09	-6.712409e+00	-8.289574e+01
4.400000e-07	-8.123644e-07	-1.254034e-09	-6.705036e+00	-8.263085e+01
4.500000e-07	-8.114513e-07	-1.254818e-09	-6.697500e+00	-8.236009e+01
4.600000e-07	-8.105238e-07	-1.253802e-09	-6.689844e+00	-8.208628e+01
4.700000e-07	-8.095797e-07	-1.245872e-09	-6.682052e+00	-8.181223e+01
4.800000e-07	-8.086210e-07	-1.235157e-09	-6.674139e+00	-8.154066e+01
4.900000e-07	-8.076469e-07	-1.223034e-09	-6.666099e+00	-8.127415e+01
5.000000e-07	-8.066487e-07	-1.218581e-09	-6.657861e+00	-8.101507e+01
5.100000e-07	-8.056344e-07	-1.219464e-09	-6.649489e+00	-8.076552e+01
5.200000e-07	-8.045812e-07	-1.221722e-09	-6.640796e+00	-8.052733e+01
5.300000e-07	-8.034798e-07	-1.222620e-09	-6.631705e+00	-8.030200e+01
5.400000e-07	-8.023474e-07	-1.218493e-09	-6.622359e+00	-8.009070e+01
5.500000e-07	-8.011828e-07	-1.213485e-09	-6.612747e+00	-7.989429e+01
5.600000e-07	-7.999906e-07	-1.207856e-09	-6.602906e+00	-7.971330e+01
5.700000e-07	-7.987786e-07	-1.202580e-09	-6.592902e+00	-7.954800e+01
5.800000e-07	-7.975398e-07	-1.196004e-09	-6.582678e+00	-7.939838e+01
5.900000e-07	-7.962692e-07	-1.192139e-09	-6.572191e+00	-7.926420e+01
6.000000e-07	-7.949712e-07	-1.195896e-09	-6.561477e+00	-7.914507e+01
6.100000e-07	-7.936493e-07	-1.202300e-09	-6.550567e+00	-7.904044e+01
6.200000e-07	-7.923132e-07	-1.207180e-09	-6.539540e+00	-7.894966e+01
6.300000e-07	-7.909610e-07	-1.207013e-09	-6.528378e+00	-7.887202e+01
6.400000e-07	-7.895819e-07	-1.204766e-09	-6.516996e+00	-7.880678e+01
6.500000e-07	-7.881776e-07	-1.202723e-09	-6.505405e+00	-7.875318e+01
6.600000e-07	-7.867457e-07	-1.199838e-09	-6.493587e+00	-7.871044e+01
6.700000e-07	-7.852913e-07	-1.196683e-09	-6.481583e+00	-7.867783e+01
6.800000e-07	-7.838261e-07	-1.193808e-09	-6.469489e+00	-7.865460e+01
6.900000e-07	-7.823406e-07	-1.195744e-09	-6.457228e+00	-7.863999e+01
7.000000e-07	-7.808348e-07	-1.199317e-09	-6.444800e+00	-7.863325e+01
7.100000e-07	-7.793112e-07	-1.200681e-09	-6.432224e+00	-7.863357e+01
7.200000e-07	-7.777633e-07	-1.200773e-09	-6.419448e+00	-7.864010e+01
7.300000e-07	-7.761959e-07	-1.201337e-09	-6.406511e+00	-7.865192e+01
7.400000e-07	-7.746054e-07	-1.202232e-09	-6.393384e+00	-7.866801e+01
7.500000e-07	-7.729861e-07	-1.201237e-09	-6.380018e+00	-7.868725e+01
7.600000e-07	-7.713349e-07	-1.200314e-09	-6.366390e+00	-7.870840e+01
7.700000e-07	-7.696563e-07	-1.199629e-09	-6.352535e+00	-7.873013e+01
7.800000e-07	-7.679498e-07	-1.198493e-09	-6.338451e+00	-7.875097e+01
7.900000e-07	-7.662028e-07	-1.194675e-09	-6.324031e+00	-7.876937e+01
8.000000e-07	-7.644342e-07	-1.191476e-09	-6.309433e+00	-7.878370e+01
8.100000e-07	-7.626566e-07	-1.193880e-09	-6.294762e+00	-7.879229e+01
8.200000e-07	-7.608488e-07	-1.199262e-09	-6.279841e+00	-7.879344e+01
8.300000e-07	-7.590178e-07	-1.205362e-09	-6.264728e+00	-7.878549e+01
8.400000e-07	-7.571720e-07	-1.207608e-09	-6.249493e+00	-7.876682e+01
8.500000e-07	-7.553141e-07	-1.205654e-09	-6.234158e+00	-7.873593e+01
8.600000e-07	-7.534475e-07	-1.201691e-09	-6.218752e+00	-7.869141e+01
8.700000e-07	-7.515699e-07	-1.196055e-09	-6.203255e+00	-7.863206e+01
8.800000e-07	-7.496670e-07	-1.189991e-09	-6.187549e+00	-7.855683e+01
8.900000e-07	-7.477422e-07	-1.185504e-09	-6.171662e+00	-7.846491e+01
9.000000e-07	-7.458095e-07	-1.183629e-09	-6.155710e+00	-7.835566e+01
9.100000e-07	-7.438547e-07	-1.181793e-09	-6.139576e+00	-7.822871e+01
9.200000e-07	-7.418739e-07	-1.179668e-09	-6.123227e+00	-7.808387e+01
9.300000e-07	-7.398705e-07	-1.177835e-09	-6.106692e+00	-7.792114e+01
9.400000e-07	-7.378459e-07	-1.177095e-09	-6.089981e+00	-7.774073e+01
9.500000e-07	-7.358033e-07	-1.174571e-09	-6.073122e+00	-7.754296e+01
9.600000e-07	-7.337456e-07	-1.168340e-09	-6.056138e+00	-7.732829e+01
9.700000e-07	-7.316693e-07	-1.160354e-09	-6.039001e+00	-7.709727e+01
9.800000e-07	-7.295770e-07	-1.153220e-09	-6.021731e+00	-7.685051e+01
9.900000e-07	-7.274797e-07	-1.149888e-09	-6.004421e+00	-7.658866e+01
1.000000e-06	-7.253736e-07	-1.147890e-09	-5.987038e+00	-7.631236e+01
1.010000e-06	-7.232471e-07	-1.146770e-09	-5.969486e+00	-7.602228e+01
1.020000e-06	-7.211034e-07	-1.146187e-09	-5.951793e+00	-7.571905e+01
1.030000e-06	-7.189544e-07	-1.143400e-09	-5.934056e+00	-7.540330e+01
1.040000e-06	-7.167957e-07	-1.137754e-09	-5.916238e+00	-7.507567e+01
1.050000e-06	-7.146234e-07	-1.128334e-09	-5.898309e+00	-7.473677e+01
1.060000e-06	-7.124345e-07	-1.119454e-09	-5.880242e+00	-7.438727e+01
1.070000e-06	-7.102288e-07	-1.112940e-09	-5.862037e+00	-7.402790e+01
1.080000e-06	-7.080103e-07	-1.105616e-09	-5.843726e+00	-7.365944e+01
1.090000e-06	-7.057736e-07	-1.098457e-09	-5.825265e+00	-7.328279e+01
1.100000e-06	-7.035154e-07	-1.093108e-09	-5.806626e+00	-7.289899e+01
1.110000e-06	-7.012345e-07	-1.089796e-09	-5.787800e+00	-7.250923e+01
1.120000e-06	-6.989343e-07	-1.086359e-09	-5.768815e+00	-7.211484e+01
1.130000e-06	-6.966162e-07	-1.081942e-09	-5.749682e+00	-7.171735e+01
1.140000e-06	-6.942735e-07	-1.076288e-09	-5.730346e+00	-7.131844e+01
1.150000e-06	-6.919130e-07	-1.070852e-09	-5.710863e+00	-7.091994e+01
1.160000e-06	-6.895378e-07	-1.065286e-09	-5.691259e+00	-7.052379e+01
1.170000e-06	-6.871448e-07	-1.057836e-09	-5.671508e+00	-7.013204e+01
1.180000e-06	-6.847375e-07	-1.051865e-09	-5.651638e+00	-6.974677e+01
1.190000e-06	-6.823095e-07	-1.045796e-09	-5.631598e+00	-6.937003e+01
1.200000e-06	-6.798662e-07	-1.037553e-09	-5.611432e+00	-6.900383e+01
1.210000e-06	-6.774146e-07	-1.030264e-09	-5.591197e+00	-6.865004e+01
1.220000e-06	-6.749407e-07	-1.027365e-09	-5.570778e+00	-6.831032e+01
1.230000e-06	-6.724394e-07	-1.027481e-09	-5.550133e+00	-6.798611e+01
1.240000e-06	-6.699239e-07	-1.025986e-09	-5.529371e+00	-6.767855e+01
1.250000e-06	-6.673988e-07	-1.022886e-09	-5.508529e+00	-6.738843e+01
1.260000e-06	-6.648649e-07	-1.020225e-09	-5.487615e+00	-6.711621e+01
1.270000e-06	-6.623141e-07	-1.016795e-09	-5.466561e+00	-6.686193e+01
1.280000e-06	-6.597453e-07	-1.011873e-09	-5.445359e+00	-6.662530e+01
1.290000e-06	-6.571652e-07	-1.005229e-09	-5.424064e+00	-6.640563e+01
1.300000e-06	-6.545677e-07	-1.001309e-09	-5.402625e+00	-6.620192e+01
1.310000e-06	-6.519506e-07	-1.002292e-09	-5.381024e+00	-6.601288e+01
1.320000e-06	-6.493092e-07	-1.004478e-09	-5.359223e+00	-6.583696e+01
1.330000e-06	-6.466405e-07	-1.005032e-09	-5.337196e+00	-6.567247e+01
1.340000e-06	-6.439497e-07	-1.001609e-09	-5.314987e+00	-6.551759e+01
1.350000e-06	-6.412251e-07	-9.980523e-10	-5.292499e+00	-6.537049e+01
1.360000e-06	-6.384665e-07	-9.963479e-10	-5.269730e+00	-6.522933e+01
1.370000e-06	-6.356908e-07	-9.921366e-10	-5.246820e+00	-6.509243e+01
1.380000e-06	-6.328964e-07	-9.841860e-10	-5.223756e+00	-6.495821e+01
1.390000e-06	-6.300781e-07	-9.792156e-10	-5.200494e+00	-6.482533e+01
1.400000e-06	-6.272358e-07	-9.809629e-10	-5.177035e+00	-6.469266e+01
1.410000e-06	-6.243715e-07	-9.821365e-10	-5.153394e+00	-6.455932e+01
1.420000e-06	-6.214856e-07	-9.791188e-10	-5.129574e+00	-6.442470e+01
1.430000e-06	-6.185846e-07	-9.756117e-10	-5.105630e+00	-6.428842e+01
1.440000e-06	-6.156750e-07	-9.753363e-10	-5.081616e+00	-6.415030e+01
1.450000e-06	-6.127567e-07	-9.756581e-10	-5.057528e+00	-6.401034e+01
1.460000e-06	-6.098265e-07	-9.708842e-10	-5.033343e+00	-6.386864e+01
1.470000e-06	-6.068861e-07	-9.633456e-10	-5.009074e+00	-6.372538e+01
1.480000e-06	-6.039399e-07	-9.582627e-10	-4.984757e+00	-6.358070e+01
1.490000e-06	-6.009894e-07	-9.569257e-10	-4.960404e+00	-6.343470e+01
1.500000e-06	-5.980307e-07	-9.559880e-10	-4.935984e+00	-6.328732e+01
1.510000e-06	-5.950579e-07	-9.528775e-10	-4.911447e+00	-6.313833e+01
1.520000e-06	-5.920752e-07	-9.501990e-10	-4.886829e+00	-6.298727e+01
1.530000e-06	-5.890792e-07	-9.487811e-10	-4.862100e+00	-6.283340e+01
1.540000e-06	-5.860641e-07	-9.467949e-10	-4.837214e+00	-6.267571e+01
1.550000e-06	-5.830289e-07	-9.418867e-10	-4.812163e+00	-6.251293e+01
1.560000e-06	-5.799746e-07	-9.349276e-10	-4.786954e+00	-6.234349e+01
1.570000e-06	-5.769013e-07	-9.303034e-10	-4.761587e+00	-6.216565e+01
1.580000e-06	-5.738124e-07	-9.284511e-10	-4.736092e+00	-6.197743e+01
1.590000e-06	-5.707170e-07	-9.260864e-10	-4.710544e+00	-6.177678e+01
1.600000e-06	-5.676065e-07	-9.222163e-10	-4.684871e+00	-6.156157e+01
1.610000e-06	-5.644836e-07	-9.201077e-10	-4.659096e+00	-6.132972e+01
1.620000e-06	-5.613594e-07	-9.170962e-10	-4.633309e+00	-6.107926e+01
1.630000e-06	-5.582178e-07	-9.122743e-10	-4.607379e+00	-6.080840e+01
1.640000e-06	-5.550609e-07	-9.082966e-10	-4.581323e+00	-6.051564e+01
1.650000e-06	-5.519012e-07	-9.040841e-10	-4.555244e+00	-6.019980e+01
1.660000e-06	-5.487273e-07	-9.014390e-10	-4.529047e+00	-5.986010e+01
1.670000e-06	-5.455299e-07	-8.985560e-10	-4.502657e+00	-5.949619e+01
1.680000e-06	-5.423149e-07	-8.933438e-10	-4.476120e+00	-5.910819e+01
1.690000e-06	-5.390973e-07	-8.860837e-10	-4.449563e+00	-5.869671e+01
1.700000e-06	-5.358709e-07	-8.773809e-10	-4.422933e+00	-5.826280e+01
1.710000e-06	-5.326281e-07	-8.707929e-10	-4.396169e+00	-5.780798e+01
1.720000e-06	-5.293755e-07	-8.649519e-10	-4.369322e+00	-5.733417e+01
1.730000e-06	-5.261104e-07	-8.576041e-10	-4.342373e+00	-5.684366e+01
1.740000e-06	-5.228280e-07	-8.479814e-10	-4.315281e+00	-5.633901e+01
1.750000e-06	-5.195341e-07	-8.412692e-10	-4.288094e+00	-5.582302e+01
1.760000e-06	-5.162308e-07	-8.355650e-10	-4.260829e+00	-5.529866e+01
1.770000e-06	-5.129153e-07	-8.263855e-10	-4.233465e+00	-5.476894e+01
1.780000e-06	-5.095932e-07	-8.155329e-10	-4.206045e+00	-5.423689e+01
1.790000e-06	-5.062703e-07	-8.047616e-10	-4.178618e+00	-5.370545e+01
1.800000e-06	-5.029352e-07	-8.004915e-10	-4.151091e+00	-5.317745e+01
1.810000e-06	-4.995849e-07	-7.992404e-10	-4.123438e+00	-5.265550e+01
1.820000e-06	-4.962277e-07	-7.945768e-10	-4.095729e+00	-5.214200e+01
1.830000e-06	-4.928600e-07	-7.860911e-10	-4.067934e+00	-5.163907e+01
1.840000e-06	-4.894773e-07	-7.791444e-10	-4.040013e+00	-5.114854e+01
1.850000e-06	-4.860790e-07	-7.754075e-10	-4.011965e+00	-5.067198e+01
1.860000e-06	-4.826675e-07	-7.679472e-10	-3.983807e+00	-5.021063e+01
1.870000e-06	-4.792384e-07	-7.575093e-10	-3.955505e+00	-4.976547e+01
1.880000e-06	-4.757843e-07	-7.483279e-10	-3.926995e+00	-4.933721e+01
1.890000e-06	-4.723075e-07	-7.436228e-10	-3.898299e+00	-4.892634e+01
1.900000e-06	-4.688262e-07	-7.405077e-10	-3.869565e+00	-4.853314e+01
1.910000e-06	-4.653175e-07	-7.334472e-10	-3.840605e+00	-4.815770e+01
1.920000e-06	-4.617794e-07	-7.253347e-10	-3.811402e+00	-4.779998e+01
1.930000e-06	-4.582314e-07	-7.202989e-10	-3.782118e+00	-4.745980e+01
1.940000e-06	-4.546636e-07	-7.186568e-10	-3.752671e+00	-4.713690e+01
1.950000e-06	-4.510742e-07	-7.167833e-10	-3.723045e+00	-4.683093e+01
1.960000e-06	-4.474618e-07	-7.142493e-10	-3.693229e+00	-4.654149e+01
1.970000e-06	-4.438301e-07	-7.111435e-10	-3.663254e+00	-4.626809e+01
1.980000e-06	-4.401872e-07	-7.092653e-10	-3.633186e+00	-4.601021e+01
1.990000e-06	-4.365372e-07	-7.072758e-10	-3.603060e+00	-4.576726e+01
2.000000e-06	-4.328731e-07	-6.994186e-10	-3.572818e+00	-4.553858e+01
2.010000e-06	-4.291918e-07	-6.906108e-10	-3.542433e+00	-4.532343e+01
2.020000e-06	-4.255010e-07	-6.853218e-10	-3.511970e+00	-4.512099e+01
2.030000e-06	-4.217994e-07	-6.867833e-10	-3.481418e+00	-4.493034e+01
2.040000e-06	-4.180851e-07	-6.908103e-10	-3.450761e+00	-4.475044e+01
2.050000e-06	-4.143632e-07	-6.920702e-10	-3.420042e+00	-4.458016e+01
2.060000e-06	-4.106384e-07	-6.927029e-10	-3.389299e+00	-4.441823e+01
2.070000e-06	-4.069157e-07	-6.883528e-10	-3.358572e+00	-4.426325e+01
2.080000e-06	-4.031924e-07	-6.815301e-10	-3.327841e+00	-4.411374e+01
2.090000e-06	-3.994607e-07	-6.749789e-10	-3.297041e+00	-4.396809e+01
2.100000e-06	-3.957198e-07	-6.691825e-10	-3.266164e+00	-4.382458e+01
2.110000e-06	-3.919723e-07	-6.675185e-10	-3.235233e+00	-4.368146e+01
2.120000e-06	-3.882233e-07	-6.694877e-10	-3.204290e+00	-4.353688e+01
2.130000e-06	-3.844673e-07	-6.711771e-10	-3.173289e+00	-4.338899e+01
2.140000e-06	-3.807056e-07	-6.689200e-10	-3.142241e+00	-4.323590e+01
2.150000e-06	-3.769368e-07	-6.645625e-10	-3.111135e+00	-4.307577e+01
2.160000e-06	-3.731547e-07	-6.592495e-10	-3.079918e+00	-4.290678e+01
2.170000e-06	-3.693592e-07	-6.545518e-10	-3.048591e+00	-4.272718e+01
2.180000e-06	-3.655535e-07	-6.508964e-10	-3.017180e+00	-4.253532e+01
2.190000e-06	-3.617455e-07	-6.475273e-10	-2.985750e+00	-4.232963e+01
2.200000e-06	-3.579274e-07	-6.457197e-10	-2.954236e+00	-4.210868e+01
2.210000e-06	-3.540922e-07	-6.423836e-10	-2.922582e+00	-4.187120e+01
2.220000e-06	-3.502391e-07	-6.366834e-10	-2.890779e+00	-4.161603e+01
2.230000e-06	-3.463778e-07	-6.297380e-10	-2.858909e+00	-4.134219e+01
2.240000e-06	-3.425180e-07	-6.256446e-10	-2.827051e+00	-4.104886e+01
2.250000e-06	-3.386481e-07	-6.247549e-10	-2.795110e+00	-4.073540e+01
2.260000e-06	-3.347599e-07	-6.205440e-10	-2.763018e+00	-4.040134e+01
2.270000e-06	-3.308660e-07	-6.125789e-10	-2.730879e+00	-4.004637e+01
2.280000e-06	-3.269731e-07	-6.039892e-10	-2.698748e+00	-3.967039e+01
2.290000e-06	-3.230698e-07	-5.962499e-10	-2.666531e+00	-3.927347e+01
2.300000e-06	-3.191516e-07	-5.876703e-10	-2.634191e+00	-3.885584e+01
2.310000e-06	-3.152276e-07	-5.789903e-10	-2.601803e+00	-3.841795e+01
2.320000e-06	-3.112953e-07	-5.739701e-10	-2.569347e+00	-3.796041e+01
2.330000e-06	-3.073592e-07	-5.728168e-10	-2.536859e+00	-3.748403e+01
2.340000e-06	-3.034264e-07	-5.695955e-10	-2.504399e+00	-3.698978e+01
2.350000e-06	-2.994843e-07	-5.609855e-10	-2.471862e+00	-3.647883e+01
2.360000e-06	-2.955259e-07	-5.529261e-10	-2.439191e+00	-3.595252e+01
2.370000e-06	-2.915643e-07	-5.464439e-10	-2.406493e+00	-3.541233e+01
2.380000e-06	-2.875958e-07	-5.379358e-10	-2.373738e+00	-3.485991e+01
2.390000e-06	-2.836158e-07	-5.242945e-10	-2.340888e+00	-3.429703e+01
2.400000e-06	-2.796327e-07	-5.100619e-10	-2.308013e+00	-3.372558e+01
2.410000e-06	-2.756504e-07	-5.012220e-10	-2.275144e+00	-3.314754e+01
2.420000e-06	-2.716609e-07	-4.951121e-10	-2.242216e+00	-3.256494e+01
2.430000e-06	-2.676547e-07	-4.874533e-10	-2.209149e+00	-3.197986e+01
2.440000e-06	-2.636393e-07	-4.772384e-10	-2.176008e+00	-3.139438e+01
2.450000e-06	-2.596195e-07	-4.705566e-10	-2.142829e+00	-3.081052e+01
2.460000e-06	-2.555927e-07	-4.670564e-10	-2.109593e+00	-3.023029e+01
2.470000e-06	-2.515600e-07	-4.580383e-10	-2.076309e+00	-2.965558e+01
2.480000e-06	-2.475159e-07	-4.429562e-10	-2.042930e+00	-2.908816e+01
2.490000e-06	-2.434559e-07	-4.296412e-10	-2.009420e+00	-2.852969e+01
2.500000e-06	-2.393966e-07	-4.216809e-10	-1.975915e+00	-2.798164e+01
2.510000e-06	-2.353450e-07	-4.158600e-10	-1.942474e+00	-2.744535e+01
2.520000e-06	-2.312856e-07	-4.086509e-10	-1.908969e+00	-2.692195e+01
2.530000e-06	-2.272189e-07	-4.026918e-10	-1.875404e+00	-2.641241e+01
2.540000e-06	-2.231428e-07	-3.994184e-10	-1.841760e+00	-2.591755e+01
2.550000e-06	-2.190477e-07	-3.943911e-10	-1.807960e+00	-2.543799e+01
2.560000e-06	-2.149447e-07	-3.849342e-10	-1.774095e+00	-2.497423e+01
2.570000e-06	-2.108426e-07	-3.734827e-10	-1.740238e+00	-2.452663e+01
2.580000e-06	-2.067393e-07	-3.644042e-10	-1.706370e+00	-2.409545e+01
2.590000e-06	-2.026350e-07	-3.584211e-10	-1.672494e+00	-2.368082e+01
2.600000e-06	-1.985262e-07	-3.524888e-10	-1.638582e+00	-2.328283e+01
2.610000e-06	-1.944118e-07	-3.489407e-10	-1.604623e+00	-2.290148e+01
2.620000e-06	-1.902975e-07	-3.467031e-10	-1.570664e+00	-2.253670e+01
2.630000e-06	-1.861838e-07	-3.437220e-10	-1.536711e+00	-2.218840e+01
2.640000e-06	-1.820683e-07	-3.392576e-10	-1.502742e+00	-2.185639e+01
2.650000e-06	-1.779486e-07	-3.319065e-10	-1.468740e+00	-2.154043e+01
2.660000e-06	-1.738242e-07	-3.270962e-10	-1.434698e+00	-2.124019e+01
2.670000e-06	-1.696972e-07	-3.232779e-10	-1.400635e+00	-2.095523e+01
2.680000e-06	-1.655659e-07	-3.172767e-10	-1.366536e+00	-2.068499e+01
2.690000e-06	-1.614302e-07	-3.093951e-10	-1.332402e+00	-2.042874e+01
2.700000e-06	-1.572925e-07	-3.041942e-10	-1.298250e+00	-2.018559e+01
2.710000e-06	-1.531471e-07	-3.037073e-10	-1.264035e+00	-1.995442e+01
2.720000e-06	-1.490034e-07	-3.006367e-10	-1.229834e+00	-1.973388e+01
2.730000e-06	-1.448664e-07	-2.943471e-10	-1.195688e+00	-1.952238e+01
2.740000e-06	-1.407276e-07	-2.894396e-10	-1.161528e+00	-1.931809e+01
2.750000e-06	-1.365855e-07	-2.884812e-10	-1.127340e+00	-1.911892e+01
2.760000e-06	-1.324419e-07	-2.875987e-10	-1.093139e+00	-1.892252e+01
2.770000e-06	-1.282965e-07	-2.824320e-10	-1.058925e+00	-1.872638e+01
2.780000e-06	-1.241508e-07	-2.753989e-10	-1.024707e+00	-1.852775e+01
2.790000e-06	-1.199945e-07	-2.706023e-10	-9.904024e-01	-1.832381e+01
2.800000e-06	-1.158367e-07	-2.697952e-10	-9.560852e-01	-1.811163e+01
2.810000e-06	-1.116886e-07	-2.678017e-10	-9.218472e-01	-1.788829e+01
2.820000e-06	-1.075439e-07	-2.634857e-10	-8.876381e-01	-1.765094e+01
2.830000e-06	-1.033988e-07	-2.593826e-10	-8.534254e-01	-1.739686e+01
2.840000e-06	-9.924475e-08	-2.566121e-10	-8.191394e-01	-1.712355e+01
