# Temperatura_=_20.0
# Concentracion g/m^3_=_10000.0
# C_Vs_to_Am_M_A/Vsm_=_65563218390.804596
# pendiente_HvsI_1/m_=_3716.3
# ordenada_HvsI_A/m_=_1297.0
# frecuencia_Hz_=_81116.33968322231

Tiempo_(s)	Campo_(V.s)	Magnetizacion_(V.s)	Campo_(kA/m)	Magnetizacion_(A/m)
0.000000e+00	-8.323551e-07	-3.770303e-11	-6.867967e+00	1.130368e+00
1.000000e-08	-8.323539e-07	-3.886657e-11	-6.867957e+00	1.215157e+00
2.000000e-08	-8.323431e-07	-3.091402e-11	-6.867868e+00	1.288564e+00
3.000000e-08	-8.323170e-07	-1.851017e-11	-6.867653e+00	1.349900e+00
4.000000e-08	-8.322729e-07	-1.295686e-11	-6.867289e+00	1.398592e+00
5.000000e-08	-8.322154e-07	-1.568157e-11	-6.866814e+00	1.434184e+00
6.000000e-08	-8.321463e-07	-2.132624e-11	-6.866245e+00	1.456341e+00
7.000000e-08	-8.320554e-07	-2.424448e-11	-6.865494e+00	1.464857e+00
8.000000e-08	-8.319418e-07	-1.840294e-11	-6.864557e+00	1.459652e+00
9.000000e-08	-8.318167e-07	-2.030295e-11	-6.863525e+00	1.440774e+00
1.000000e-07	-8.316740e-07	-1.917152e-11	-6.862348e+00	1.408400e+00
1.100000e-07	-8.315049e-07	-1.129210e-11	-6.860952e+00	1.362833e+00
1.200000e-07	-8.313110e-07	-1.328368e-11	-6.859353e+00	1.304501e+00
1.300000e-07	-8.310867e-07	-2.551405e-11	-6.857502e+00	1.233950e+00
1.400000e-07	-8.308351e-07	-4.491282e-11	-6.855425e+00	1.151840e+00
1.500000e-07	-8.305592e-07	-5.705367e-11	-6.853149e+00	1.058941e+00
1.600000e-07	-8.302553e-07	-5.163456e-11	-6.850641e+00	9.561231e-01
1.700000e-07	-8.299178e-07	-3.083282e-11	-6.847857e+00	8.443488e-01
1.800000e-07	-8.295305e-07	-1.044091e-11	-6.844661e+00	7.246656e-01
1.900000e-07	-8.291196e-07	2.204172e-13	-6.841271e+00	5.981944e-01
2.000000e-07	-8.286903e-07	1.088057e-12	-6.837728e+00	4.661199e-01
2.100000e-07	-8.282301e-07	-2.090427e-11	-6.833931e+00	3.296792e-01
2.200000e-07	-8.277526e-07	-5.963122e-11	-6.829991e+00	1.901504e-01
2.300000e-07	-8.272580e-07	-8.440961e-11	-6.825910e+00	4.884051e-02
2.400000e-07	-8.267458e-07	-8.206306e-11	-6.821684e+00	-9.292690e-02
2.500000e-07	-8.262237e-07	-5.515915e-11	-6.817375e+00	-2.338239e-01
2.600000e-07	-8.256918e-07	-2.719429e-11	-6.812987e+00	-3.725306e-01
2.700000e-07	-8.251480e-07	-1.315703e-11	-6.808500e+00	-5.077478e-01
2.800000e-07	-8.245848e-07	-1.838174e-11	-6.803853e+00	-6.382090e-01
2.900000e-07	-8.239943e-07	-3.636879e-11	-6.798980e+00	-7.626920e-01
3.000000e-07	-8.233766e-07	-5.415364e-11	-6.793884e+00	-8.800309e-01
3.100000e-07	-8.227391e-07	-6.657687e-11	-6.788624e+00	-9.891265e-01
3.200000e-07	-8.220848e-07	-6.939760e-11	-6.783224e+00	-1.088957e+00
3.300000e-07	-8.214068e-07	-6.377664e-11	-6.777630e+00	-1.178587e+00
3.400000e-07	-8.207057e-07	-4.975432e-11	-6.771846e+00	-1.257177e+00
3.500000e-07	-8.199800e-07	-4.095326e-11	-6.765857e+00	-1.323992e+00
3.600000e-07	-8.192368e-07	-4.444538e-11	-6.759725e+00	-1.378404e+00
3.700000e-07	-8.184783e-07	-5.518480e-11	-6.753467e+00	-1.419905e+00
3.800000e-07	-8.176949e-07	-6.546474e-11	-6.747002e+00	-1.448106e+00
3.900000e-07	-8.168974e-07	-6.927630e-11	-6.740422e+00	-1.462742e+00
4.000000e-07	-8.160835e-07	-6.499281e-11	-6.733707e+00	-1.463676e+00
4.100000e-07	-8.152436e-07	-5.198442e-11	-6.726776e+00	-1.450901e+00
4.200000e-07	-8.143870e-07	-3.849593e-11	-6.719708e+00	-1.424535e+00
4.300000e-07	-8.135091e-07	-3.982629e-11	-6.712464e+00	-1.384825e+00
4.400000e-07	-8.126051e-07	-5.639559e-11	-6.705005e+00	-1.332143e+00
4.500000e-07	-8.116859e-07	-7.036100e-11	-6.697421e+00	-1.266983e+00
4.600000e-07	-8.107506e-07	-6.089133e-11	-6.689703e+00	-1.189956e+00
4.700000e-07	-8.097990e-07	-4.113566e-11	-6.681851e+00	-1.101782e+00
4.800000e-07	-8.088306e-07	-3.139112e-11	-6.673861e+00	-1.003287e+00
4.900000e-07	-8.078396e-07	-3.481686e-11	-6.665684e+00	-8.953950e-01
5.000000e-07	-8.068257e-07	-4.176037e-11	-6.657318e+00	-7.791156e-01
5.100000e-07	-8.057901e-07	-4.185195e-11	-6.648773e+00	-6.555382e-01
5.200000e-07	-8.047292e-07	-4.274726e-11	-6.640020e+00	-5.258204e-01
5.300000e-07	-8.036347e-07	-4.777830e-11	-6.630988e+00	-3.911772e-01
5.400000e-07	-8.025017e-07	-5.068916e-11	-6.621640e+00	-2.528698e-01
5.500000e-07	-8.013246e-07	-4.175509e-11	-6.611927e+00	-1.121938e-01
5.600000e-07	-8.001098e-07	-2.594402e-11	-6.601903e+00	2.953309e-02
5.700000e-07	-7.988728e-07	-1.782089e-11	-6.591696e+00	1.709834e-01
5.800000e-07	-7.976210e-07	-2.077962e-11	-6.581367e+00	3.108321e-01
5.900000e-07	-7.963508e-07	-2.543407e-11	-6.570887e+00	4.477692e-01
6.000000e-07	-7.950575e-07	-2.281422e-11	-6.560216e+00	5.805120e-01
6.100000e-07	-7.937442e-07	-2.190690e-11	-6.549379e+00	7.078172e-01
6.200000e-07	-7.924173e-07	-2.883371e-11	-6.538431e+00	8.284923e-01
6.300000e-07	-7.910694e-07	-3.700792e-11	-6.527309e+00	9.414068e-01
6.400000e-07	-7.896912e-07	-3.601272e-11	-6.515937e+00	1.045503e+00
6.500000e-07	-7.882925e-07	-2.607778e-11	-6.504396e+00	1.139806e+00
6.600000e-07	-7.868825e-07	-1.947138e-11	-6.492761e+00	1.223433e+00
6.700000e-07	-7.854556e-07	-1.818112e-11	-6.480988e+00	1.295599e+00
6.800000e-07	-7.840039e-07	-1.796106e-11	-6.469010e+00	1.355630e+00
6.900000e-07	-7.825259e-07	-1.682544e-11	-6.456814e+00	1.402963e+00
7.000000e-07	-7.810249e-07	-1.926320e-11	-6.444429e+00	1.437153e+00
7.100000e-07	-7.795027e-07	-2.810184e-11	-6.431869e+00	1.457883e+00
7.200000e-07	-7.779582e-07	-3.619241e-11	-6.419125e+00	1.464956e+00
7.300000e-07	-7.764016e-07	-3.604717e-11	-6.406281e+00	1.458306e+00
7.400000e-07	-7.748177e-07	-2.839130e-11	-6.393212e+00	1.437997e+00
7.500000e-07	-7.731986e-07	-2.347761e-11	-6.379853e+00	1.404218e+00
7.600000e-07	-7.715580e-07	-2.317339e-11	-6.366316e+00	1.357286e+00
7.700000e-07	-7.698947e-07	-2.375019e-11	-6.352591e+00	1.297640e+00
7.800000e-07	-7.682031e-07	-2.277234e-11	-6.338634e+00	1.225839e+00
7.900000e-07	-7.664727e-07	-2.234264e-11	-6.324355e+00	1.142555e+00
8.000000e-07	-7.647067e-07	-2.840533e-11	-6.309784e+00	1.048569e+00
8.100000e-07	-7.629250e-07	-3.664522e-11	-6.295082e+00	9.447616e-01
8.200000e-07	-7.611315e-07	-4.067530e-11	-6.280284e+00	8.321042e-01
8.300000e-07	-7.593158e-07	-4.227571e-11	-6.265302e+00	7.116524e-01
8.400000e-07	-7.574892e-07	-4.449285e-11	-6.250230e+00	5.845346e-01
8.500000e-07	-7.556458e-07	-4.695326e-11	-6.235020e+00	4.519414e-01
8.600000e-07	-7.537797e-07	-4.632788e-11	-6.219622e+00	3.151149e-01
8.700000e-07	-7.518965e-07	-4.210244e-11	-6.204083e+00	1.753367e-01
8.800000e-07	-7.499975e-07	-3.971925e-11	-6.188415e+00	3.391612e-02
8.900000e-07	-7.480928e-07	-4.167251e-11	-6.172699e+00	-1.078222e-01
9.000000e-07	-7.461712e-07	-4.254482e-11	-6.156842e+00	-2.485505e-01
9.100000e-07	-7.442237e-07	-4.183200e-11	-6.140773e+00	-3.869506e-01
9.200000e-07	-7.422531e-07	-4.541851e-11	-6.124513e+00	-5.217261e-01
9.300000e-07	-7.402569e-07	-5.338696e-11	-6.108043e+00	-6.516147e-01
9.400000e-07	-7.382351e-07	-5.768738e-11	-6.091360e+00	-7.753995e-01
9.500000e-07	-7.361839e-07	-5.435913e-11	-6.074435e+00	-8.919212e-01
9.600000e-07	-7.341145e-07	-4.875908e-11	-6.057360e+00	-1.000088e+00
9.700000e-07	-7.320338e-07	-4.628837e-11	-6.040192e+00	-1.098887e+00
9.800000e-07	-7.299396e-07	-4.636104e-11	-6.022912e+00	-1.187393e+00
9.900000e-07	-7.278357e-07	-4.578479e-11	-6.005552e+00	-1.264777e+00
1.000000e-06	-7.257178e-07	-4.659741e-11	-5.988077e+00	-1.330313e+00
1.010000e-06	-7.235885e-07	-5.351845e-11	-5.970507e+00	-1.383388e+00
1.020000e-06	-7.214564e-07	-6.260311e-11	-5.952915e+00	-1.423505e+00
1.030000e-06	-7.193158e-07	-6.592923e-11	-5.935252e+00	-1.450288e+00
1.040000e-06	-7.171554e-07	-6.183090e-11	-5.917427e+00	-1.463487e+00
1.050000e-06	-7.149835e-07	-5.571597e-11	-5.899506e+00	-1.462976e+00
1.060000e-06	-7.127946e-07	-5.121063e-11	-5.881444e+00	-1.448762e+00
1.070000e-06	-7.105820e-07	-4.683550e-11	-5.863188e+00	-1.420978e+00
1.080000e-06	-7.083516e-07	-4.301663e-11	-5.844784e+00	-1.379883e+00
1.090000e-06	-7.061005e-07	-4.220439e-11	-5.826210e+00	-1.325862e+00
1.100000e-06	-7.038330e-07	-4.552795e-11	-5.807499e+00	-1.259422e+00
1.110000e-06	-7.015437e-07	-5.080660e-11	-5.788610e+00	-1.181186e+00
1.120000e-06	-6.992317e-07	-5.504355e-11	-5.769533e+00	-1.091885e+00
1.130000e-06	-6.969004e-07	-5.409959e-11	-5.750297e+00	-9.923559e-01
1.140000e-06	-6.945487e-07	-4.936013e-11	-5.730893e+00	-8.835318e-01
1.150000e-06	-6.921945e-07	-4.589991e-11	-5.711467e+00	-7.664316e-01
1.160000e-06	-6.898229e-07	-4.184482e-11	-5.691899e+00	-6.421523e-01
1.170000e-06	-6.874235e-07	-3.616938e-11	-5.672101e+00	-5.118578e-01
1.180000e-06	-6.850180e-07	-3.209057e-11	-5.652252e+00	-3.767689e-01
1.190000e-06	-6.825928e-07	-3.246659e-11	-5.632242e+00	-2.381507e-01
1.200000e-06	-6.801427e-07	-3.529375e-11	-5.612025e+00	-9.730171e-02
1.210000e-06	-6.776813e-07	-3.512032e-11	-5.591715e+00	4.445867e-02
1.220000e-06	-6.752103e-07	-3.453824e-11	-5.571327e+00	1.858026e-01
1.230000e-06	-6.727209e-07	-3.433630e-11	-5.550786e+00	3.254061e-01
1.240000e-06	-6.702151e-07	-3.343382e-11	-5.530110e+00	4.619616e-01
1.250000e-06	-6.677010e-07	-3.133988e-11	-5.509366e+00	5.941898e-01
1.260000e-06	-6.651757e-07	-2.846329e-11	-5.488529e+00	7.208522e-01
1.270000e-06	-6.626342e-07	-2.613108e-11	-5.467559e+00	8.407624e-01
1.280000e-06	-6.600680e-07	-2.324777e-11	-5.446384e+00	9.527972e-01
1.290000e-06	-6.574788e-07	-2.114871e-11	-5.425019e+00	1.055907e+00
1.300000e-06	-6.548850e-07	-1.955728e-11	-5.403618e+00	1.149126e+00
1.310000e-06	-6.522801e-07	-1.874631e-11	-5.382124e+00	1.231582e+00
1.320000e-06	-6.496380e-07	-1.946971e-11	-5.360323e+00	1.302501e+00
1.330000e-06	-6.469600e-07	-2.118775e-11	-5.338227e+00	1.361219e+00
1.340000e-06	-6.442593e-07	-2.273372e-11	-5.315942e+00	1.407187e+00
1.350000e-06	-6.415326e-07	-2.328484e-11	-5.293444e+00	1.439974e+00
1.360000e-06	-6.387741e-07	-2.338513e-11	-5.270683e+00	1.459272e+00
1.370000e-06	-6.359917e-07	-2.191109e-11	-5.247724e+00	1.464902e+00
1.380000e-06	-6.331882e-07	-1.882112e-11	-5.224592e+00	1.456810e+00
1.390000e-06	-6.303608e-07	-1.363455e-11	-5.201263e+00	1.435071e+00
1.400000e-06	-6.275117e-07	-9.588431e-12	-5.177754e+00	1.399891e+00
1.410000e-06	-6.246458e-07	-1.233736e-11	-5.154107e+00	1.351597e+00
1.420000e-06	-6.217665e-07	-1.828680e-11	-5.130348e+00	1.290643e+00
1.430000e-06	-6.188675e-07	-2.360944e-11	-5.106429e+00	1.217600e+00
1.440000e-06	-6.159569e-07	-2.725634e-11	-5.082413e+00	1.133152e+00
1.450000e-06	-6.130433e-07	-2.967745e-11	-5.058372e+00	1.038089e+00
1.460000e-06	-6.101219e-07	-3.006664e-11	-5.034266e+00	9.333020e-01
1.470000e-06	-6.071876e-07	-2.603735e-11	-5.010055e+00	8.197731e-01
1.480000e-06	-6.042415e-07	-2.006476e-11	-4.985746e+00	6.985653e-01
1.490000e-06	-6.012912e-07	-1.646788e-11	-4.961402e+00	5.708141e-01
1.500000e-06	-5.983261e-07	-1.701489e-11	-4.936937e+00	4.377160e-01
1.510000e-06	-5.953429e-07	-2.074572e-11	-4.912321e+00	3.005179e-01
1.520000e-06	-5.923495e-07	-2.685814e-11	-4.887622e+00	1.605048e-01
1.530000e-06	-5.893418e-07	-3.473859e-11	-4.862805e+00	1.898821e-02
1.540000e-06	-5.863179e-07	-4.259777e-11	-4.837854e+00	-1.227062e-01
1.550000e-06	-5.832721e-07	-4.635337e-11	-4.812722e+00	-2.632512e-01
1.560000e-06	-5.802105e-07	-4.440849e-11	-4.787460e+00	-4.013304e-01
1.570000e-06	-5.771439e-07	-4.050173e-11	-4.762157e+00	-5.356503e-01
1.580000e-06	-5.740555e-07	-3.839318e-11	-4.736674e+00	-6.649527e-01
1.590000e-06	-5.709476e-07	-3.827660e-11	-4.711030e+00	-7.880265e-01
1.600000e-06	-5.678325e-07	-4.221771e-11	-4.685326e+00	-9.037189e-01
1.610000e-06	-5.647128e-07	-4.977090e-11	-4.659585e+00	-1.010946e+00
1.620000e-06	-5.615873e-07	-5.557343e-11	-4.633795e+00	-1.108704e+00
1.630000e-06	-5.584429e-07	-6.063190e-11	-4.607850e+00	-1.196076e+00
1.640000e-06	-5.552843e-07	-6.504264e-11	-4.581788e+00	-1.272245e+00
1.650000e-06	-5.521164e-07	-6.412530e-11	-4.555649e+00	-1.336496e+00
1.660000e-06	-5.489239e-07	-5.910544e-11	-4.529307e+00	-1.388229e+00
1.670000e-06	-5.457132e-07	-5.360786e-11	-4.502815e+00	-1.426958e+00
1.680000e-06	-5.425007e-07	-5.076756e-11	-4.476307e+00	-1.452321e+00
1.690000e-06	-5.392836e-07	-5.016965e-11	-4.449762e+00	-1.464079e+00
1.700000e-06	-5.360543e-07	-5.137646e-11	-4.423117e+00	-1.462124e+00
1.710000e-06	-5.328144e-07	-5.592405e-11	-4.396383e+00	-1.446473e+00
1.720000e-06	-5.295599e-07	-6.117705e-11	-4.369530e+00	-1.417273e+00
1.730000e-06	-5.262867e-07	-6.298542e-11	-4.342521e+00	-1.374797e+00
1.740000e-06	-5.230014e-07	-5.897067e-11	-4.315413e+00	-1.319443e+00
1.750000e-06	-5.197099e-07	-5.530936e-11	-4.288254e+00	-1.251731e+00
1.760000e-06	-5.164060e-07	-5.169457e-11	-4.260993e+00	-1.172293e+00
1.770000e-06	-5.130861e-07	-4.591344e-11	-4.233600e+00	-1.081874e+00
1.780000e-06	-5.097626e-07	-4.101640e-11	-4.206177e+00	-9.813215e-01
1.790000e-06	-5.064353e-07	-3.893287e-11	-4.178723e+00	-8.715768e-01
1.800000e-06	-5.030992e-07	-4.023822e-11	-4.151196e+00	-7.536680e-01
1.810000e-06	-4.997488e-07	-4.207509e-11	-4.123551e+00	-6.286996e-01
1.820000e-06	-4.963892e-07	-4.232649e-11	-4.095830e+00	-4.978421e-01
1.830000e-06	-4.930193e-07	-4.070088e-11	-4.068024e+00	-3.623214e-01
1.840000e-06	-4.896310e-07	-3.916755e-11	-4.040066e+00	-2.234067e-01
1.850000e-06	-4.862199e-07	-3.804204e-11	-4.011921e+00	-8.239947e-02
1.860000e-06	-4.827851e-07	-3.380232e-11	-3.983579e+00	5.937964e-02
1.870000e-06	-4.793424e-07	-2.788930e-11	-3.955173e+00	2.006025e-01
1.880000e-06	-4.758863e-07	-2.275859e-11	-3.926656e+00	3.399464e-01
1.890000e-06	-4.724192e-07	-1.989186e-11	-3.898047e+00	4.761060e-01
1.900000e-06	-4.689378e-07	-1.906767e-11	-3.869321e+00	6.078058e-01
1.910000e-06	-4.654275e-07	-1.885508e-11	-3.840357e+00	7.338124e-01
1.920000e-06	-4.618974e-07	-1.934592e-11	-3.811230e+00	8.529453e-01
1.930000e-06	-4.583491e-07	-1.769524e-11	-3.781951e+00	9.640886e-01
1.940000e-06	-4.547851e-07	-1.582797e-11	-3.752544e+00	1.066201e+00
1.950000e-06	-4.512045e-07	-1.541151e-11	-3.723000e+00	1.158327e+00
1.960000e-06	-4.476013e-07	-1.703321e-11	-3.693269e+00	1.239602e+00
1.970000e-06	-4.439784e-07	-1.799114e-11	-3.663376e+00	1.309267e+00
1.980000e-06	-4.403380e-07	-1.543980e-11	-3.633337e+00	1.366667e+00
1.990000e-06	-4.366950e-07	-1.192987e-11	-3.603278e+00	1.411265e+00
2.000000e-06	-4.330380e-07	-8.707484e-12	-3.573104e+00	1.442645e+00
2.010000e-06	-4.293560e-07	-7.210091e-12	-3.542722e+00	1.460511e+00
2.020000e-06	-4.256663e-07	-8.681634e-12	-3.512278e+00	1.464696e+00
2.030000e-06	-4.219682e-07	-1.126877e-11	-3.481764e+00	1.455161e+00
2.040000e-06	-4.182658e-07	-1.444466e-11	-3.451215e+00	1.431996e+00
2.050000e-06	-4.145632e-07	-1.962531e-11	-3.420663e+00	1.395418e+00
2.060000e-06	-4.108512e-07	-2.264522e-11	-3.390034e+00	1.345768e+00
2.070000e-06	-4.071280e-07	-1.898606e-11	-3.359313e+00	1.283513e+00
2.080000e-06	-4.033970e-07	-1.415748e-11	-3.328528e+00	1.209235e+00
2.090000e-06	-3.996609e-07	-1.216817e-11	-3.297701e+00	1.123630e+00
2.100000e-06	-3.959229e-07	-1.202616e-11	-3.266857e+00	1.027500e+00
2.110000e-06	-3.921815e-07	-1.390723e-11	-3.235987e+00	9.217455e-01
2.120000e-06	-3.884328e-07	-1.675903e-11	-3.205055e+00	8.073568e-01
2.130000e-06	-3.846719e-07	-2.370076e-11	-3.174023e+00	6.854057e-01
2.140000e-06	-3.809041e-07	-3.156196e-11	-3.142934e+00	5.570343e-01
2.150000e-06	-3.771318e-07	-3.661506e-11	-3.111808e+00	4.234452e-01
2.160000e-06	-3.733506e-07	-3.884473e-11	-3.080608e+00	2.858896e-01
2.170000e-06	-3.695708e-07	-3.714106e-11	-3.049420e+00	1.456562e-01
2.180000e-06	-3.657765e-07	-3.495146e-11	-3.018112e+00	4.058327e-03
2.190000e-06	-3.619579e-07	-3.305495e-11	-2.986604e+00	-1.375775e-01
2.200000e-06	-3.581297e-07	-3.242256e-11	-2.955017e+00	-2.779247e-01
2.210000e-06	-3.542900e-07	-3.349533e-11	-2.923334e+00	-4.156685e-01
2.220000e-06	-3.504423e-07	-3.745552e-11	-2.891586e+00	-5.495188e-01
2.230000e-06	-3.465831e-07	-4.441610e-11	-2.859743e+00	-6.782217e-01
2.240000e-06	-3.427078e-07	-5.235613e-11	-2.827767e+00	-8.005717e-01
2.250000e-06	-3.388271e-07	-5.578519e-11	-2.795746e+00	-9.154227e-01
2.260000e-06	-3.349491e-07	-5.368182e-11	-2.763747e+00	-1.021699e+00
2.270000e-06	-3.310646e-07	-5.159012e-11	-2.731695e+00	-1.118405e+00
2.280000e-06	-3.271619e-07	-5.063680e-11	-2.699493e+00	-1.204635e+00
2.290000e-06	-3.232443e-07	-5.079842e-11	-2.667169e+00	-1.279581e+00
2.300000e-06	-3.193186e-07	-5.078707e-11	-2.634776e+00	-1.342541e+00
2.310000e-06	-3.153882e-07	-5.300202e-11	-2.602346e+00	-1.392925e+00
2.320000e-06	-3.114513e-07	-5.803741e-11	-2.569862e+00	-1.430262e+00
2.330000e-06	-3.075103e-07	-6.275344e-11	-2.537343e+00	-1.454202e+00
2.340000e-06	-3.035643e-07	-6.420931e-11	-2.504784e+00	-1.464520e+00
2.350000e-06	-2.996102e-07	-6.176730e-11	-2.472158e+00	-1.461120e+00
2.360000e-06	-2.956537e-07	-5.984323e-11	-2.439512e+00	-1.444034e+00
2.370000e-06	-2.916913e-07	-5.661418e-11	-2.406817e+00	-1.413421e+00
2.380000e-06	-2.877131e-07	-5.063248e-11	-2.373992e+00	-1.369569e+00
2.390000e-06	-2.837306e-07	-4.400244e-11	-2.341131e+00	-1.312888e+00
2.400000e-06	-2.797476e-07	-3.960437e-11	-2.308267e+00	-1.243909e+00
2.410000e-06	-2.757533e-07	-3.975009e-11	-2.275308e+00	-1.163278e+00
2.420000e-06	-2.717485e-07	-4.078730e-11	-2.242264e+00	-1.071751e+00
2.430000e-06	-2.677425e-07	-4.037747e-11	-2.209209e+00	-9.701851e-01
2.440000e-06	-2.637399e-07	-3.911059e-11	-2.176183e+00	-8.595312e-01
2.450000e-06	-2.597282e-07	-3.896170e-11	-2.143082e+00	-7.408260e-01
2.460000e-06	-2.557031e-07	-3.635341e-11	-2.109869e+00	-6.151816e-01
2.470000e-06	-2.516677e-07	-2.699914e-11	-2.076573e+00	-4.837747e-01
2.480000e-06	-2.476219e-07	-1.720793e-11	-2.043189e+00	-3.478362e-01
2.490000e-06	-2.435643e-07	-1.326537e-11	-2.009709e+00	-2.086396e-01
2.500000e-06	-2.395018e-07	-1.315904e-11	-1.976189e+00	-6.748868e-02
2.510000e-06	-2.354391e-07	-1.142234e-11	-1.942666e+00	7.429444e-02
2.520000e-06	-2.313712e-07	-9.670244e-12	-1.909101e+00	2.153816e-01
2.530000e-06	-2.272974e-07	-1.159801e-11	-1.875487e+00	3.544513e-01
2.540000e-06	-2.232228e-07	-1.189379e-11	-1.841866e+00	4.902009e-01
2.550000e-06	-2.191465e-07	-5.647632e-12	-1.808232e+00	6.213587e-01
2.560000e-06	-2.150567e-07	5.852741e-12	-1.774486e+00	7.466963e-01
2.570000e-06	-2.109581e-07	1.448130e-11	-1.740667e+00	8.650395e-01
2.580000e-06	-2.068597e-07	1.575302e-11	-1.706851e+00	9.752799e-01
2.590000e-06	-2.027581e-07	1.579798e-11	-1.673007e+00	1.076385e+00
2.600000e-06	-1.986502e-07	1.968744e-11	-1.639112e+00	1.167407e+00
2.610000e-06	-1.945367e-07	1.890430e-11	-1.605170e+00	1.247495e+00
2.620000e-06	-1.904223e-07	1.292907e-11	-1.571221e+00	1.315897e+00
2.630000e-06	-1.863063e-07	1.104485e-11	-1.537259e+00	1.371972e+00
2.640000e-06	-1.821868e-07	1.447832e-11	-1.503268e+00	1.415197e+00
2.650000e-06	-1.780653e-07	1.848634e-11	-1.469261e+00	1.445166e+00
2.660000e-06	-1.739427e-07	1.539097e-11	-1.435244e+00	1.461597e+00
2.670000e-06	-1.698203e-07	1.073196e-11	-1.401230e+00	1.464338e+00
2.680000e-06	-1.656978e-07	1.074675e-11	-1.367214e+00	1.453362e+00
2.690000e-06	-1.615720e-07	1.373503e-11	-1.333171e+00	1.428773e+00
2.700000e-06	-1.574432e-07	1.497329e-11	-1.299103e+00	1.390800e+00
2.710000e-06	-1.533123e-07	1.176026e-11	-1.265018e+00	1.339800e+00
2.720000e-06	-1.491785e-07	1.098987e-11	-1.230909e+00	1.276249e+00
2.730000e-06	-1.450417e-07	1.293382e-11	-1.196775e+00	1.200744e+00
2.740000e-06	-1.409035e-07	1.130010e-11	-1.162630e+00	1.113992e+00
2.750000e-06	-1.367664e-07	4.362235e-12	-1.128494e+00	1.016805e+00
2.760000e-06	-1.326233e-07	-4.127310e-12	-1.094307e+00	9.100932e-01
2.770000e-06	-1.284757e-07	-7.896850e-12	-1.060085e+00	7.948567e-01
2.780000e-06	-1.243279e-07	-5.712080e-12	-1.025860e+00	6.721748e-01
2.790000e-06	-1.201814e-07	-2.307065e-12	-9.916461e-01	5.431967e-01
2.800000e-06	-1.160370e-07	-3.114341e-12	-9.574496e-01	4.091303e-01
2.810000e-06	-1.118891e-07	-5.683668e-12	-9.232248e-01	2.712317e-01
2.820000e-06	-1.077395e-07	-8.872143e-12	-8.889850e-01	1.307924e-01
2.830000e-06	-1.035829e-07	-1.388119e-11	-8.546885e-01	-1.087198e-02
2.840000e-06	-9.941989e-08	-2.059737e-11	-8.203380e-01	-1.524345e-01
2.850000e-06	-9.525595e-08	-2.667277e-11	-7.859803e-01	-2.925693e-01
2.860000e-06	-9.109216e-08	-2.821347e-11	-7.516239e-01	-4.299635e-01
2.870000e-06	-8.692987e-08	-2.685891e-11	-7.172798e-01	-5.633302e-01
