# Temperatura_=_20.0
# Concentracion g/m^3_=_10000.0
# C_Vs_to_Am_M_A/Vsm_=_65563218390.804596
# pendiente_HvsI_1/m_=_3716.3
# ordenada_HvsI_A/m_=_1297.0
# frecuencia_Hz_=_81119.53853639668

Tiempo_(s)	Campo_(V.s)	Magnetizacion_(V.s)	Campo_(kA/m)	Magnetizacion_(A/m)
0.000000e+00	-8.316830e-07	-4.381592e-11	-6.865790e+00	-1.124713e+00
1.000000e-08	-8.316604e-07	-5.923778e-11	-6.865603e+00	-1.178550e+00
2.000000e-08	-8.316481e-07	-6.061249e-11	-6.865502e+00	-1.229383e+00
3.000000e-08	-8.316228e-07	-4.953442e-11	-6.865293e+00	-1.277023e+00
4.000000e-08	-8.315925e-07	-3.757861e-11	-6.865043e+00	-1.321374e+00
5.000000e-08	-8.315411e-07	-4.058986e-11	-6.864619e+00	-1.362441e+00
6.000000e-08	-8.314498e-07	-5.521693e-11	-6.863865e+00	-1.400327e+00
7.000000e-08	-8.313403e-07	-5.941048e-11	-6.862961e+00	-1.435232e+00
8.000000e-08	-8.312207e-07	-4.952631e-11	-6.861973e+00	-1.467438e+00
9.000000e-08	-8.310874e-07	-5.059661e-11	-6.860873e+00	-1.497296e+00
1.000000e-07	-8.309420e-07	-5.868655e-11	-6.859673e+00	-1.525205e+00
1.100000e-07	-8.307620e-07	-6.224504e-11	-6.858187e+00	-1.551592e+00
1.200000e-07	-8.305457e-07	-6.864013e-11	-6.856401e+00	-1.576884e+00
1.300000e-07	-8.303026e-07	-7.890165e-11	-6.854395e+00	-1.601483e+00
1.400000e-07	-8.300376e-07	-9.695077e-11	-6.852207e+00	-1.625746e+00
1.500000e-07	-8.297496e-07	-1.160325e-10	-6.849829e+00	-1.649957e+00
1.600000e-07	-8.294250e-07	-1.151908e-10	-6.847149e+00	-1.674315e+00
1.700000e-07	-8.290714e-07	-8.878561e-11	-6.844230e+00	-1.698913e+00
1.800000e-07	-8.286986e-07	-6.146021e-11	-6.841153e+00	-1.723737e+00
1.900000e-07	-8.282907e-07	-5.245919e-11	-6.837786e+00	-1.748657e+00
2.000000e-07	-8.278394e-07	-5.761272e-11	-6.834060e+00	-1.773436e+00
2.100000e-07	-8.273703e-07	-7.468244e-11	-6.830187e+00	-1.797735e+00
2.200000e-07	-8.269017e-07	-9.986667e-11	-6.826319e+00	-1.821131e+00
2.300000e-07	-8.264147e-07	-1.235013e-10	-6.822299e+00	-1.843137e+00
2.400000e-07	-8.258971e-07	-1.292146e-10	-6.818026e+00	-1.863220e+00
2.500000e-07	-8.253616e-07	-1.178991e-10	-6.813605e+00	-1.880832e+00
2.600000e-07	-8.248144e-07	-9.840772e-11	-6.809087e+00	-1.895435e+00
2.700000e-07	-8.242571e-07	-7.938085e-11	-6.804487e+00	-1.906524e+00
2.800000e-07	-8.236869e-07	-7.336782e-11	-6.799780e+00	-1.913653e+00
2.900000e-07	-8.230973e-07	-7.737875e-11	-6.794912e+00	-1.916455e+00
3.000000e-07	-8.224900e-07	-8.338986e-11	-6.789899e+00	-1.914660e+00
3.100000e-07	-8.218570e-07	-8.590994e-11	-6.784673e+00	-1.908101e+00
3.200000e-07	-8.212007e-07	-8.737907e-11	-6.779256e+00	-1.896726e+00
3.300000e-07	-8.205322e-07	-8.447012e-11	-6.773737e+00	-1.880594e+00
3.400000e-07	-8.198398e-07	-7.565168e-11	-6.768021e+00	-1.859869e+00
3.500000e-07	-8.191174e-07	-7.009756e-11	-6.762057e+00	-1.834813e+00
3.600000e-07	-8.183737e-07	-6.762653e-11	-6.755918e+00	-1.805763e+00
3.700000e-07	-8.176112e-07	-6.679969e-11	-6.749623e+00	-1.773120e+00
3.800000e-07	-8.168203e-07	-6.657425e-11	-6.743094e+00	-1.737322e+00
3.900000e-07	-8.160010e-07	-6.501262e-11	-6.736331e+00	-1.698825e+00
4.000000e-07	-8.151563e-07	-5.574456e-11	-6.729357e+00	-1.658078e+00
4.100000e-07	-8.143002e-07	-4.086413e-11	-6.722290e+00	-1.615507e+00
4.200000e-07	-8.134392e-07	-3.382864e-11	-6.715182e+00	-1.571491e+00
4.300000e-07	-8.125632e-07	-3.952613e-11	-6.707951e+00	-1.526352e+00
4.400000e-07	-8.116639e-07	-5.184799e-11	-6.700526e+00	-1.480344e+00
4.500000e-07	-8.107481e-07	-5.723613e-11	-6.692967e+00	-1.433649e+00
4.600000e-07	-8.098171e-07	-5.188874e-11	-6.685281e+00	-1.386372e+00
4.700000e-07	-8.088720e-07	-4.117820e-11	-6.677478e+00	-1.338550e+00
4.800000e-07	-8.079146e-07	-3.087519e-11	-6.669575e+00	-1.290159e+00
4.900000e-07	-8.069228e-07	-2.440619e-11	-6.661387e+00	-1.241125e+00
5.000000e-07	-8.059056e-07	-2.201729e-11	-6.652990e+00	-1.191338e+00
5.100000e-07	-8.048572e-07	-2.217980e-11	-6.644335e+00	-1.140669e+00
5.200000e-07	-8.037746e-07	-2.457797e-11	-6.635398e+00	-1.088985e+00
5.300000e-07	-8.026644e-07	-2.886026e-11	-6.626233e+00	-1.036166e+00
5.400000e-07	-8.015115e-07	-2.916793e-11	-6.616716e+00	-9.821189e-01
5.500000e-07	-8.003276e-07	-2.199475e-11	-6.606942e+00	-9.267847e-01
5.600000e-07	-7.991055e-07	-1.298228e-11	-6.596853e+00	-8.701509e-01
5.700000e-07	-7.978642e-07	-7.526797e-12	-6.586606e+00	-8.122530e-01
5.800000e-07	-7.966234e-07	-5.125767e-12	-6.576363e+00	-7.531748e-01
5.900000e-07	-7.953579e-07	-2.282984e-12	-6.565916e+00	-6.930446e-01
6.000000e-07	-7.940752e-07	-1.192777e-12	-6.555327e+00	-6.320278e-01
6.100000e-07	-7.927643e-07	-5.496887e-12	-6.544505e+00	-5.703162e-01
6.200000e-07	-7.914223e-07	-1.521774e-11	-6.533426e+00	-5.081161e-01
6.300000e-07	-7.900666e-07	-2.410768e-11	-6.522235e+00	-4.456341e-01
6.400000e-07	-7.886904e-07	-2.410375e-11	-6.510873e+00	-3.830640e-01
6.500000e-07	-7.872907e-07	-1.992379e-11	-6.499318e+00	-3.205734e-01
6.600000e-07	-7.858607e-07	-1.718293e-11	-6.487514e+00	-2.582931e-01
6.700000e-07	-7.844069e-07	-1.633339e-11	-6.475512e+00	-1.963091e-01
6.800000e-07	-7.829377e-07	-1.622332e-11	-6.463383e+00	-1.346571e-01
6.900000e-07	-7.814453e-07	-1.717387e-11	-6.451063e+00	-7.332196e-02
7.000000e-07	-7.799300e-07	-2.270725e-11	-6.438554e+00	-1.224064e-02
7.100000e-07	-7.783946e-07	-3.106974e-11	-6.425879e+00	4.869132e-02
7.200000e-07	-7.768328e-07	-3.717518e-11	-6.412986e+00	1.096093e-01
7.300000e-07	-7.752431e-07	-4.044273e-11	-6.399862e+00	1.706667e-01
7.400000e-07	-7.736326e-07	-4.215248e-11	-6.386567e+00	2.320196e-01
7.500000e-07	-7.719958e-07	-4.280044e-11	-6.373055e+00	2.938107e-01
7.600000e-07	-7.703371e-07	-4.227997e-11	-6.359362e+00	3.561534e-01
7.700000e-07	-7.686658e-07	-4.112521e-11	-6.345564e+00	4.191167e-01
7.800000e-07	-7.669549e-07	-4.052294e-11	-6.331441e+00	4.827128e-01
7.900000e-07	-7.652093e-07	-4.319384e-11	-6.317030e+00	5.468873e-01
8.000000e-07	-7.634492e-07	-4.831800e-11	-6.302500e+00	6.115138e-01
8.100000e-07	-7.616619e-07	-5.334823e-11	-6.287746e+00	6.763928e-01
8.200000e-07	-7.598647e-07	-5.735795e-11	-6.272909e+00	7.412553e-01
8.300000e-07	-7.580511e-07	-5.978110e-11	-6.257937e+00	8.057708e-01
8.400000e-07	-7.562074e-07	-6.175968e-11	-6.242717e+00	8.695600e-01
8.500000e-07	-7.543515e-07	-6.231536e-11	-6.227396e+00	9.322109e-01
8.600000e-07	-7.524930e-07	-5.913594e-11	-6.212053e+00	9.932978e-01
8.700000e-07	-7.506197e-07	-5.295524e-11	-6.196588e+00	1.052402e+00
8.800000e-07	-7.487236e-07	-4.715418e-11	-6.180936e+00	1.109132e+00
8.900000e-07	-7.468098e-07	-4.372288e-11	-6.165137e+00	1.163146e+00
9.000000e-07	-7.448741e-07	-4.323943e-11	-6.149157e+00	1.214168e+00
9.100000e-07	-7.429199e-07	-4.423946e-11	-6.133024e+00	1.262004e+00
9.200000e-07	-7.409438e-07	-4.500878e-11	-6.116711e+00	1.306555e+00
9.300000e-07	-7.389417e-07	-4.605565e-11	-6.100183e+00	1.347819e+00
9.400000e-07	-7.369146e-07	-4.701363e-11	-6.083449e+00	1.385895e+00
9.500000e-07	-7.348643e-07	-4.585116e-11	-6.066523e+00	1.420976e+00
9.600000e-07	-7.327977e-07	-4.068162e-11	-6.049462e+00	1.453341e+00
9.700000e-07	-7.307127e-07	-3.182492e-11	-6.032250e+00	1.483337e+00
9.800000e-07	-7.286160e-07	-2.357635e-11	-6.014942e+00	1.511363e+00
9.900000e-07	-7.265169e-07	-1.980533e-11	-5.997613e+00	1.537844e+00
1.000000e-06	-7.244067e-07	-1.932868e-11	-5.980192e+00	1.563206e+00
1.010000e-06	-7.222872e-07	-1.760603e-11	-5.962695e+00	1.587856e+00
1.020000e-06	-7.201495e-07	-1.454340e-11	-5.945048e+00	1.612152e+00
1.030000e-06	-7.179899e-07	-1.237559e-11	-5.927220e+00	1.636383e+00
1.040000e-06	-7.158189e-07	-1.007869e-11	-5.909297e+00	1.660752e+00
1.050000e-06	-7.136345e-07	-5.091343e-12	-5.891265e+00	1.685360e+00
1.060000e-06	-7.114302e-07	2.413853e-12	-5.873068e+00	1.710197e+00
1.070000e-06	-7.092055e-07	8.991150e-12	-5.854702e+00	1.735140e+00
1.080000e-06	-7.069691e-07	1.203805e-11	-5.836240e+00	1.759956e+00
1.090000e-06	-7.047148e-07	1.528236e-11	-5.817630e+00	1.784314e+00
1.100000e-06	-7.024372e-07	1.975960e-11	-5.798827e+00	1.807794e+00
1.110000e-06	-7.001416e-07	2.135166e-11	-5.779877e+00	1.829909e+00
1.120000e-06	-6.978359e-07	1.868553e-11	-5.760843e+00	1.850132e+00
1.130000e-06	-6.955193e-07	1.808334e-11	-5.741718e+00	1.867913e+00
1.140000e-06	-6.931786e-07	2.373455e-11	-5.722395e+00	1.882713e+00
1.150000e-06	-6.908192e-07	2.956336e-11	-5.702918e+00	1.894025e+00
1.160000e-06	-6.884416e-07	3.259079e-11	-5.683290e+00	1.901400e+00
1.170000e-06	-6.860432e-07	3.580167e-11	-5.663490e+00	1.904465e+00
1.180000e-06	-6.836196e-07	4.182022e-11	-5.643483e+00	1.902943e+00
1.190000e-06	-6.811711e-07	4.621355e-11	-5.623270e+00	1.896665e+00
1.200000e-06	-6.787142e-07	4.564065e-11	-5.602987e+00	1.885570e+00
1.210000e-06	-6.762501e-07	4.142935e-11	-5.582646e+00	1.869712e+00
1.220000e-06	-6.737664e-07	3.722407e-11	-5.562142e+00	1.849251e+00
1.230000e-06	-6.712670e-07	3.396144e-11	-5.541508e+00	1.824441e+00
1.240000e-06	-6.687552e-07	3.029086e-11	-5.520772e+00	1.795618e+00
1.250000e-06	-6.662291e-07	2.665538e-11	-5.499919e+00	1.763180e+00
1.260000e-06	-6.636910e-07	2.410266e-11	-5.478966e+00	1.727562e+00
1.270000e-06	-6.611448e-07	2.606849e-11	-5.457946e+00	1.689221e+00
1.280000e-06	-6.585894e-07	3.225165e-11	-5.436851e+00	1.648607e+00
1.290000e-06	-6.560119e-07	3.500585e-11	-5.415573e+00	1.606146e+00
1.300000e-06	-6.534072e-07	3.157513e-11	-5.394070e+00	1.562221e+00
1.310000e-06	-6.507747e-07	2.669390e-11	-5.372338e+00	1.517158e+00
1.320000e-06	-6.481038e-07	2.070919e-11	-5.350289e+00	1.471215e+00
1.330000e-06	-6.454033e-07	1.298698e-11	-5.327996e+00	1.424576e+00
1.340000e-06	-6.426932e-07	6.442312e-12	-5.305623e+00	1.377351e+00
1.350000e-06	-6.399550e-07	4.047615e-12	-5.283018e+00	1.329582e+00
1.360000e-06	-6.371776e-07	4.027467e-12	-5.260090e+00	1.281246e+00
1.370000e-06	-6.343749e-07	4.394868e-12	-5.236953e+00	1.232271e+00
1.380000e-06	-6.315559e-07	5.600269e-12	-5.213682e+00	1.182550e+00
1.390000e-06	-6.287275e-07	7.163540e-12	-5.190332e+00	1.131955e+00
1.400000e-06	-6.258820e-07	6.974103e-12	-5.166841e+00	1.080351e+00
1.410000e-06	-6.230163e-07	2.218284e-12	-5.143185e+00	1.027619e+00
1.420000e-06	-6.201339e-07	-5.929843e-12	-5.119390e+00	9.736621e-01
1.430000e-06	-6.172358e-07	-1.307902e-11	-5.095464e+00	9.184204e-01
1.440000e-06	-6.143281e-07	-1.562371e-11	-5.071461e+00	8.618786e-01
1.450000e-06	-6.114136e-07	-1.619331e-11	-5.047401e+00	8.040696e-01
1.460000e-06	-6.084945e-07	-1.939909e-11	-5.023303e+00	7.450745e-01
1.470000e-06	-6.055673e-07	-2.051644e-11	-4.999137e+00	6.850197e-01
1.480000e-06	-6.026204e-07	-1.678862e-11	-4.974811e+00	6.240685e-01
1.490000e-06	-5.996593e-07	-1.255384e-11	-4.950365e+00	5.624119e-01
1.500000e-06	-5.966947e-07	-1.286854e-11	-4.925892e+00	5.002554e-01
1.510000e-06	-5.937194e-07	-1.699461e-11	-4.901330e+00	4.378063e-01
1.520000e-06	-5.907196e-07	-1.774384e-11	-4.876565e+00	3.752592e-01
1.530000e-06	-5.876967e-07	-1.722550e-11	-4.851610e+00	3.127835e-01
1.540000e-06	-5.846611e-07	-2.123962e-11	-4.826551e+00	2.505122e-01
1.550000e-06	-5.816183e-07	-2.677232e-11	-4.801432e+00	1.885337e-01
1.560000e-06	-5.785701e-07	-2.863842e-11	-4.776268e+00	1.268867e-01
1.570000e-06	-5.755052e-07	-2.502372e-11	-4.750967e+00	6.555865e-02
1.580000e-06	-5.724173e-07	-2.305905e-11	-4.725475e+00	4.488890e-03
1.590000e-06	-5.693196e-07	-2.713629e-11	-4.699902e+00	-5.642502e-02
1.600000e-06	-5.662097e-07	-2.805830e-11	-4.674229e+00	-1.173172e-01
1.610000e-06	-5.630767e-07	-2.402528e-11	-4.648365e+00	-1.783402e-01
1.620000e-06	-5.599354e-07	-1.873014e-11	-4.622433e+00	-2.396506e-01
1.630000e-06	-5.567975e-07	-1.957026e-11	-4.596529e+00	-3.013922e-01
1.640000e-06	-5.536524e-07	-2.591637e-11	-4.570565e+00	-3.636803e-01
1.650000e-06	-5.504919e-07	-2.735878e-11	-4.544474e+00	-4.265867e-01
1.660000e-06	-5.473140e-07	-2.617746e-11	-4.518240e+00	-4.901269e-01
1.670000e-06	-5.441196e-07	-2.532219e-11	-4.491869e+00	-5.542501e-01
1.680000e-06	-5.409163e-07	-2.500505e-11	-4.465425e+00	-6.188339e-01
1.690000e-06	-5.377003e-07	-2.222934e-11	-4.438876e+00	-6.836828e-01
1.700000e-06	-5.344658e-07	-1.635691e-11	-4.412174e+00	-7.485312e-01
1.710000e-06	-5.312148e-07	-1.307375e-11	-4.385336e+00	-8.130517e-01
1.720000e-06	-5.279485e-07	-1.439546e-11	-4.358371e+00	-8.768672e-01
1.730000e-06	-5.246725e-07	-1.639591e-11	-4.331327e+00	-9.395670e-01
1.740000e-06	-5.213940e-07	-1.367057e-11	-4.304262e+00	-1.000726e+00
1.750000e-06	-5.181007e-07	-1.149043e-11	-4.277075e+00	-1.059923e+00
1.760000e-06	-5.147914e-07	-1.185373e-11	-4.249756e+00	-1.116767e+00
1.770000e-06	-5.114735e-07	-1.152726e-11	-4.222366e+00	-1.170911e+00
1.780000e-06	-5.081488e-07	-7.722125e-12	-4.194919e+00	-1.222076e+00
1.790000e-06	-5.048169e-07	-1.909422e-12	-4.167413e+00	-1.270064e+00
1.800000e-06	-5.014766e-07	-3.137846e-12	-4.139838e+00	-1.314769e+00
1.810000e-06	-4.981229e-07	-7.979153e-12	-4.112153e+00	-1.356185e+00
1.820000e-06	-4.947536e-07	-9.201536e-12	-4.084338e+00	-1.394404e+00
1.830000e-06	-4.913746e-07	-3.614111e-12	-4.056443e+00	-1.429617e+00
1.840000e-06	-4.879876e-07	1.537678e-12	-4.028483e+00	-1.462096e+00
1.850000e-06	-4.845982e-07	-1.604149e-12	-4.000502e+00	-1.492187e+00
1.860000e-06	-4.811824e-07	-6.608787e-12	-3.972304e+00	-1.520285e+00
1.870000e-06	-4.777339e-07	-7.427717e-12	-3.943835e+00	-1.546814e+00
1.880000e-06	-4.742771e-07	-4.576084e-12	-3.915299e+00	-1.572203e+00
1.890000e-06	-4.708048e-07	-4.577244e-12	-3.886634e+00	-1.596858e+00
1.900000e-06	-4.673023e-07	-6.813565e-12	-3.857719e+00	-1.621142e+00
1.910000e-06	-4.637728e-07	-7.782803e-12	-3.828582e+00	-1.645348e+00
1.920000e-06	-4.602348e-07	-8.260884e-12	-3.799375e+00	-1.669684e+00
1.930000e-06	-4.566859e-07	-1.056590e-11	-3.770078e+00	-1.694255e+00
1.940000e-06	-4.531122e-07	-1.677123e-11	-3.740576e+00	-1.719059e+00
1.950000e-06	-4.495214e-07	-2.132088e-11	-3.710933e+00	-1.743978e+00
1.960000e-06	-4.459147e-07	-2.323913e-11	-3.681158e+00	-1.768787e+00
1.970000e-06	-4.422868e-07	-2.570657e-11	-3.651209e+00	-1.793156e+00
1.980000e-06	-4.386476e-07	-2.843110e-11	-3.621166e+00	-1.816671e+00
1.990000e-06	-4.350056e-07	-3.127526e-11	-3.591101e+00	-1.838851e+00
2.000000e-06	-4.313503e-07	-3.056391e-11	-3.560925e+00	-1.859166e+00
2.010000e-06	-4.276783e-07	-2.974066e-11	-3.530611e+00	-1.877069e+00
2.020000e-06	-4.239962e-07	-3.168012e-11	-3.500214e+00	-1.892019e+00
2.030000e-06	-4.203067e-07	-3.617852e-11	-3.469756e+00	-1.903507e+00
2.040000e-06	-4.166044e-07	-4.254404e-11	-3.439193e+00	-1.911080e+00
2.050000e-06	-4.128876e-07	-4.925926e-11	-3.408510e+00	-1.914360e+00
2.060000e-06	-4.091596e-07	-5.755635e-11	-3.377734e+00	-1.913067e+00
2.070000e-06	-4.054279e-07	-6.530719e-11	-3.346927e+00	-1.907023e+00
2.080000e-06	-4.016960e-07	-6.997967e-11	-3.316119e+00	-1.896163e+00
2.090000e-06	-3.979624e-07	-6.823430e-11	-3.285298e+00	-1.880535e+00
2.100000e-06	-3.942284e-07	-6.460654e-11	-3.254473e+00	-1.860292e+00
2.110000e-06	-3.904881e-07	-6.468961e-11	-3.223595e+00	-1.835684e+00
2.120000e-06	-3.867327e-07	-6.962858e-11	-3.192594e+00	-1.807044e+00
2.130000e-06	-3.829697e-07	-7.597390e-11	-3.161528e+00	-1.774765e+00
2.140000e-06	-3.792027e-07	-7.913593e-11	-3.130431e+00	-1.739284e+00
2.150000e-06	-3.754331e-07	-8.192250e-11	-3.099311e+00	-1.701054e+00
2.160000e-06	-3.716524e-07	-8.413686e-11	-3.068101e+00	-1.660528e+00
2.170000e-06	-3.678547e-07	-8.418154e-11	-3.036750e+00	-1.618133e+00
2.180000e-06	-3.640465e-07	-8.113166e-11	-3.005312e+00	-1.574255e+00
2.190000e-06	-3.602347e-07	-7.826989e-11	-2.973845e+00	-1.529223e+00
2.200000e-06	-3.564230e-07	-8.018601e-11	-2.942377e+00	-1.483298e+00
2.210000e-06	-3.525956e-07	-8.207000e-11	-2.910781e+00	-1.436670e+00
2.220000e-06	-3.487444e-07	-7.945177e-11	-2.878988e+00	-1.389452e+00
2.230000e-06	-3.448679e-07	-7.642881e-11	-2.846987e+00	-1.341689e+00
2.240000e-06	-3.409854e-07	-7.829227e-11	-2.814936e+00	-1.293362e+00
2.250000e-06	-3.371057e-07	-8.055116e-11	-2.782908e+00	-1.244402e+00
2.260000e-06	-3.332130e-07	-7.874818e-11	-2.750772e+00	-1.194701e+00
2.270000e-06	-3.293085e-07	-7.525111e-11	-2.718539e+00	-1.144133e+00
2.280000e-06	-3.253964e-07	-7.292281e-11	-2.686244e+00	-1.092564e+00
2.290000e-06	-3.214791e-07	-7.161794e-11	-2.653906e+00	-1.039872e+00
2.300000e-06	-3.175628e-07	-6.694199e-11	-2.621575e+00	-9.859598e-01
2.310000e-06	-3.136443e-07	-6.024948e-11	-2.589227e+00	-9.307649e-01
2.320000e-06	-3.097216e-07	-5.764707e-11	-2.556844e+00	-8.742696e-01
2.330000e-06	-3.057905e-07	-6.021721e-11	-2.524391e+00	-8.165039e-01
2.340000e-06	-3.018504e-07	-6.101427e-11	-2.491864e+00	-7.575468e-01
2.350000e-06	-2.979063e-07	-5.620863e-11	-2.459305e+00	-6.975220e-01
2.360000e-06	-2.939421e-07	-5.054313e-11	-2.426579e+00	-6.365914e-01
2.370000e-06	-2.899703e-07	-4.437640e-11	-2.393791e+00	-5.749445e-01
2.380000e-06	-2.860093e-07	-3.569986e-11	-2.361092e+00	-5.127867e-01
2.390000e-06	-2.820381e-07	-2.608793e-11	-2.328308e+00	-4.503254e-01
2.400000e-06	-2.780561e-07	-1.784698e-11	-2.295436e+00	-3.877561e-01
2.410000e-06	-2.740711e-07	-1.310116e-11	-2.262539e+00	-3.252499e-01
2.420000e-06	-2.700782e-07	-1.100143e-11	-2.229576e+00	-2.629422e-01
2.430000e-06	-2.660769e-07	-9.107354e-12	-2.196544e+00	-2.009238e-01
2.440000e-06	-2.620659e-07	-7.444894e-12	-2.163431e+00	-1.392361e-01
2.450000e-06	-2.580423e-07	-4.069675e-12	-2.130216e+00	-7.786921e-02
2.460000e-06	-2.540070e-07	7.558532e-13	-2.096904e+00	-1.676504e-02
2.470000e-06	-2.499730e-07	4.327851e-12	-2.063601e+00	4.417689e-02
2.480000e-06	-2.459320e-07	7.870914e-12	-2.030242e+00	1.050893e-01
2.490000e-06	-2.418849e-07	1.357752e-11	-1.996832e+00	1.661241e-01
2.500000e-06	-2.378269e-07	2.028849e-11	-1.963332e+00	2.274381e-01
2.510000e-06	-2.337505e-07	2.464023e-11	-1.929680e+00	2.891762e-01
2.520000e-06	-2.296707e-07	2.379013e-11	-1.896000e+00	3.514556e-01
2.530000e-06	-2.255880e-07	1.946162e-11	-1.862296e+00	4.143508e-01
2.540000e-06	-2.215004e-07	1.726500e-11	-1.828552e+00	4.778805e-01
2.550000e-06	-2.174079e-07	2.011936e-11	-1.794767e+00	5.419978e-01
2.560000e-06	-2.133157e-07	2.310686e-11	-1.760984e+00	6.065841e-01
2.570000e-06	-2.092217e-07	2.250579e-11	-1.727187e+00	6.714478e-01
2.580000e-06	-2.051222e-07	2.469183e-11	-1.693344e+00	7.363268e-01
2.590000e-06	-2.010236e-07	3.088851e-11	-1.659510e+00	8.008969e-01
2.600000e-06	-1.969238e-07	3.324720e-11	-1.625665e+00	8.647832e-01
2.610000e-06	-1.928157e-07	2.877658e-11	-1.591751e+00	9.275763e-01
2.620000e-06	-1.887010e-07	2.489779e-11	-1.557783e+00	9.888511e-01
2.630000e-06	-1.845815e-07	2.625412e-11	-1.523775e+00	1.048187e+00
2.640000e-06	-1.804628e-07	2.781415e-11	-1.489774e+00	1.105189e+00
2.650000e-06	-1.763465e-07	2.373086e-11	-1.455793e+00	1.159508e+00
2.660000e-06	-1.722306e-07	1.642024e-11	-1.421815e+00	1.210862e+00
2.670000e-06	-1.681141e-07	1.411473e-11	-1.387832e+00	1.259046e+00
2.680000e-06	-1.639926e-07	1.722338e-11	-1.353808e+00	1.303951e+00
2.690000e-06	-1.598699e-07	1.818810e-11	-1.319774e+00	1.345564e+00
2.700000e-06	-1.557501e-07	1.573630e-11	-1.285764e+00	1.383974e+00
2.710000e-06	-1.516221e-07	1.445681e-11	-1.251686e+00	1.419364e+00
2.720000e-06	-1.474882e-07	1.648352e-11	-1.217559e+00	1.452004e+00
2.730000e-06	-1.433586e-07	1.646410e-11	-1.183468e+00	1.482236e+00
2.740000e-06	-1.392276e-07	1.013900e-11	-1.149365e+00	1.510453e+00
2.750000e-06	-1.350944e-07	7.355084e-13	-1.115245e+00	1.537078e+00
2.760000e-06	-1.309637e-07	-6.684965e-12	-1.081144e+00	1.562540e+00
2.770000e-06	-1.268338e-07	-7.999574e-12	-1.047051e+00	1.587248e+00
2.780000e-06	-1.227027e-07	-6.509261e-12	-1.012947e+00	1.611567e+00
2.790000e-06	-1.185573e-07	-8.867165e-12	-9.787258e-01	1.635794e+00
2.800000e-06	-1.144019e-07	-1.227917e-11	-9.444218e-01	1.660141e+00
2.810000e-06	-1.102549e-07	-1.166558e-11	-9.101866e-01	1.684722e+00
2.820000e-06	-1.061124e-07	-8.271091e-12	-8.759893e-01	1.709538e+00
2.830000e-06	-1.019656e-07	-6.629377e-12	-8.417562e-01	1.734479e+00
2.840000e-06	-9.780569e-08	-8.089355e-12	-8.074150e-01	1.759323e+00
2.850000e-06	-9.364252e-08	-8.711520e-12	-7.730468e-01	1.783749e+00
2.860000e-06	-8.948809e-08	-8.423403e-12	-7.387507e-01	1.807345e+00
2.870000e-06	-8.532938e-08	-9.492613e-12	-7.044194e-01	1.829631e+00
