# Temperatura_=_20.0
# Concentracion g/m^3_=_10000.0
# C_Vs_to_Am_M_A/Vsm_=_65563218390.804596
# pendiente_HvsI_1/m_=_3716.3
# ordenada_HvsI_A/m_=_1297.0
# frecuencia_Hz_=_81114.90205031868

Tiempo_(s)	Campo_(V.s)	Magnetizacion_(V.s)	Campo_(kA/m)	Magnetizacion_(A/m)
0.000000e+00	-8.319416e-07	-1.285804e-09	-6.868688e+00	-8.496263e+01
1.000000e-08	-8.319523e-07	-1.292352e-09	-6.868776e+00	-8.511967e+01
2.000000e-08	-8.319206e-07	-1.299799e-09	-6.868514e+00	-8.527852e+01
3.000000e-08	-8.318865e-07	-1.308205e-09	-6.868233e+00	-8.543760e+01
4.000000e-08	-8.318430e-07	-1.312628e-09	-6.867873e+00	-8.559530e+01
5.000000e-08	-8.317781e-07	-1.312885e-09	-6.867337e+00	-8.575004e+01
6.000000e-08	-8.317029e-07	-1.309523e-09	-6.866716e+00	-8.590028e+01
7.000000e-08	-8.316054e-07	-1.304359e-09	-6.865912e+00	-8.604453e+01
8.000000e-08	-8.314897e-07	-1.301115e-09	-6.864956e+00	-8.618136e+01
9.000000e-08	-8.313658e-07	-1.306958e-09	-6.863933e+00	-8.630943e+01
1.000000e-07	-8.312240e-07	-1.308367e-09	-6.862763e+00	-8.642751e+01
1.100000e-07	-8.310606e-07	-1.298716e-09	-6.861413e+00	-8.653443e+01
1.200000e-07	-8.308749e-07	-1.303664e-09	-6.859880e+00	-8.662915e+01
1.300000e-07	-8.306631e-07	-1.320093e-09	-6.858131e+00	-8.671073e+01
1.400000e-07	-8.304179e-07	-1.331828e-09	-6.856107e+00	-8.677833e+01
1.500000e-07	-8.301430e-07	-1.333443e-09	-6.853838e+00	-8.683124e+01
1.600000e-07	-8.298406e-07	-1.325019e-09	-6.851341e+00	-8.686888e+01
1.700000e-07	-8.295080e-07	-1.312830e-09	-6.848595e+00	-8.689078e+01
1.800000e-07	-8.291560e-07	-1.295651e-09	-6.845689e+00	-8.689665e+01
1.900000e-07	-8.287764e-07	-1.293379e-09	-6.842555e+00	-8.688632e+01
2.000000e-07	-8.283650e-07	-1.312340e-09	-6.839158e+00	-8.685983e+01
2.100000e-07	-8.279192e-07	-1.331367e-09	-6.835477e+00	-8.681736e+01
2.200000e-07	-8.274455e-07	-1.340906e-09	-6.831566e+00	-8.675928e+01
2.300000e-07	-8.269564e-07	-1.332125e-09	-6.827528e+00	-8.668617e+01
2.400000e-07	-8.264499e-07	-1.322686e-09	-6.823346e+00	-8.659876e+01
2.500000e-07	-8.259305e-07	-1.310889e-09	-6.819058e+00	-8.649799e+01
2.600000e-07	-8.253949e-07	-1.299136e-09	-6.814636e+00	-8.638494e+01
2.700000e-07	-8.248421e-07	-1.303539e-09	-6.810072e+00	-8.626084e+01
2.800000e-07	-8.242741e-07	-1.305503e-09	-6.805382e+00	-8.612705e+01
2.900000e-07	-8.236904e-07	-1.305040e-09	-6.800564e+00	-8.598503e+01
3.000000e-07	-8.230955e-07	-1.305417e-09	-6.795652e+00	-8.583626e+01
3.100000e-07	-8.224795e-07	-1.301226e-09	-6.790566e+00	-8.568226e+01
3.200000e-07	-8.218304e-07	-1.297001e-09	-6.785207e+00	-8.552454e+01
3.300000e-07	-8.211538e-07	-1.291295e-09	-6.779621e+00	-8.536452e+01
3.400000e-07	-8.204600e-07	-1.287936e-09	-6.773893e+00	-8.520352e+01
3.500000e-07	-8.197483e-07	-1.290352e-09	-6.768016e+00	-8.504274e+01
3.600000e-07	-8.190164e-07	-1.295676e-09	-6.761974e+00	-8.488321e+01
3.700000e-07	-8.182676e-07	-1.295161e-09	-6.755792e+00	-8.472576e+01
3.800000e-07	-8.174941e-07	-1.285502e-09	-6.749405e+00	-8.457104e+01
3.900000e-07	-8.166946e-07	-1.272068e-09	-6.742805e+00	-8.441947e+01
4.000000e-07	-8.158833e-07	-1.258270e-09	-6.736107e+00	-8.427129e+01
4.100000e-07	-8.150534e-07	-1.257684e-09	-6.729255e+00	-8.412654e+01
4.200000e-07	-8.141917e-07	-1.267173e-09	-6.722140e+00	-8.398511e+01
4.300000e-07	-8.133140e-07	-1.282467e-09	-6.714894e+00	-8.384674e+01
4.400000e-07	-8.124218e-07	-1.288241e-09	-6.707527e+00	-8.371108e+01
4.500000e-07	-8.115108e-07	-1.278869e-09	-6.700006e+00	-8.357773e+01
4.600000e-07	-8.105865e-07	-1.267421e-09	-6.692375e+00	-8.344625e+01
4.700000e-07	-8.096470e-07	-1.257803e-09	-6.684618e+00	-8.331624e+01
4.800000e-07	-8.086910e-07	-1.254376e-09	-6.676726e+00	-8.318736e+01
4.900000e-07	-8.077190e-07	-1.249333e-09	-6.668700e+00	-8.305935e+01
5.000000e-07	-8.067319e-07	-1.247000e-09	-6.660550e+00	-8.293208e+01
5.100000e-07	-8.057194e-07	-1.251494e-09	-6.652191e+00	-8.280556e+01
5.200000e-07	-8.046753e-07	-1.256285e-09	-6.643571e+00	-8.267993e+01
5.300000e-07	-8.035913e-07	-1.258855e-09	-6.634621e+00	-8.255548e+01
5.400000e-07	-8.024730e-07	-1.255653e-09	-6.625388e+00	-8.243262e+01
5.500000e-07	-8.013254e-07	-1.251563e-09	-6.615913e+00	-8.231188e+01
5.600000e-07	-8.001352e-07	-1.246869e-09	-6.606087e+00	-8.219385e+01
5.700000e-07	-7.989077e-07	-1.240820e-09	-6.595952e+00	-8.207917e+01
5.800000e-07	-7.976540e-07	-1.233893e-09	-6.585601e+00	-8.196847e+01
5.900000e-07	-7.963752e-07	-1.227748e-09	-6.575044e+00	-8.186234e+01
6.000000e-07	-7.950740e-07	-1.226512e-09	-6.564300e+00	-8.176128e+01
6.100000e-07	-7.937589e-07	-1.230313e-09	-6.553443e+00	-8.166566e+01
6.200000e-07	-7.924306e-07	-1.239378e-09	-6.542476e+00	-8.157566e+01
6.300000e-07	-7.910808e-07	-1.246024e-09	-6.531332e+00	-8.149131e+01
6.400000e-07	-7.897068e-07	-1.246358e-09	-6.519987e+00	-8.141237e+01
6.500000e-07	-7.883188e-07	-1.241435e-09	-6.508528e+00	-8.133841e+01
6.600000e-07	-7.869057e-07	-1.234421e-09	-6.496861e+00	-8.126876e+01
6.700000e-07	-7.854596e-07	-1.229903e-09	-6.484922e+00	-8.120253e+01
6.800000e-07	-7.839956e-07	-1.224637e-09	-6.472835e+00	-8.113865e+01
6.900000e-07	-7.825106e-07	-1.221478e-09	-6.460574e+00	-8.107587e+01
7.000000e-07	-7.810068e-07	-1.224312e-09	-6.448158e+00	-8.101282e+01
7.100000e-07	-7.794871e-07	-1.231151e-09	-6.435612e+00	-8.094806e+01
7.200000e-07	-7.779445e-07	-1.237222e-09	-6.422876e+00	-8.088009e+01
7.300000e-07	-7.763866e-07	-1.236852e-09	-6.410013e+00	-8.080747e+01
7.400000e-07	-7.748145e-07	-1.233282e-09	-6.397034e+00	-8.072878e+01
7.500000e-07	-7.732073e-07	-1.229763e-09	-6.383764e+00	-8.064274e+01
7.600000e-07	-7.715550e-07	-1.226984e-09	-6.370123e+00	-8.054821e+01
7.700000e-07	-7.698734e-07	-1.222843e-09	-6.356239e+00	-8.044424e+01
7.800000e-07	-7.681723e-07	-1.216135e-09	-6.342194e+00	-8.033008e+01
7.900000e-07	-7.664413e-07	-1.211901e-09	-6.327903e+00	-8.020517e+01
8.000000e-07	-7.646782e-07	-1.212103e-09	-6.313346e+00	-8.006922e+01
8.100000e-07	-7.629071e-07	-1.214792e-09	-6.298724e+00	-7.992212e+01
8.200000e-07	-7.611111e-07	-1.215746e-09	-6.283895e+00	-7.976397e+01
8.300000e-07	-7.592830e-07	-1.216109e-09	-6.268802e+00	-7.959504e+01
8.400000e-07	-7.574444e-07	-1.216952e-09	-6.253622e+00	-7.941574e+01
8.500000e-07	-7.555939e-07	-1.214714e-09	-6.238345e+00	-7.922660e+01
8.600000e-07	-7.537366e-07	-1.207975e-09	-6.223010e+00	-7.902823e+01
8.700000e-07	-7.518629e-07	-1.196488e-09	-6.207540e+00	-7.882128e+01
8.800000e-07	-7.499696e-07	-1.186341e-09	-6.191909e+00	-7.860638e+01
8.900000e-07	-7.480631e-07	-1.180266e-09	-6.176169e+00	-7.838416e+01
9.000000e-07	-7.461381e-07	-1.175105e-09	-6.160276e+00	-7.815521e+01
9.100000e-07	-7.441955e-07	-1.170598e-09	-6.144237e+00	-7.792004e+01
9.200000e-07	-7.422299e-07	-1.169290e-09	-6.128008e+00	-7.767909e+01
9.300000e-07	-7.402434e-07	-1.172087e-09	-6.111607e+00	-7.743272e+01
9.400000e-07	-7.382444e-07	-1.171368e-09	-6.095103e+00	-7.718125e+01
9.500000e-07	-7.362106e-07	-1.164292e-09	-6.078311e+00	-7.692491e+01
9.600000e-07	-7.341442e-07	-1.156495e-09	-6.061251e+00	-7.666392e+01
9.700000e-07	-7.320602e-07	-1.149769e-09	-6.044045e+00	-7.639846e+01
9.800000e-07	-7.299597e-07	-1.142375e-09	-6.026703e+00	-7.612876e+01
9.900000e-07	-7.278519e-07	-1.133502e-09	-6.009300e+00	-7.585506e+01
1.000000e-06	-7.257398e-07	-1.127902e-09	-5.991862e+00	-7.557768e+01
1.010000e-06	-7.236213e-07	-1.129267e-09	-5.974371e+00	-7.529703e+01
1.020000e-06	-7.214906e-07	-1.131945e-09	-5.956780e+00	-7.501362e+01
1.030000e-06	-7.193464e-07	-1.128773e-09	-5.939077e+00	-7.472809e+01
1.040000e-06	-7.171928e-07	-1.123105e-09	-5.921297e+00	-7.444117e+01
1.050000e-06	-7.150265e-07	-1.121487e-09	-5.903412e+00	-7.415375e+01
1.060000e-06	-7.128406e-07	-1.119968e-09	-5.885364e+00	-7.386679e+01
1.070000e-06	-7.106304e-07	-1.113019e-09	-5.867116e+00	-7.358135e+01
1.080000e-06	-7.084040e-07	-1.102608e-09	-5.848735e+00	-7.329856e+01
1.090000e-06	-7.061763e-07	-1.093353e-09	-5.830342e+00	-7.301955e+01
1.100000e-06	-7.039253e-07	-1.088441e-09	-5.811757e+00	-7.274547e+01
1.110000e-06	-7.016415e-07	-1.086913e-09	-5.792902e+00	-7.247739e+01
1.120000e-06	-6.993345e-07	-1.086106e-09	-5.773855e+00	-7.221633e+01
1.130000e-06	-6.970103e-07	-1.085093e-09	-5.754666e+00	-7.196316e+01
1.140000e-06	-6.946759e-07	-1.083942e-09	-5.735392e+00	-7.171860e+01
1.150000e-06	-6.923239e-07	-1.082870e-09	-5.715974e+00	-7.148316e+01
1.160000e-06	-6.899591e-07	-1.078130e-09	-5.696450e+00	-7.125715e+01
1.170000e-06	-6.875759e-07	-1.070272e-09	-5.676773e+00	-7.104066e+01
1.180000e-06	-6.851667e-07	-1.064046e-09	-5.656882e+00	-7.083353e+01
1.190000e-06	-6.827342e-07	-1.058846e-09	-5.636799e+00	-7.063535e+01
1.200000e-06	-6.802853e-07	-1.054142e-09	-5.616580e+00	-7.044550e+01
1.210000e-06	-6.778280e-07	-1.050763e-09	-5.596293e+00	-7.026315e+01
1.220000e-06	-6.753541e-07	-1.050758e-09	-5.575867e+00	-7.008727e+01
1.230000e-06	-6.728600e-07	-1.053965e-09	-5.555276e+00	-6.991668e+01
1.240000e-06	-6.703518e-07	-1.056183e-09	-5.534568e+00	-6.975010e+01
1.250000e-06	-6.678339e-07	-1.055771e-09	-5.513779e+00	-6.958614e+01
1.260000e-06	-6.653059e-07	-1.053288e-09	-5.492907e+00	-6.942340e+01
1.270000e-06	-6.627653e-07	-1.047380e-09	-5.471932e+00	-6.926048e+01
1.280000e-06	-6.602097e-07	-1.037047e-09	-5.450832e+00	-6.909601e+01
1.290000e-06	-6.576371e-07	-1.026931e-09	-5.429592e+00	-6.892870e+01
1.300000e-06	-6.550472e-07	-1.023203e-09	-5.408209e+00	-6.875740e+01
1.310000e-06	-6.524410e-07	-1.023204e-09	-5.386692e+00	-6.858106e+01
1.320000e-06	-6.498083e-07	-1.024609e-09	-5.364955e+00	-6.839881e+01
1.330000e-06	-6.471543e-07	-1.027180e-09	-5.343044e+00	-6.820997e+01
1.340000e-06	-6.444762e-07	-1.026567e-09	-5.320933e+00	-6.801401e+01
1.350000e-06	-6.417673e-07	-1.022874e-09	-5.298568e+00	-6.781061e+01
1.360000e-06	-6.390352e-07	-1.017422e-09	-5.276011e+00	-6.759962e+01
1.370000e-06	-6.362599e-07	-1.011196e-09	-5.253098e+00	-6.738106e+01
1.380000e-06	-6.334499e-07	-1.005046e-09	-5.229898e+00	-6.715509e+01
1.390000e-06	-6.306269e-07	-9.987087e-10	-5.206590e+00	-6.692204e+01
1.400000e-06	-6.277881e-07	-9.928533e-10	-5.183152e+00	-6.668234e+01
1.410000e-06	-6.249241e-07	-9.879690e-10	-5.159507e+00	-6.643649e+01
1.420000e-06	-6.220376e-07	-9.854297e-10	-5.135675e+00	-6.618510e+01
1.430000e-06	-6.191442e-07	-9.832053e-10	-5.111787e+00	-6.592878e+01
1.440000e-06	-6.162457e-07	-9.805360e-10	-5.087856e+00	-6.566819e+01
1.450000e-06	-6.133331e-07	-9.781253e-10	-5.063809e+00	-6.540396e+01
1.460000e-06	-6.104072e-07	-9.737937e-10	-5.039652e+00	-6.513672e+01
1.470000e-06	-6.074747e-07	-9.667412e-10	-5.015441e+00	-6.486701e+01
1.480000e-06	-6.045353e-07	-9.552856e-10	-4.991173e+00	-6.459536e+01
1.490000e-06	-6.015896e-07	-9.443535e-10	-4.966852e+00	-6.432217e+01
1.500000e-06	-5.986326e-07	-9.375456e-10	-4.942438e+00	-6.404777e+01
1.510000e-06	-5.956653e-07	-9.341474e-10	-4.917940e+00	-6.377239e+01
1.520000e-06	-5.926874e-07	-9.320190e-10	-4.893353e+00	-6.349614e+01
1.530000e-06	-5.896851e-07	-9.304527e-10	-4.868566e+00	-6.321902e+01
1.540000e-06	-5.866614e-07	-9.323910e-10	-4.843602e+00	-6.294092e+01
1.550000e-06	-5.836236e-07	-9.323610e-10	-4.818521e+00	-6.266162e+01
1.560000e-06	-5.805736e-07	-9.263272e-10	-4.793339e+00	-6.238079e+01
1.570000e-06	-5.775089e-07	-9.164172e-10	-4.768037e+00	-6.209803e+01
1.580000e-06	-5.744207e-07	-9.064329e-10	-4.742540e+00	-6.181282e+01
1.590000e-06	-5.713223e-07	-9.006444e-10	-4.716959e+00	-6.152461e+01
1.600000e-06	-5.682159e-07	-8.958971e-10	-4.691311e+00	-6.123279e+01
1.610000e-06	-5.650984e-07	-8.905162e-10	-4.665573e+00	-6.093673e+01
1.620000e-06	-5.619760e-07	-8.851934e-10	-4.639794e+00	-6.063580e+01
1.630000e-06	-5.588371e-07	-8.829519e-10	-4.613878e+00	-6.032940e+01
1.640000e-06	-5.556829e-07	-8.856258e-10	-4.587836e+00	-6.001699e+01
1.650000e-06	-5.525163e-07	-8.840878e-10	-4.561692e+00	-5.969809e+01
1.660000e-06	-5.493387e-07	-8.778113e-10	-4.535457e+00	-5.937235e+01
1.670000e-06	-5.461505e-07	-8.705642e-10	-4.509135e+00	-5.903955e+01
1.680000e-06	-5.429466e-07	-8.642735e-10	-4.482683e+00	-5.869960e+01
1.690000e-06	-5.397318e-07	-8.582530e-10	-4.456141e+00	-5.835262e+01
1.700000e-06	-5.364913e-07	-8.484907e-10	-4.429387e+00	-5.799886e+01
1.710000e-06	-5.332294e-07	-8.417121e-10	-4.402455e+00	-5.763881e+01
1.720000e-06	-5.299597e-07	-8.408148e-10	-4.375460e+00	-5.727311e+01
1.730000e-06	-5.266780e-07	-8.408566e-10	-4.348366e+00	-5.690259e+01
1.740000e-06	-5.233879e-07	-8.356162e-10	-4.321202e+00	-5.652827e+01
1.750000e-06	-5.200905e-07	-8.276768e-10	-4.293978e+00	-5.615128e+01
1.760000e-06	-5.167900e-07	-8.230095e-10	-4.266729e+00	-5.577288e+01
1.770000e-06	-5.134825e-07	-8.182161e-10	-4.239421e+00	-5.539441e+01
1.780000e-06	-5.101603e-07	-8.085721e-10	-4.211992e+00	-5.501726e+01
1.790000e-06	-5.068238e-07	-7.950230e-10	-4.184446e+00	-5.464280e+01
1.800000e-06	-5.034793e-07	-7.884553e-10	-4.156833e+00	-5.427238e+01
1.810000e-06	-5.001315e-07	-7.907078e-10	-4.129192e+00	-5.390724e+01
1.820000e-06	-4.967775e-07	-7.924945e-10	-4.101501e+00	-5.354850e+01
1.830000e-06	-4.934156e-07	-7.894352e-10	-4.073745e+00	-5.319710e+01
1.840000e-06	-4.900433e-07	-7.855436e-10	-4.045902e+00	-5.285380e+01
1.850000e-06	-4.866543e-07	-7.846373e-10	-4.017921e+00	-5.251910e+01
1.860000e-06	-4.832416e-07	-7.793738e-10	-3.989745e+00	-5.219327e+01
1.870000e-06	-4.798155e-07	-7.677540e-10	-3.961459e+00	-5.187633e+01
1.880000e-06	-4.763760e-07	-7.538192e-10	-3.933061e+00	-5.156802e+01
1.890000e-06	-4.729214e-07	-7.448314e-10	-3.904540e+00	-5.126785e+01
1.900000e-06	-4.694574e-07	-7.436291e-10	-3.875941e+00	-5.097509e+01
1.910000e-06	-4.659519e-07	-7.382100e-10	-3.846998e+00	-5.068883e+01
1.920000e-06	-4.624012e-07	-7.297159e-10	-3.817683e+00	-5.040799e+01
1.930000e-06	-4.588363e-07	-7.263531e-10	-3.788250e+00	-5.013134e+01
1.940000e-06	-4.552671e-07	-7.303960e-10	-3.758783e+00	-4.985760e+01
1.950000e-06	-4.516833e-07	-7.349742e-10	-3.729194e+00	-4.958546e+01
1.960000e-06	-4.480852e-07	-7.310348e-10	-3.699487e+00	-4.931360e+01
1.970000e-06	-4.444696e-07	-7.245299e-10	-3.669636e+00	-4.904077e+01
1.980000e-06	-4.408360e-07	-7.194948e-10	-3.639636e+00	-4.876582e+01
1.990000e-06	-4.371808e-07	-7.146417e-10	-3.609458e+00	-4.848772e+01
2.000000e-06	-4.335021e-07	-7.047604e-10	-3.579086e+00	-4.820560e+01
2.010000e-06	-4.298126e-07	-6.946614e-10	-3.548624e+00	-4.791875e+01
2.020000e-06	-4.261108e-07	-6.926224e-10	-3.518062e+00	-4.762665e+01
2.030000e-06	-4.224041e-07	-6.948151e-10	-3.487458e+00	-4.732894e+01
2.040000e-06	-4.186951e-07	-6.957370e-10	-3.456836e+00	-4.702543e+01
2.050000e-06	-4.149825e-07	-6.927692e-10	-3.426184e+00	-4.671607e+01
2.060000e-06	-4.112697e-07	-6.909870e-10	-3.395530e+00	-4.640094e+01
2.070000e-06	-4.075528e-07	-6.881392e-10	-3.364842e+00	-4.608017e+01
2.080000e-06	-4.038276e-07	-6.788413e-10	-3.334087e+00	-4.575397e+01
2.090000e-06	-4.000938e-07	-6.645803e-10	-3.303259e+00	-4.542257e+01
2.100000e-06	-3.963542e-07	-6.518921e-10	-3.272385e+00	-4.508616e+01
2.110000e-06	-3.926137e-07	-6.478638e-10	-3.241503e+00	-4.474487e+01
2.120000e-06	-3.888716e-07	-6.499091e-10	-3.210607e+00	-4.439879e+01
2.130000e-06	-3.851216e-07	-6.515475e-10	-3.179646e+00	-4.404789e+01
2.140000e-06	-3.813648e-07	-6.488938e-10	-3.148629e+00	-4.369202e+01
2.150000e-06	-3.776072e-07	-6.447087e-10	-3.117606e+00	-4.333092e+01
2.160000e-06	-3.738400e-07	-6.405479e-10	-3.086503e+00	-4.296425e+01
2.170000e-06	-3.700564e-07	-6.310642e-10	-3.055265e+00	-4.259153e+01
2.180000e-06	-3.662544e-07	-6.189232e-10	-3.023874e+00	-4.221225e+01
2.190000e-06	-3.624388e-07	-6.100170e-10	-2.992372e+00	-4.182582e+01
2.200000e-06	-3.586122e-07	-6.065265e-10	-2.960779e+00	-4.143165e+01
2.210000e-06	-3.547763e-07	-6.027366e-10	-2.929109e+00	-4.102919e+01
2.220000e-06	-3.509307e-07	-5.941183e-10	-2.897359e+00	-4.061791e+01
2.230000e-06	-3.470763e-07	-5.865577e-10	-2.865536e+00	-4.019743e+01
2.240000e-06	-3.432175e-07	-5.842921e-10	-2.833676e+00	-3.976745e+01
2.250000e-06	-3.393542e-07	-5.840041e-10	-2.801781e+00	-3.932788e+01
2.260000e-06	-3.354823e-07	-5.797093e-10	-2.769813e+00	-3.887877e+01
2.270000e-06	-3.316021e-07	-5.710086e-10	-2.737777e+00	-3.842041e+01
2.280000e-06	-3.277131e-07	-5.619255e-10	-2.705669e+00	-3.795327e+01
2.290000e-06	-3.238060e-07	-5.549665e-10	-2.673412e+00	-3.747802e+01
2.300000e-06	-3.198875e-07	-5.456160e-10	-2.641059e+00	-3.699555e+01
2.310000e-06	-3.159620e-07	-5.345290e-10	-2.608649e+00	-3.650690e+01
2.320000e-06	-3.120328e-07	-5.282974e-10	-2.576210e+00	-3.601326e+01
2.330000e-06	-3.080960e-07	-5.274733e-10	-2.543706e+00	-3.551593e+01
2.340000e-06	-3.041464e-07	-5.276593e-10	-2.511097e+00	-3.501631e+01
2.350000e-06	-3.002001e-07	-5.235841e-10	-2.478516e+00	-3.451580e+01
2.360000e-06	-2.962553e-07	-5.167310e-10	-2.445947e+00	-3.401581e+01
2.370000e-06	-2.922976e-07	-5.080293e-10	-2.413271e+00	-3.351771e+01
2.380000e-06	-2.883297e-07	-4.946637e-10	-2.380511e+00	-3.302278e+01
2.390000e-06	-2.843557e-07	-4.781288e-10	-2.347702e+00	-3.253219e+01
2.400000e-06	-2.803668e-07	-4.645580e-10	-2.314768e+00	-3.204696e+01
2.410000e-06	-2.763715e-07	-4.588265e-10	-2.281782e+00	-3.156798e+01
2.420000e-06	-2.723820e-07	-4.578245e-10	-2.248843e+00	-3.109593e+01
2.430000e-06	-2.683963e-07	-4.576098e-10	-2.215937e+00	-3.063136e+01
2.440000e-06	-2.643985e-07	-4.551142e-10	-2.182930e+00	-3.017463e+01
2.450000e-06	-2.603765e-07	-4.514633e-10	-2.149724e+00	-2.972593e+01
2.460000e-06	-2.563453e-07	-4.460068e-10	-2.116441e+00	-2.928533e+01
2.470000e-06	-2.523034e-07	-4.356736e-10	-2.083071e+00	-2.885278e+01
2.480000e-06	-2.482497e-07	-4.252061e-10	-2.049602e+00	-2.842812e+01
2.490000e-06	-2.441969e-07	-4.147867e-10	-2.016141e+00	-2.801114e+01
2.500000e-06	-2.401393e-07	-4.067534e-10	-1.982641e+00	-2.760157e+01
2.510000e-06	-2.360731e-07	-4.015354e-10	-1.949070e+00	-2.719913e+01
2.520000e-06	-2.320006e-07	-3.978584e-10	-1.915447e+00	-2.680352e+01
2.530000e-06	-2.279318e-07	-3.967217e-10	-1.881854e+00	-2.641449e+01
2.540000e-06	-2.238581e-07	-3.934504e-10	-1.848220e+00	-2.603178e+01
2.550000e-06	-2.197692e-07	-3.887494e-10	-1.814461e+00	-2.565519e+01
2.560000e-06	-2.156782e-07	-3.825836e-10	-1.780685e+00	-2.528455e+01
2.570000e-06	-2.115857e-07	-3.740720e-10	-1.746896e+00	-2.491971e+01
2.580000e-06	-2.074888e-07	-3.653613e-10	-1.713072e+00	-2.456054e+01
2.590000e-06	-2.033896e-07	-3.579408e-10	-1.679228e+00	-2.420692e+01
2.600000e-06	-1.992870e-07	-3.526544e-10	-1.645356e+00	-2.385872e+01
2.610000e-06	-1.951779e-07	-3.495619e-10	-1.611430e+00	-2.351577e+01
2.620000e-06	-1.910730e-07	-3.466791e-10	-1.577539e+00	-2.317788e+01
2.630000e-06	-1.869721e-07	-3.416242e-10	-1.543682e+00	-2.284477e+01
2.640000e-06	-1.828597e-07	-3.352779e-10	-1.509729e+00	-2.251610e+01
2.650000e-06	-1.787376e-07	-3.312646e-10	-1.475696e+00	-2.219142e+01
2.660000e-06	-1.746193e-07	-3.301424e-10	-1.441694e+00	-2.187019e+01
2.670000e-06	-1.704989e-07	-3.285221e-10	-1.407675e+00	-2.155179e+01
2.680000e-06	-1.663737e-07	-3.233192e-10	-1.373616e+00	-2.123548e+01
2.690000e-06	-1.622486e-07	-3.153337e-10	-1.339559e+00	-2.092044e+01
2.700000e-06	-1.581251e-07	-3.081925e-10	-1.305514e+00	-2.060578e+01
2.710000e-06	-1.539975e-07	-3.020960e-10	-1.271437e+00	-2.029053e+01
2.720000e-06	-1.498665e-07	-2.954120e-10	-1.237330e+00	-1.997370e+01
2.730000e-06	-1.457381e-07	-2.900143e-10	-1.203245e+00	-1.965428e+01
2.740000e-06	-1.416078e-07	-2.876687e-10	-1.169144e+00	-1.933125e+01
2.750000e-06	-1.374744e-07	-2.884450e-10	-1.135018e+00	-1.900364e+01
2.760000e-06	-1.333338e-07	-2.902672e-10	-1.100832e+00	-1.867052e+01
2.770000e-06	-1.291920e-07	-2.882760e-10	-1.066637e+00	-1.833105e+01
2.780000e-06	-1.250526e-07	-2.800008e-10	-1.032461e+00	-1.798447e+01
2.790000e-06	-1.209119e-07	-2.677761e-10	-9.982747e-01	-1.763013e+01
2.800000e-06	-1.167726e-07	-2.562040e-10	-9.640998e-01	-1.726751e+01
2.810000e-06	-1.126303e-07	-2.475669e-10	-9.299000e-01	-1.689622e+01
2.820000e-06	-1.084780e-07	-2.432731e-10	-8.956172e-01	-1.651599e+01
2.830000e-06	-1.043196e-07	-2.399964e-10	-8.612851e-01	-1.612667e+01
2.840000e-06	-1.001630e-07	-2.364036e-10	-8.269674e-01	-1.572827e+01
