# Temperatura_=_20.0
# Concentracion g/m^3_=_10000.0
# C_Vs_to_Am_M_A/Vsm_=_65563218390.804596
# pendiente_HvsI_1/m_=_3716.3
# ordenada_HvsI_A/m_=_1297.0
# frecuencia_Hz_=_81113.93618115514

Tiempo_(s)	Campo_(V.s)	Magnetizacion_(V.s)	Campo_(kA/m)	Magnetizacion_(A/m)
0.000000e+00	-8.322110e-07	-1.217192e-09	-6.868745e+00	-8.133379e+01
1.000000e-08	-8.321937e-07	-1.216087e-09	-6.868602e+00	-8.149661e+01
2.000000e-08	-8.321761e-07	-1.220218e-09	-6.868456e+00	-8.166703e+01
3.000000e-08	-8.321411e-07	-1.228008e-09	-6.868168e+00	-8.184341e+01
4.000000e-08	-8.320717e-07	-1.233287e-09	-6.867595e+00	-8.202407e+01
5.000000e-08	-8.319910e-07	-1.227806e-09	-6.866929e+00	-8.220741e+01
6.000000e-08	-8.319032e-07	-1.219529e-09	-6.866204e+00	-8.239186e+01
7.000000e-08	-8.317842e-07	-1.220438e-09	-6.865222e+00	-8.257596e+01
8.000000e-08	-8.316485e-07	-1.230097e-09	-6.864102e+00	-8.275831e+01
9.000000e-08	-8.315071e-07	-1.246043e-09	-6.862935e+00	-8.293760e+01
1.000000e-07	-8.313508e-07	-1.248467e-09	-6.861644e+00	-8.311261e+01
1.100000e-07	-8.311777e-07	-1.241795e-09	-6.860216e+00	-8.328220e+01
1.200000e-07	-8.309663e-07	-1.247199e-09	-6.858471e+00	-8.344529e+01
1.300000e-07	-8.307189e-07	-1.254465e-09	-6.856429e+00	-8.360085e+01
1.400000e-07	-8.304544e-07	-1.257342e-09	-6.854246e+00	-8.374788e+01
1.500000e-07	-8.301617e-07	-1.254621e-09	-6.851830e+00	-8.388542e+01
1.600000e-07	-8.298339e-07	-1.253629e-09	-6.849125e+00	-8.401252e+01
1.700000e-07	-8.294791e-07	-1.256779e-09	-6.846196e+00	-8.412825e+01
1.800000e-07	-8.291019e-07	-1.257065e-09	-6.843083e+00	-8.423167e+01
1.900000e-07	-8.286938e-07	-1.255329e-09	-6.839715e+00	-8.432187e+01
2.000000e-07	-8.282546e-07	-1.253958e-09	-6.836090e+00	-8.439797e+01
2.100000e-07	-8.277989e-07	-1.265754e-09	-6.832329e+00	-8.445911e+01
2.200000e-07	-8.273314e-07	-1.272549e-09	-6.828471e+00	-8.450451e+01
2.300000e-07	-8.268381e-07	-1.269432e-09	-6.824398e+00	-8.453346e+01
2.400000e-07	-8.263222e-07	-1.264984e-09	-6.820141e+00	-8.454536e+01
2.500000e-07	-8.257997e-07	-1.254160e-09	-6.815828e+00	-8.453973e+01
2.600000e-07	-8.252711e-07	-1.249544e-09	-6.811465e+00	-8.451625e+01
2.700000e-07	-8.247249e-07	-1.246362e-09	-6.806957e+00	-8.447480e+01
2.800000e-07	-8.241578e-07	-1.246924e-09	-6.802276e+00	-8.441543e+01
2.900000e-07	-8.235691e-07	-1.246975e-09	-6.797418e+00	-8.433841e+01
3.000000e-07	-8.229601e-07	-1.249855e-09	-6.792391e+00	-8.424424e+01
3.100000e-07	-8.223351e-07	-1.259794e-09	-6.787233e+00	-8.413361e+01
3.200000e-07	-8.216851e-07	-1.257963e-09	-6.781868e+00	-8.400746e+01
3.300000e-07	-8.210075e-07	-1.253786e-09	-6.776275e+00	-8.386689e+01
3.400000e-07	-8.203016e-07	-1.243296e-09	-6.770449e+00	-8.371319e+01
3.500000e-07	-8.195725e-07	-1.239498e-09	-6.764431e+00	-8.354782e+01
3.600000e-07	-8.188255e-07	-1.244491e-09	-6.758266e+00	-8.337232e+01
3.700000e-07	-8.180567e-07	-1.243035e-09	-6.751921e+00	-8.318834e+01
3.800000e-07	-8.172815e-07	-1.239478e-09	-6.745522e+00	-8.299755e+01
3.900000e-07	-8.164882e-07	-1.230662e-09	-6.738974e+00	-8.280164e+01
4.000000e-07	-8.156664e-07	-1.223937e-09	-6.732192e+00	-8.260225e+01
4.100000e-07	-8.148143e-07	-1.214062e-09	-6.725159e+00	-8.240097e+01
4.200000e-07	-8.139380e-07	-1.211453e-09	-6.717926e+00	-8.219926e+01
4.300000e-07	-8.130449e-07	-1.219150e-09	-6.710555e+00	-8.199850e+01
4.400000e-07	-8.121347e-07	-1.224786e-09	-6.703043e+00	-8.179988e+01
4.500000e-07	-8.112176e-07	-1.223702e-09	-6.695474e+00	-8.160448e+01
4.600000e-07	-8.102888e-07	-1.211447e-09	-6.687808e+00	-8.141321e+01
4.700000e-07	-8.093469e-07	-1.204353e-09	-6.680033e+00	-8.122683e+01
4.800000e-07	-8.083919e-07	-1.201653e-09	-6.672151e+00	-8.104597e+01
4.900000e-07	-8.074193e-07	-1.200990e-09	-6.664124e+00	-8.087115e+01
5.000000e-07	-8.064230e-07	-1.200046e-09	-6.655901e+00	-8.070280e+01
5.100000e-07	-8.053844e-07	-1.198254e-09	-6.647328e+00	-8.054125e+01
5.200000e-07	-8.043102e-07	-1.204380e-09	-6.638462e+00	-8.038684e+01
5.300000e-07	-8.032158e-07	-1.208288e-09	-6.629430e+00	-8.023985e+01
5.400000e-07	-8.020985e-07	-1.206922e-09	-6.620208e+00	-8.010061e+01
5.500000e-07	-8.009343e-07	-1.197142e-09	-6.610599e+00	-7.996944e+01
5.600000e-07	-7.997166e-07	-1.187398e-09	-6.600549e+00	-7.984672e+01
5.700000e-07	-7.984699e-07	-1.183553e-09	-6.590258e+00	-7.973289e+01
5.800000e-07	-7.971985e-07	-1.181139e-09	-6.579765e+00	-7.962843e+01
5.900000e-07	-7.959085e-07	-1.179283e-09	-6.569118e+00	-7.953384e+01
6.000000e-07	-7.946018e-07	-1.177737e-09	-6.558333e+00	-7.944968e+01
6.100000e-07	-7.932798e-07	-1.188110e-09	-6.547421e+00	-7.937646e+01
6.200000e-07	-7.919433e-07	-1.203001e-09	-6.536391e+00	-7.931470e+01
6.300000e-07	-7.905870e-07	-1.210934e-09	-6.525197e+00	-7.926482e+01
6.400000e-07	-7.891999e-07	-1.207704e-09	-6.513748e+00	-7.922713e+01
6.500000e-07	-7.877959e-07	-1.197907e-09	-6.502159e+00	-7.920181e+01
6.600000e-07	-7.863780e-07	-1.194448e-09	-6.490457e+00	-7.918883e+01
6.700000e-07	-7.849346e-07	-1.192437e-09	-6.478544e+00	-7.918794e+01
6.800000e-07	-7.834722e-07	-1.191567e-09	-6.466474e+00	-7.919861e+01
6.900000e-07	-7.819775e-07	-1.193004e-09	-6.454137e+00	-7.922006e+01
7.000000e-07	-7.804561e-07	-1.199002e-09	-6.441580e+00	-7.925119e+01
7.100000e-07	-7.789264e-07	-1.206952e-09	-6.428954e+00	-7.929059e+01
7.200000e-07	-7.773816e-07	-1.209011e-09	-6.416204e+00	-7.933656e+01
7.300000e-07	-7.758113e-07	-1.206799e-09	-6.403244e+00	-7.938714e+01
7.400000e-07	-7.742068e-07	-1.200127e-09	-6.390001e+00	-7.944010e+01
7.500000e-07	-7.725806e-07	-1.197285e-09	-6.376578e+00	-7.949301e+01
7.600000e-07	-7.709120e-07	-1.197463e-09	-6.362806e+00	-7.954327e+01
7.700000e-07	-7.691991e-07	-1.196259e-09	-6.348669e+00	-7.958820e+01
7.800000e-07	-7.674787e-07	-1.195281e-09	-6.334470e+00	-7.962509e+01
7.900000e-07	-7.657365e-07	-1.194674e-09	-6.320090e+00	-7.965123e+01
8.000000e-07	-7.639595e-07	-1.199935e-09	-6.305423e+00	-7.966404e+01
8.100000e-07	-7.621730e-07	-1.205496e-09	-6.290678e+00	-7.966109e+01
8.200000e-07	-7.603752e-07	-1.208411e-09	-6.275840e+00	-7.964019e+01
8.300000e-07	-7.585501e-07	-1.207584e-09	-6.260776e+00	-7.959944e+01
8.400000e-07	-7.567107e-07	-1.204685e-09	-6.245594e+00	-7.953724e+01
8.500000e-07	-7.548405e-07	-1.203556e-09	-6.230159e+00	-7.945237e+01
8.600000e-07	-7.529474e-07	-1.197287e-09	-6.214534e+00	-7.934401e+01
8.700000e-07	-7.510505e-07	-1.187539e-09	-6.198877e+00	-7.921170e+01
8.800000e-07	-7.491477e-07	-1.179254e-09	-6.183172e+00	-7.905542e+01
8.900000e-07	-7.472459e-07	-1.176506e-09	-6.167476e+00	-7.887547e+01
9.000000e-07	-7.453235e-07	-1.177251e-09	-6.151609e+00	-7.867255e+01
9.100000e-07	-7.433697e-07	-1.176661e-09	-6.135483e+00	-7.844763e+01
9.200000e-07	-7.413946e-07	-1.175775e-09	-6.119181e+00	-7.820198e+01
9.300000e-07	-7.394024e-07	-1.172144e-09	-6.102739e+00	-7.793706e+01
9.400000e-07	-7.373947e-07	-1.166430e-09	-6.086168e+00	-7.765449e+01
9.500000e-07	-7.353624e-07	-1.157059e-09	-6.069394e+00	-7.735601e+01
9.600000e-07	-7.333022e-07	-1.145636e-09	-6.052390e+00	-7.704339e+01
9.700000e-07	-7.312257e-07	-1.137320e-09	-6.035251e+00	-7.671840e+01
9.800000e-07	-7.291360e-07	-1.131845e-09	-6.018004e+00	-7.638279e+01
9.900000e-07	-7.270254e-07	-1.130294e-09	-6.000584e+00	-7.603819e+01
1.000000e-06	-7.249052e-07	-1.130166e-09	-5.983084e+00	-7.568614e+01
1.010000e-06	-7.227878e-07	-1.128273e-09	-5.965608e+00	-7.532808e+01
1.020000e-06	-7.206607e-07	-1.123149e-09	-5.948052e+00	-7.496528e+01
1.030000e-06	-7.185144e-07	-1.117236e-09	-5.930337e+00	-7.459890e+01
1.040000e-06	-7.163607e-07	-1.110368e-09	-5.912561e+00	-7.423000e+01
1.050000e-06	-7.141951e-07	-1.102482e-09	-5.894687e+00	-7.385952e+01
1.060000e-06	-7.120111e-07	-1.096308e-09	-5.876662e+00	-7.348833e+01
1.070000e-06	-7.098089e-07	-1.089530e-09	-5.858486e+00	-7.311729e+01
1.080000e-06	-7.075815e-07	-1.082450e-09	-5.840101e+00	-7.274722e+01
1.090000e-06	-7.053244e-07	-1.075544e-09	-5.821472e+00	-7.237896e+01
1.100000e-06	-7.030433e-07	-1.069849e-09	-5.802645e+00	-7.201341e+01
1.110000e-06	-7.007484e-07	-1.066610e-09	-5.783704e+00	-7.165151e+01
1.120000e-06	-6.984354e-07	-1.064802e-09	-5.764613e+00	-7.129430e+01
1.130000e-06	-6.961074e-07	-1.062444e-09	-5.745399e+00	-7.094289e+01
1.140000e-06	-6.937613e-07	-1.058464e-09	-5.726035e+00	-7.059848e+01
1.150000e-06	-6.913871e-07	-1.055935e-09	-5.706439e+00	-7.026232e+01
1.160000e-06	-6.890063e-07	-1.052761e-09	-5.686789e+00	-6.993573e+01
1.170000e-06	-6.866187e-07	-1.047302e-09	-5.667082e+00	-6.962001e+01
1.180000e-06	-6.842051e-07	-1.040645e-09	-5.647162e+00	-6.931647e+01
1.190000e-06	-6.817671e-07	-1.031997e-09	-5.627039e+00	-6.902633e+01
1.200000e-06	-6.793053e-07	-1.026516e-09	-5.606721e+00	-6.875071e+01
1.210000e-06	-6.768290e-07	-1.025966e-09	-5.586282e+00	-6.849057e+01
1.220000e-06	-6.743470e-07	-1.029083e-09	-5.565797e+00	-6.824667e+01
1.230000e-06	-6.718514e-07	-1.034474e-09	-5.545199e+00	-6.801953e+01
1.240000e-06	-6.693415e-07	-1.038841e-09	-5.524484e+00	-6.780940e+01
1.250000e-06	-6.668150e-07	-1.041204e-09	-5.503630e+00	-6.761623e+01
1.260000e-06	-6.642768e-07	-1.038941e-09	-5.482681e+00	-6.743967e+01
1.270000e-06	-6.617320e-07	-1.029367e-09	-5.461677e+00	-6.727905e+01
1.280000e-06	-6.591726e-07	-1.016138e-09	-5.440553e+00	-6.713339e+01
1.290000e-06	-6.565982e-07	-1.008113e-09	-5.419305e+00	-6.700146e+01
1.300000e-06	-6.540032e-07	-1.008333e-09	-5.397887e+00	-6.688176e+01
1.310000e-06	-6.513871e-07	-1.012842e-09	-5.376294e+00	-6.677258e+01
1.320000e-06	-6.487491e-07	-1.019467e-09	-5.354522e+00	-6.667208e+01
1.330000e-06	-6.460680e-07	-1.025058e-09	-5.332393e+00	-6.657830e+01
1.340000e-06	-6.433566e-07	-1.025731e-09	-5.310014e+00	-6.648927e+01
1.350000e-06	-6.406326e-07	-1.020554e-09	-5.287531e+00	-6.640301e+01
1.360000e-06	-6.378759e-07	-1.011931e-09	-5.264778e+00	-6.631764e+01
1.370000e-06	-6.350782e-07	-1.004655e-09	-5.241687e+00	-6.623141e+01
1.380000e-06	-6.322564e-07	-1.000360e-09	-5.218397e+00	-6.614276e+01
1.390000e-06	-6.294206e-07	-9.979139e-10	-5.194992e+00	-6.605032e+01
1.400000e-06	-6.265546e-07	-9.973192e-10	-5.171337e+00	-6.595298e+01
1.410000e-06	-6.236704e-07	-9.993719e-10	-5.147532e+00	-6.584986e+01
1.420000e-06	-6.207801e-07	-1.001721e-09	-5.123677e+00	-6.574034e+01
1.430000e-06	-6.178818e-07	-1.001788e-09	-5.099755e+00	-6.562403e+01
1.440000e-06	-6.149747e-07	-9.995216e-10	-5.075761e+00	-6.550074e+01
1.450000e-06	-6.120584e-07	-9.942111e-10	-5.051691e+00	-6.537045e+01
1.460000e-06	-6.091373e-07	-9.884224e-10	-5.027582e+00	-6.523327e+01
1.470000e-06	-6.062058e-07	-9.830109e-10	-5.003386e+00	-6.508938e+01
1.480000e-06	-6.032610e-07	-9.774282e-10	-4.979081e+00	-6.493898e+01
1.490000e-06	-6.003033e-07	-9.735761e-10	-4.954669e+00	-6.478224e+01
1.500000e-06	-5.973312e-07	-9.708792e-10	-4.930139e+00	-6.461923e+01
1.510000e-06	-5.943507e-07	-9.696609e-10	-4.905538e+00	-6.444992e+01
1.520000e-06	-5.913656e-07	-9.681240e-10	-4.880900e+00	-6.427411e+01
1.530000e-06	-5.883697e-07	-9.641869e-10	-4.856174e+00	-6.409140e+01
1.540000e-06	-5.853524e-07	-9.599878e-10	-4.831270e+00	-6.390119e+01
1.550000e-06	-5.823089e-07	-9.570203e-10	-4.806150e+00	-6.370272e+01
1.560000e-06	-5.792507e-07	-9.530714e-10	-4.780909e+00	-6.349499e+01
1.570000e-06	-5.761903e-07	-9.467033e-10	-4.755649e+00	-6.327691e+01
1.580000e-06	-5.731189e-07	-9.396822e-10	-4.730299e+00	-6.304722e+01
1.590000e-06	-5.700266e-07	-9.348336e-10	-4.704777e+00	-6.280466e+01
1.600000e-06	-5.669270e-07	-9.294721e-10	-4.679194e+00	-6.254791e+01
1.610000e-06	-5.638205e-07	-9.197090e-10	-4.653554e+00	-6.227576e+01
1.620000e-06	-5.607027e-07	-9.117482e-10	-4.627821e+00	-6.198712e+01
1.630000e-06	-5.575698e-07	-9.101448e-10	-4.601964e+00	-6.168109e+01
1.640000e-06	-5.544139e-07	-9.096793e-10	-4.575916e+00	-6.135703e+01
1.650000e-06	-5.512323e-07	-9.051381e-10	-4.549656e+00	-6.101463e+01
1.660000e-06	-5.480311e-07	-8.987299e-10	-4.523234e+00	-6.065392e+01
1.670000e-06	-5.448341e-07	-8.940311e-10	-4.496848e+00	-6.027531e+01
1.680000e-06	-5.416275e-07	-8.884349e-10	-4.470382e+00	-5.987965e+01
1.690000e-06	-5.383934e-07	-8.789310e-10	-4.443689e+00	-5.946814e+01
1.700000e-06	-5.351478e-07	-8.671511e-10	-4.416901e+00	-5.904242e+01
1.710000e-06	-5.319035e-07	-8.599917e-10	-4.390124e+00	-5.860445e+01
1.720000e-06	-5.286416e-07	-8.584036e-10	-4.363201e+00	-5.815653e+01
1.730000e-06	-5.253581e-07	-8.555891e-10	-4.336100e+00	-5.770117e+01
1.740000e-06	-5.220749e-07	-8.493932e-10	-4.309002e+00	-5.724112e+01
1.750000e-06	-5.187887e-07	-8.418425e-10	-4.281879e+00	-5.677919e+01
1.760000e-06	-5.154913e-07	-8.351977e-10	-4.254664e+00	-5.631824e+01
1.770000e-06	-5.121893e-07	-8.279585e-10	-4.227410e+00	-5.586108e+01
1.780000e-06	-5.088826e-07	-8.186543e-10	-4.200118e+00	-5.541039e+01
1.790000e-06	-5.055640e-07	-8.102043e-10	-4.172727e+00	-5.496864e+01
1.800000e-06	-5.022341e-07	-8.073359e-10	-4.145244e+00	-5.453804e+01
1.810000e-06	-4.988833e-07	-8.087774e-10	-4.117588e+00	-5.412047e+01
1.820000e-06	-4.955096e-07	-8.062601e-10	-4.089743e+00	-5.371747e+01
1.830000e-06	-4.921293e-07	-7.981930e-10	-4.061843e+00	-5.333019e+01
1.840000e-06	-4.887437e-07	-7.914955e-10	-4.033899e+00	-5.295938e+01
1.850000e-06	-4.853525e-07	-7.900506e-10	-4.005910e+00	-5.260544e+01
1.860000e-06	-4.819502e-07	-7.876099e-10	-3.977829e+00	-5.226835e+01
1.870000e-06	-4.785222e-07	-7.808027e-10	-3.949536e+00	-5.194780e+01
1.880000e-06	-4.750780e-07	-7.736749e-10	-3.921108e+00	-5.164317e+01
1.890000e-06	-4.716069e-07	-7.711776e-10	-3.892459e+00	-5.135360e+01
1.900000e-06	-4.681071e-07	-7.694964e-10	-3.863573e+00	-5.107805e+01
1.910000e-06	-4.645880e-07	-7.651273e-10	-3.834528e+00	-5.081534e+01
1.920000e-06	-4.610468e-07	-7.625226e-10	-3.805300e+00	-5.056423e+01
1.930000e-06	-4.574884e-07	-7.622529e-10	-3.775931e+00	-5.032345e+01
1.940000e-06	-4.539080e-07	-7.619524e-10	-3.746379e+00	-5.009178e+01
1.950000e-06	-4.503009e-07	-7.611906e-10	-3.716608e+00	-4.986805e+01
1.960000e-06	-4.466760e-07	-7.584486e-10	-3.686689e+00	-4.965121e+01
1.970000e-06	-4.430411e-07	-7.546519e-10	-3.656688e+00	-4.944029e+01
1.980000e-06	-4.393891e-07	-7.511920e-10	-3.626546e+00	-4.923449e+01
1.990000e-06	-4.357194e-07	-7.462877e-10	-3.596258e+00	-4.903311e+01
2.000000e-06	-4.320404e-07	-7.391834e-10	-3.565892e+00	-4.883555e+01
2.010000e-06	-4.283567e-07	-7.324199e-10	-3.535489e+00	-4.864130e+01
2.020000e-06	-4.246627e-07	-7.295724e-10	-3.505000e+00	-4.844993e+01
2.030000e-06	-4.209586e-07	-7.279190e-10	-3.474428e+00	-4.826100e+01
2.040000e-06	-4.172490e-07	-7.283606e-10	-3.443811e+00	-4.807405e+01
2.050000e-06	-4.135371e-07	-7.316504e-10	-3.413173e+00	-4.788858e+01
2.060000e-06	-4.098237e-07	-7.337582e-10	-3.382525e+00	-4.770401e+01
2.070000e-06	-4.061034e-07	-7.301660e-10	-3.351819e+00	-4.751961e+01
2.080000e-06	-4.023780e-07	-7.203328e-10	-3.321071e+00	-4.733451e+01
2.090000e-06	-3.986452e-07	-7.093236e-10	-3.290262e+00	-4.714770e+01
2.100000e-06	-3.949064e-07	-7.045592e-10	-3.259403e+00	-4.695797e+01
2.110000e-06	-3.911670e-07	-7.041852e-10	-3.228540e+00	-4.676396e+01
2.120000e-06	-3.874190e-07	-7.051801e-10	-3.197605e+00	-4.656415e+01
2.130000e-06	-3.836558e-07	-7.060449e-10	-3.166545e+00	-4.635690e+01
2.140000e-06	-3.798887e-07	-7.044076e-10	-3.135453e+00	-4.614046e+01
2.150000e-06	-3.761241e-07	-7.028912e-10	-3.104382e+00	-4.591302e+01
2.160000e-06	-3.723404e-07	-6.970527e-10	-3.073152e+00	-4.567277e+01
2.170000e-06	-3.685346e-07	-6.847187e-10	-3.041741e+00	-4.541791e+01
2.180000e-06	-3.647286e-07	-6.731312e-10	-3.010327e+00	-4.514675e+01
2.190000e-06	-3.609177e-07	-6.687798e-10	-2.978874e+00	-4.485771e+01
2.200000e-06	-3.570912e-07	-6.692543e-10	-2.947291e+00	-4.454942e+01
2.210000e-06	-3.532469e-07	-6.659520e-10	-2.915562e+00	-4.422071e+01
2.220000e-06	-3.493945e-07	-6.582528e-10	-2.883766e+00	-4.387068e+01
2.230000e-06	-3.455402e-07	-6.534807e-10	-2.851954e+00	-4.349871e+01
2.240000e-06	-3.416783e-07	-6.523609e-10	-2.820079e+00	-4.310450e+01
2.250000e-06	-3.378059e-07	-6.472804e-10	-2.788118e+00	-4.268806e+01
2.260000e-06	-3.339260e-07	-6.365759e-10	-2.756095e+00	-4.224973e+01
2.270000e-06	-3.300392e-07	-6.261675e-10	-2.724015e+00	-4.179014e+01
2.280000e-06	-3.261433e-07	-6.180234e-10	-2.691859e+00	-4.131024e+01
2.290000e-06	-3.222309e-07	-6.107796e-10	-2.659568e+00	-4.081124e+01
2.300000e-06	-3.183035e-07	-6.020810e-10	-2.627152e+00	-4.029457e+01
2.310000e-06	-3.143782e-07	-5.912144e-10	-2.594755e+00	-3.976190e+01
2.320000e-06	-3.104487e-07	-5.833045e-10	-2.562322e+00	-3.921505e+01
2.330000e-06	-3.065073e-07	-5.783939e-10	-2.529792e+00	-3.865596e+01
2.340000e-06	-3.025626e-07	-5.726536e-10	-2.497233e+00	-3.808667e+01
2.350000e-06	-2.986179e-07	-5.629146e-10	-2.464676e+00	-3.750928e+01
2.360000e-06	-2.946746e-07	-5.513629e-10	-2.432129e+00	-3.692588e+01
2.370000e-06	-2.907286e-07	-5.398950e-10	-2.399560e+00	-3.633857e+01
2.380000e-06	-2.867663e-07	-5.259766e-10	-2.366857e+00	-3.574939e+01
2.390000e-06	-2.827904e-07	-5.129479e-10	-2.334042e+00	-3.516032e+01
2.400000e-06	-2.788111e-07	-5.036907e-10	-2.301198e+00	-3.457327e+01
2.410000e-06	-2.748150e-07	-4.981917e-10	-2.268216e+00	-3.399004e+01
2.420000e-06	-2.708038e-07	-4.937650e-10	-2.235109e+00	-3.341232e+01
2.430000e-06	-2.667846e-07	-4.870312e-10	-2.201936e+00	-3.284170e+01
2.440000e-06	-2.627635e-07	-4.811462e-10	-2.168748e+00	-3.227965e+01
2.450000e-06	-2.587389e-07	-4.764433e-10	-2.135530e+00	-3.172753e+01
2.460000e-06	-2.547010e-07	-4.680199e-10	-2.102203e+00	-3.118658e+01
2.470000e-06	-2.506634e-07	-4.544425e-10	-2.068878e+00	-3.065794e+01
2.480000e-06	-2.466226e-07	-4.409257e-10	-2.035527e+00	-3.014262e+01
2.490000e-06	-2.425652e-07	-4.326643e-10	-2.002038e+00	-2.964152e+01
2.500000e-06	-2.385005e-07	-4.273395e-10	-1.968490e+00	-2.915544e+01
2.510000e-06	-2.344355e-07	-4.217171e-10	-1.934939e+00	-2.868503e+01
2.520000e-06	-2.303610e-07	-4.163987e-10	-1.901310e+00	-2.823085e+01
2.530000e-06	-2.262766e-07	-4.138561e-10	-1.867598e+00	-2.779331e+01
2.540000e-06	-2.221871e-07	-4.131017e-10	-1.833846e+00	-2.737269e+01
2.550000e-06	-2.180958e-07	-4.093553e-10	-1.800078e+00	-2.696913e+01
2.560000e-06	-2.140030e-07	-3.993215e-10	-1.766297e+00	-2.658261e+01
2.570000e-06	-2.099093e-07	-3.880114e-10	-1.732510e+00	-2.621294e+01
2.580000e-06	-2.058157e-07	-3.816429e-10	-1.698723e+00	-2.585981e+01
2.590000e-06	-2.017182e-07	-3.783859e-10	-1.664903e+00	-2.552269e+01
2.600000e-06	-1.976134e-07	-3.729088e-10	-1.631024e+00	-2.520092e+01
2.610000e-06	-1.935106e-07	-3.670875e-10	-1.597161e+00	-2.489366e+01
2.620000e-06	-1.894065e-07	-3.656910e-10	-1.563287e+00	-2.459990e+01
2.630000e-06	-1.852959e-07	-3.672348e-10	-1.529360e+00	-2.431849e+01
2.640000e-06	-1.811800e-07	-3.657703e-10	-1.495389e+00	-2.404814e+01
2.650000e-06	-1.770554e-07	-3.599519e-10	-1.461346e+00	-2.378741e+01
2.660000e-06	-1.729336e-07	-3.539778e-10	-1.427326e+00	-2.353478e+01
2.670000e-06	-1.688123e-07	-3.502788e-10	-1.393311e+00	-2.328861e+01
2.680000e-06	-1.646890e-07	-3.440840e-10	-1.359279e+00	-2.304721e+01
2.690000e-06	-1.605680e-07	-3.335648e-10	-1.325265e+00	-2.280882e+01
2.700000e-06	-1.564446e-07	-3.266336e-10	-1.291232e+00	-2.257166e+01
2.710000e-06	-1.523110e-07	-3.258867e-10	-1.257116e+00	-2.233396e+01
2.720000e-06	-1.481702e-07	-3.255224e-10	-1.222939e+00	-2.209394e+01
2.730000e-06	-1.440270e-07	-3.211118e-10	-1.188743e+00	-2.184987e+01
2.740000e-06	-1.398806e-07	-3.164310e-10	-1.154520e+00	-2.160007e+01
2.750000e-06	-1.357423e-07	-3.160081e-10	-1.120364e+00	-2.134293e+01
2.760000e-06	-1.316079e-07	-3.180614e-10	-1.086240e+00	-2.107692e+01
2.770000e-06	-1.274724e-07	-3.153048e-10	-1.052107e+00	-2.080061e+01
2.780000e-06	-1.233296e-07	-3.051565e-10	-1.017914e+00	-2.051268e+01
2.790000e-06	-1.191800e-07	-2.955966e-10	-9.836656e-01	-2.021192e+01
2.800000e-06	-1.150340e-07	-2.905051e-10	-9.494460e-01	-1.989727e+01
2.810000e-06	-1.108771e-07	-2.855322e-10	-9.151360e-01	-1.956775e+01
2.820000e-06	-1.067166e-07	-2.795492e-10	-8.807974e-01	-1.922257e+01
2.830000e-06	-1.025579e-07	-2.744269e-10	-8.464726e-01	-1.886103e+01
2.840000e-06	-9.840086e-08	-2.712691e-10	-8.121622e-01	-1.848262e+01
