# Temperatura_=_20.0
# Concentracion g/m^3_=_10000.0
# C_Vs_to_Am_M_A/Vsm_=_65563218390.804596
# pendiente_HvsI_1/m_=_3716.3
# ordenada_HvsI_A/m_=_1297.0
# frecuencia_Hz_=_81117.53157675767

Tiempo_(s)	Campo_(V.s)	Magnetizacion_(V.s)	Campo_(kA/m)	Magnetizacion_(A/m)
0.000000e+00	-8.321936e-07	-1.258179e-09	-6.869171e+00	-8.332849e+01
1.000000e-08	-8.321721e-07	-1.268780e-09	-6.868994e+00	-8.343815e+01
2.000000e-08	-8.321387e-07	-1.279904e-09	-6.868718e+00	-8.355299e+01
3.000000e-08	-8.320983e-07	-1.286146e-09	-6.868385e+00	-8.367156e+01
4.000000e-08	-8.320389e-07	-1.282935e-09	-6.867894e+00	-8.379230e+01
5.000000e-08	-8.319738e-07	-1.277347e-09	-6.867357e+00	-8.391358e+01
6.000000e-08	-8.318952e-07	-1.273877e-09	-6.866708e+00	-8.403378e+01
7.000000e-08	-8.317914e-07	-1.272565e-09	-6.865852e+00	-8.415133e+01
8.000000e-08	-8.316651e-07	-1.272324e-09	-6.864809e+00	-8.426476e+01
9.000000e-08	-8.315173e-07	-1.274605e-09	-6.863589e+00	-8.437274e+01
1.000000e-07	-8.313534e-07	-1.270417e-09	-6.862236e+00	-8.447413e+01
1.100000e-07	-8.311727e-07	-1.266539e-09	-6.860744e+00	-8.456799e+01
1.200000e-07	-8.309713e-07	-1.272224e-09	-6.859082e+00	-8.465359e+01
1.300000e-07	-8.307464e-07	-1.275556e-09	-6.857226e+00	-8.473044e+01
1.400000e-07	-8.305089e-07	-1.282176e-09	-6.855265e+00	-8.479828e+01
1.500000e-07	-8.302460e-07	-1.291057e-09	-6.853096e+00	-8.485704e+01
1.600000e-07	-8.299356e-07	-1.293083e-09	-6.850533e+00	-8.490685e+01
1.700000e-07	-8.295830e-07	-1.283802e-09	-6.847623e+00	-8.494801e+01
1.800000e-07	-8.291925e-07	-1.270870e-09	-6.844400e+00	-8.498096e+01
1.900000e-07	-8.287756e-07	-1.269535e-09	-6.840959e+00	-8.500624e+01
2.000000e-07	-8.283433e-07	-1.275294e-09	-6.837390e+00	-8.502444e+01
2.100000e-07	-8.278966e-07	-1.289482e-09	-6.833703e+00	-8.503621e+01
2.200000e-07	-8.274267e-07	-1.298780e-09	-6.829824e+00	-8.504219e+01
2.300000e-07	-8.269346e-07	-1.296943e-09	-6.825762e+00	-8.504298e+01
2.400000e-07	-8.264226e-07	-1.293999e-09	-6.821536e+00	-8.503915e+01
2.500000e-07	-8.258898e-07	-1.281860e-09	-6.817138e+00	-8.503119e+01
2.600000e-07	-8.253477e-07	-1.275909e-09	-6.812663e+00	-8.501949e+01
2.700000e-07	-8.247969e-07	-1.268743e-09	-6.808117e+00	-8.500438e+01
2.800000e-07	-8.242308e-07	-1.263796e-09	-6.803444e+00	-8.498607e+01
2.900000e-07	-8.236417e-07	-1.272028e-09	-6.798581e+00	-8.496469e+01
3.000000e-07	-8.230364e-07	-1.277949e-09	-6.793585e+00	-8.494027e+01
3.100000e-07	-8.224147e-07	-1.279846e-09	-6.788453e+00	-8.491280e+01
3.200000e-07	-8.217596e-07	-1.277326e-09	-6.783046e+00	-8.488216e+01
3.300000e-07	-8.210737e-07	-1.279363e-09	-6.777384e+00	-8.484824e+01
3.400000e-07	-8.203663e-07	-1.280490e-09	-6.771546e+00	-8.481085e+01
3.500000e-07	-8.196391e-07	-1.279066e-09	-6.765543e+00	-8.476983e+01
3.600000e-07	-8.188941e-07	-1.279684e-09	-6.759394e+00	-8.472498e+01
3.700000e-07	-8.181337e-07	-1.280549e-09	-6.753117e+00	-8.467615e+01
3.800000e-07	-8.173552e-07	-1.282169e-09	-6.746691e+00	-8.462318e+01
3.900000e-07	-8.165577e-07	-1.274771e-09	-6.740108e+00	-8.456598e+01
4.000000e-07	-8.157276e-07	-1.265537e-09	-6.733256e+00	-8.450446e+01
4.100000e-07	-8.148642e-07	-1.261402e-09	-6.726129e+00	-8.443861e+01
4.200000e-07	-8.139962e-07	-1.265112e-09	-6.718965e+00	-8.436844e+01
4.300000e-07	-8.131167e-07	-1.277941e-09	-6.711705e+00	-8.429402e+01
4.400000e-07	-8.122123e-07	-1.282581e-09	-6.704240e+00	-8.421547e+01
4.500000e-07	-8.113000e-07	-1.279926e-09	-6.696709e+00	-8.413293e+01
4.600000e-07	-8.103785e-07	-1.271897e-09	-6.689103e+00	-8.404662e+01
4.700000e-07	-8.094407e-07	-1.265219e-09	-6.681362e+00	-8.395675e+01
4.800000e-07	-8.084837e-07	-1.261641e-09	-6.673463e+00	-8.386362e+01
4.900000e-07	-8.075000e-07	-1.259014e-09	-6.665343e+00	-8.376752e+01
5.000000e-07	-8.064954e-07	-1.263185e-09	-6.657051e+00	-8.366879e+01
5.100000e-07	-8.054682e-07	-1.269750e-09	-6.648572e+00	-8.356778e+01
5.200000e-07	-8.044093e-07	-1.275989e-09	-6.639832e+00	-8.346488e+01
5.300000e-07	-8.033142e-07	-1.276368e-09	-6.630792e+00	-8.336049e+01
5.400000e-07	-8.021768e-07	-1.273855e-09	-6.621404e+00	-8.325501e+01
5.500000e-07	-8.010029e-07	-1.269804e-09	-6.611714e+00	-8.314887e+01
5.600000e-07	-7.997975e-07	-1.262881e-09	-6.601764e+00	-8.304246e+01
5.700000e-07	-7.985724e-07	-1.257095e-09	-6.591652e+00	-8.293620e+01
5.800000e-07	-7.973199e-07	-1.252957e-09	-6.581313e+00	-8.283044e+01
5.900000e-07	-7.960411e-07	-1.254242e-09	-6.570758e+00	-8.272552e+01
6.000000e-07	-7.947447e-07	-1.257026e-09	-6.560057e+00	-8.262174e+01
6.100000e-07	-7.934205e-07	-1.262221e-09	-6.549127e+00	-8.251930e+01
6.200000e-07	-7.920731e-07	-1.272088e-09	-6.538005e+00	-8.241835e+01
6.300000e-07	-7.907165e-07	-1.278157e-09	-6.526807e+00	-8.231894e+01
6.400000e-07	-7.893497e-07	-1.275349e-09	-6.515526e+00	-8.222101e+01
6.500000e-07	-7.879529e-07	-1.265411e-09	-6.503996e+00	-8.212440e+01
6.600000e-07	-7.865360e-07	-1.258480e-09	-6.492300e+00	-8.202880e+01
6.700000e-07	-7.850974e-07	-1.256720e-09	-6.480425e+00	-8.193382e+01
6.800000e-07	-7.836277e-07	-1.256352e-09	-6.468294e+00	-8.183892e+01
6.900000e-07	-7.821342e-07	-1.255824e-09	-6.455967e+00	-8.174345e+01
7.000000e-07	-7.806233e-07	-1.256344e-09	-6.443495e+00	-8.164666e+01
7.100000e-07	-7.791003e-07	-1.260371e-09	-6.430923e+00	-8.154774e+01
7.200000e-07	-7.775589e-07	-1.262382e-09	-6.418201e+00	-8.144577e+01
7.300000e-07	-7.759961e-07	-1.259200e-09	-6.405301e+00	-8.133984e+01
7.400000e-07	-7.744098e-07	-1.253108e-09	-6.392207e+00	-8.122901e+01
7.500000e-07	-7.727950e-07	-1.249817e-09	-6.378878e+00	-8.111236e+01
7.600000e-07	-7.711517e-07	-1.250125e-09	-6.365314e+00	-8.098905e+01
7.700000e-07	-7.694667e-07	-1.247757e-09	-6.351405e+00	-8.085830e+01
7.800000e-07	-7.677535e-07	-1.242132e-09	-6.337264e+00	-8.071947e+01
7.900000e-07	-7.660306e-07	-1.236372e-09	-6.323042e+00	-8.057205e+01
8.000000e-07	-7.642832e-07	-1.235871e-09	-6.308619e+00	-8.041570e+01
8.100000e-07	-7.625075e-07	-1.237836e-09	-6.293961e+00	-8.025026e+01
8.200000e-07	-7.607015e-07	-1.239208e-09	-6.279055e+00	-8.007576e+01
8.300000e-07	-7.588829e-07	-1.239869e-09	-6.264043e+00	-7.989239e+01
8.400000e-07	-7.570591e-07	-1.237245e-09	-6.248989e+00	-7.970056e+01
8.500000e-07	-7.552123e-07	-1.233029e-09	-6.233745e+00	-7.950081e+01
8.600000e-07	-7.533390e-07	-1.226499e-09	-6.218283e+00	-7.929382e+01
8.700000e-07	-7.514395e-07	-1.219881e-09	-6.202603e+00	-7.908040e+01
8.800000e-07	-7.495252e-07	-1.213585e-09	-6.186802e+00	-7.886143e+01
8.900000e-07	-7.475993e-07	-1.208740e-09	-6.170905e+00	-7.863781e+01
9.000000e-07	-7.456567e-07	-1.205783e-09	-6.154871e+00	-7.841045e+01
9.100000e-07	-7.436960e-07	-1.203437e-09	-6.138686e+00	-7.818022e+01
9.200000e-07	-7.417209e-07	-1.201509e-09	-6.122383e+00	-7.794792e+01
9.300000e-07	-7.397356e-07	-1.198443e-09	-6.105996e+00	-7.771424e+01
9.400000e-07	-7.377201e-07	-1.197310e-09	-6.089359e+00	-7.747971e+01
9.500000e-07	-7.356756e-07	-1.195896e-09	-6.072483e+00	-7.724475e+01
9.600000e-07	-7.336185e-07	-1.191409e-09	-6.055503e+00	-7.700957e+01
9.700000e-07	-7.315425e-07	-1.183777e-09	-6.038368e+00	-7.677425e+01
9.800000e-07	-7.294398e-07	-1.175291e-09	-6.021011e+00	-7.653869e+01
9.900000e-07	-7.273211e-07	-1.171745e-09	-6.003523e+00	-7.630265e+01
1.000000e-06	-7.251990e-07	-1.170454e-09	-5.986006e+00	-7.606578e+01
1.010000e-06	-7.230702e-07	-1.167638e-09	-5.968434e+00	-7.582763e+01
1.020000e-06	-7.209300e-07	-1.163794e-09	-5.950769e+00	-7.558772e+01
1.030000e-06	-7.187787e-07	-1.161710e-09	-5.933011e+00	-7.534552e+01
1.040000e-06	-7.166121e-07	-1.160456e-09	-5.915128e+00	-7.510056e+01
1.050000e-06	-7.144260e-07	-1.155453e-09	-5.897083e+00	-7.485244e+01
1.060000e-06	-7.122251e-07	-1.148559e-09	-5.878916e+00	-7.460083e+01
1.070000e-06	-7.100169e-07	-1.141674e-09	-5.860689e+00	-7.434556e+01
1.080000e-06	-7.077883e-07	-1.136480e-09	-5.842293e+00	-7.408661e+01
1.090000e-06	-7.055262e-07	-1.133197e-09	-5.823621e+00	-7.382413e+01
1.100000e-06	-7.032475e-07	-1.128734e-09	-5.804812e+00	-7.355844e+01
1.110000e-06	-7.009616e-07	-1.125069e-09	-5.785944e+00	-7.329002e+01
1.120000e-06	-6.986582e-07	-1.125171e-09	-5.766931e+00	-7.301953e+01
1.130000e-06	-6.963346e-07	-1.125303e-09	-5.747751e+00	-7.274772e+01
1.140000e-06	-6.939929e-07	-1.120823e-09	-5.728422e+00	-7.247548e+01
1.150000e-06	-6.916385e-07	-1.116039e-09	-5.708988e+00	-7.220371e+01
1.160000e-06	-6.892658e-07	-1.112231e-09	-5.689403e+00	-7.193334e+01
1.170000e-06	-6.868740e-07	-1.106458e-09	-5.669661e+00	-7.166528e+01
1.180000e-06	-6.844682e-07	-1.099583e-09	-5.649802e+00	-7.140032e+01
1.190000e-06	-6.820428e-07	-1.092697e-09	-5.629782e+00	-7.113915e+01
1.200000e-06	-6.795956e-07	-1.088609e-09	-5.609582e+00	-7.088227e+01
1.210000e-06	-6.771287e-07	-1.087734e-09	-5.589220e+00	-7.062999e+01
1.220000e-06	-6.746390e-07	-1.088712e-09	-5.568669e+00	-7.038239e+01
1.230000e-06	-6.721294e-07	-1.088081e-09	-5.547954e+00	-7.013932e+01
1.240000e-06	-6.696120e-07	-1.088953e-09	-5.527175e+00	-6.990039e+01
1.250000e-06	-6.670892e-07	-1.090812e-09	-5.506351e+00	-6.966495e+01
1.260000e-06	-6.645620e-07	-1.088138e-09	-5.485490e+00	-6.943218e+01
1.270000e-06	-6.620217e-07	-1.080763e-09	-5.464522e+00	-6.920107e+01
1.280000e-06	-6.594585e-07	-1.069904e-09	-5.443365e+00	-6.897046e+01
1.290000e-06	-6.568804e-07	-1.059809e-09	-5.422084e+00	-6.873911e+01
1.300000e-06	-6.542836e-07	-1.053823e-09	-5.400649e+00	-6.850575e+01
1.310000e-06	-6.516643e-07	-1.051555e-09	-5.379030e+00	-6.826913e+01
1.320000e-06	-6.490317e-07	-1.051630e-09	-5.357299e+00	-6.802807e+01
1.330000e-06	-6.463772e-07	-1.052735e-09	-5.335388e+00	-6.778154e+01
1.340000e-06	-6.436793e-07	-1.052988e-09	-5.313119e+00	-6.752867e+01
1.350000e-06	-6.409389e-07	-1.049489e-09	-5.290498e+00	-6.726881e+01
1.360000e-06	-6.381833e-07	-1.042048e-09	-5.267753e+00	-6.700159e+01
1.370000e-06	-6.354100e-07	-1.033906e-09	-5.244861e+00	-6.672688e+01
1.380000e-06	-6.326079e-07	-1.025481e-09	-5.221732e+00	-6.644484e+01
1.390000e-06	-6.297763e-07	-1.018014e-09	-5.198359e+00	-6.615591e+01
1.400000e-06	-6.269245e-07	-1.012705e-09	-5.174820e+00	-6.586080e+01
1.410000e-06	-6.240567e-07	-1.009114e-09	-5.151148e+00	-6.556042e+01
1.420000e-06	-6.211756e-07	-1.006270e-09	-5.127367e+00	-6.525590e+01
1.430000e-06	-6.182803e-07	-1.003763e-09	-5.103468e+00	-6.494851e+01
1.440000e-06	-6.153716e-07	-1.000675e-09	-5.079459e+00	-6.463960e+01
1.450000e-06	-6.124569e-07	-9.979812e-10	-5.055400e+00	-6.433058e+01
1.460000e-06	-6.095360e-07	-9.939797e-10	-5.031290e+00	-6.402282e+01
1.470000e-06	-6.066071e-07	-9.836160e-10	-5.007114e+00	-6.371763e+01
1.480000e-06	-6.036662e-07	-9.717249e-10	-4.982839e+00	-6.341616e+01
1.490000e-06	-6.007199e-07	-9.630429e-10	-4.958519e+00	-6.311940e+01
1.500000e-06	-5.977555e-07	-9.576054e-10	-4.934050e+00	-6.282813e+01
1.510000e-06	-5.947676e-07	-9.540012e-10	-4.909388e+00	-6.254287e+01
1.520000e-06	-5.917673e-07	-9.505691e-10	-4.884622e+00	-6.226388e+01
1.530000e-06	-5.887652e-07	-9.488029e-10	-4.859841e+00	-6.199114e+01
1.540000e-06	-5.857465e-07	-9.477828e-10	-4.834925e+00	-6.172439e+01
1.550000e-06	-5.827085e-07	-9.445883e-10	-4.809848e+00	-6.146308e+01
1.560000e-06	-5.796554e-07	-9.367279e-10	-4.784647e+00	-6.120646e+01
1.570000e-06	-5.765873e-07	-9.271869e-10	-4.759322e+00	-6.095356e+01
1.580000e-06	-5.735073e-07	-9.207804e-10	-4.733898e+00	-6.070327e+01
1.590000e-06	-5.704064e-07	-9.164387e-10	-4.708302e+00	-6.045439e+01
1.600000e-06	-5.673006e-07	-9.114113e-10	-4.682666e+00	-6.020562e+01
1.610000e-06	-5.641863e-07	-9.054699e-10	-4.656960e+00	-5.995567e+01
1.620000e-06	-5.610499e-07	-9.012155e-10	-4.631071e+00	-5.970330e+01
1.630000e-06	-5.579022e-07	-8.989783e-10	-4.605089e+00	-5.944733e+01
1.640000e-06	-5.547427e-07	-8.959974e-10	-4.579010e+00	-5.918671e+01
1.650000e-06	-5.515742e-07	-8.912600e-10	-4.552856e+00	-5.892055e+01
1.660000e-06	-5.484005e-07	-8.878841e-10	-4.526659e+00	-5.864813e+01
1.670000e-06	-5.452154e-07	-8.851857e-10	-4.500369e+00	-5.836895e+01
1.680000e-06	-5.420031e-07	-8.793418e-10	-4.473853e+00	-5.808269e+01
1.690000e-06	-5.387634e-07	-8.714524e-10	-4.447112e+00	-5.778927e+01
1.700000e-06	-5.355148e-07	-8.629983e-10	-4.420297e+00	-5.748880e+01
1.710000e-06	-5.322523e-07	-8.563584e-10	-4.393367e+00	-5.718159e+01
1.720000e-06	-5.289712e-07	-8.528322e-10	-4.366284e+00	-5.686811e+01
1.730000e-06	-5.256836e-07	-8.516167e-10	-4.339148e+00	-5.654897e+01
1.740000e-06	-5.223904e-07	-8.495685e-10	-4.311964e+00	-5.622493e+01
1.750000e-06	-5.190861e-07	-8.443424e-10	-4.284689e+00	-5.589681e+01
1.760000e-06	-5.157745e-07	-8.377707e-10	-4.257355e+00	-5.556548e+01
1.770000e-06	-5.124585e-07	-8.297800e-10	-4.229983e+00	-5.523186e+01
1.780000e-06	-5.091350e-07	-8.200339e-10	-4.202551e+00	-5.489683e+01
1.790000e-06	-5.058046e-07	-8.123204e-10	-4.175060e+00	-5.456126e+01
1.800000e-06	-5.024635e-07	-8.096101e-10	-4.147482e+00	-5.422595e+01
1.810000e-06	-4.991125e-07	-8.100294e-10	-4.119822e+00	-5.389161e+01
1.820000e-06	-4.957528e-07	-8.084897e-10	-4.092090e+00	-5.355887e+01
1.830000e-06	-4.923769e-07	-8.038553e-10	-4.064224e+00	-5.322823e+01
1.840000e-06	-4.889828e-07	-8.001073e-10	-4.036209e+00	-5.290009e+01
1.850000e-06	-4.855724e-07	-7.990270e-10	-4.008058e+00	-5.257473e+01
1.860000e-06	-4.821469e-07	-7.977012e-10	-3.979782e+00	-5.225229e+01
1.870000e-06	-4.786978e-07	-7.915619e-10	-3.951313e+00	-5.193282e+01
1.880000e-06	-4.752388e-07	-7.831864e-10	-3.922762e+00	-5.161625e+01
1.890000e-06	-4.717601e-07	-7.771645e-10	-3.894047e+00	-5.130241e+01
1.900000e-06	-4.682613e-07	-7.746169e-10	-3.865167e+00	-5.099107e+01
1.910000e-06	-4.647512e-07	-7.714084e-10	-3.836193e+00	-5.068190e+01
1.920000e-06	-4.612223e-07	-7.651695e-10	-3.807065e+00	-5.037454e+01
1.930000e-06	-4.576710e-07	-7.607792e-10	-3.777752e+00	-5.006858e+01
1.940000e-06	-4.540876e-07	-7.606793e-10	-3.748173e+00	-4.976359e+01
1.950000e-06	-4.504752e-07	-7.629541e-10	-3.718355e+00	-4.945914e+01
1.960000e-06	-4.468539e-07	-7.624153e-10	-3.688464e+00	-4.915480e+01
1.970000e-06	-4.432322e-07	-7.570027e-10	-3.658570e+00	-4.885017e+01
1.980000e-06	-4.395848e-07	-7.505709e-10	-3.628463e+00	-4.854486e+01
1.990000e-06	-4.359154e-07	-7.435134e-10	-3.598174e+00	-4.823856e+01
2.000000e-06	-4.322438e-07	-7.348288e-10	-3.567868e+00	-4.793099e+01
2.010000e-06	-4.285651e-07	-7.258614e-10	-3.537503e+00	-4.762191e+01
2.020000e-06	-4.248765e-07	-7.205704e-10	-3.507056e+00	-4.731117e+01
2.030000e-06	-4.211787e-07	-7.217448e-10	-3.476533e+00	-4.699866e+01
2.040000e-06	-4.174651e-07	-7.251769e-10	-3.445880e+00	-4.668435e+01
2.050000e-06	-4.137440e-07	-7.256528e-10	-3.415165e+00	-4.636823e+01
2.060000e-06	-4.100299e-07	-7.221978e-10	-3.384508e+00	-4.605038e+01
2.070000e-06	-4.063122e-07	-7.178571e-10	-3.353820e+00	-4.573089e+01
2.080000e-06	-4.025840e-07	-7.128222e-10	-3.323047e+00	-4.540989e+01
2.090000e-06	-3.988516e-07	-7.038150e-10	-3.292239e+00	-4.508751e+01
2.100000e-06	-3.951184e-07	-6.924334e-10	-3.261424e+00	-4.476391e+01
2.110000e-06	-3.913773e-07	-6.842658e-10	-3.230544e+00	-4.443920e+01
2.120000e-06	-3.876282e-07	-6.827548e-10	-3.199597e+00	-4.411350e+01
2.130000e-06	-3.838848e-07	-6.837546e-10	-3.168699e+00	-4.378687e+01
2.140000e-06	-3.801291e-07	-6.817568e-10	-3.137698e+00	-4.345930e+01
2.150000e-06	-3.763563e-07	-6.782858e-10	-3.106556e+00	-4.313073e+01
2.160000e-06	-3.725721e-07	-6.747296e-10	-3.075320e+00	-4.280103e+01
2.170000e-06	-3.687750e-07	-6.674102e-10	-3.043977e+00	-4.246997e+01
2.180000e-06	-3.649696e-07	-6.562821e-10	-3.012567e+00	-4.213725e+01
2.190000e-06	-3.611493e-07	-6.467598e-10	-2.981033e+00	-4.180250e+01
2.200000e-06	-3.573229e-07	-6.418446e-10	-2.949449e+00	-4.146524e+01
2.210000e-06	-3.534961e-07	-6.399217e-10	-2.917861e+00	-4.112496e+01
2.220000e-06	-3.496604e-07	-6.377662e-10	-2.886200e+00	-4.078108e+01
2.230000e-06	-3.458104e-07	-6.365215e-10	-2.854421e+00	-4.043301e+01
2.240000e-06	-3.419470e-07	-6.360674e-10	-2.822532e+00	-4.008013e+01
2.250000e-06	-3.380752e-07	-6.320041e-10	-2.790572e+00	-3.972182e+01
2.260000e-06	-3.341953e-07	-6.225825e-10	-2.758547e+00	-3.935753e+01
2.270000e-06	-3.303058e-07	-6.130974e-10	-2.726441e+00	-3.898676e+01
2.280000e-06	-3.264067e-07	-6.071957e-10	-2.694257e+00	-3.860907e+01
2.290000e-06	-3.224932e-07	-6.012862e-10	-2.661954e+00	-3.822416e+01
2.300000e-06	-3.185786e-07	-5.940701e-10	-2.629641e+00	-3.783184e+01
2.310000e-06	-3.146687e-07	-5.891372e-10	-2.597369e+00	-3.743206e+01
2.320000e-06	-3.107501e-07	-5.875854e-10	-2.565023e+00	-3.702491e+01
2.330000e-06	-3.068287e-07	-5.856049e-10	-2.532655e+00	-3.661065e+01
2.340000e-06	-3.028966e-07	-5.813649e-10	-2.500198e+00	-3.618967e+01
2.350000e-06	-2.989426e-07	-5.760965e-10	-2.467560e+00	-3.576253e+01
2.360000e-06	-2.949843e-07	-5.726224e-10	-2.434888e+00	-3.532989e+01
2.370000e-06	-2.910228e-07	-5.680001e-10	-2.402188e+00	-3.489254e+01
2.380000e-06	-2.870447e-07	-5.561866e-10	-2.369351e+00	-3.445133e+01
2.390000e-06	-2.830637e-07	-5.398358e-10	-2.336491e+00	-3.400719e+01
2.400000e-06	-2.790855e-07	-5.279904e-10	-2.303654e+00	-3.356107e+01
2.410000e-06	-2.750959e-07	-5.229405e-10	-2.270722e+00	-3.311392e+01
2.420000e-06	-2.710948e-07	-5.183652e-10	-2.237696e+00	-3.266664e+01
2.430000e-06	-2.670860e-07	-5.120104e-10	-2.204607e+00	-3.222009e+01
2.440000e-06	-2.630743e-07	-5.090937e-10	-2.171493e+00	-3.177502e+01
2.450000e-06	-2.590627e-07	-5.128179e-10	-2.138380e+00	-3.133209e+01
2.460000e-06	-2.550402e-07	-5.128302e-10	-2.105177e+00	-3.089182e+01
2.470000e-06	-2.509976e-07	-5.012687e-10	-2.071808e+00	-3.045462e+01
2.480000e-06	-2.469466e-07	-4.862279e-10	-2.038370e+00	-3.002075e+01
2.490000e-06	-2.428957e-07	-4.768771e-10	-2.004933e+00	-2.959032e+01
2.500000e-06	-2.388390e-07	-4.718482e-10	-1.971448e+00	-2.916336e+01
2.510000e-06	-2.347843e-07	-4.644656e-10	-1.937979e+00	-2.873977e+01
2.520000e-06	-2.307214e-07	-4.572061e-10	-1.904443e+00	-2.831936e+01
2.530000e-06	-2.266391e-07	-4.563390e-10	-1.870746e+00	-2.790191e+01
2.540000e-06	-2.225441e-07	-4.585536e-10	-1.836945e+00	-2.748716e+01
2.550000e-06	-2.184487e-07	-4.542887e-10	-1.803140e+00	-2.707482e+01
2.560000e-06	-2.143622e-07	-4.408070e-10	-1.769408e+00	-2.666468e+01
2.570000e-06	-2.102779e-07	-4.289403e-10	-1.735696e+00	-2.625652e+01
2.580000e-06	-2.061889e-07	-4.234775e-10	-1.701944e+00	-2.585022e+01
2.590000e-06	-2.020893e-07	-4.167094e-10	-1.668105e+00	-2.544576e+01
2.600000e-06	-1.979826e-07	-4.060095e-10	-1.634207e+00	-2.504318e+01
2.610000e-06	-1.938819e-07	-3.998776e-10	-1.600358e+00	-2.464264e+01
2.620000e-06	-1.897833e-07	-4.010195e-10	-1.566527e+00	-2.424438e+01
2.630000e-06	-1.856766e-07	-4.006788e-10	-1.532629e+00	-2.384873e+01
2.640000e-06	-1.815643e-07	-3.919097e-10	-1.498685e+00	-2.345608e+01
2.650000e-06	-1.774486e-07	-3.817514e-10	-1.464713e+00	-2.306684e+01
2.660000e-06	-1.733324e-07	-3.777198e-10	-1.430737e+00	-2.268145e+01
2.670000e-06	-1.692070e-07	-3.733856e-10	-1.396684e+00	-2.230033e+01
2.680000e-06	-1.650775e-07	-3.635424e-10	-1.362598e+00	-2.192384e+01
2.690000e-06	-1.609573e-07	-3.502928e-10	-1.328589e+00	-2.155224e+01
2.700000e-06	-1.568388e-07	-3.414477e-10	-1.294594e+00	-2.118570e+01
2.710000e-06	-1.527181e-07	-3.386294e-10	-1.260580e+00	-2.082423e+01
2.720000e-06	-1.485965e-07	-3.338340e-10	-1.226559e+00	-2.046769e+01
2.730000e-06	-1.444728e-07	-3.256748e-10	-1.192521e+00	-2.011575e+01
2.740000e-06	-1.403445e-07	-3.211195e-10	-1.158445e+00	-1.976790e+01
2.750000e-06	-1.362086e-07	-3.215608e-10	-1.124306e+00	-1.942347e+01
2.760000e-06	-1.320718e-07	-3.190632e-10	-1.090159e+00	-1.908160e+01
2.770000e-06	-1.279342e-07	-3.103139e-10	-1.056007e+00	-1.874126e+01
2.780000e-06	-1.237887e-07	-3.003454e-10	-1.021788e+00	-1.840133e+01
2.790000e-06	-1.196351e-07	-2.936367e-10	-9.875034e-01	-1.806057e+01
2.800000e-06	-1.154804e-07	-2.907151e-10	-9.532090e-01	-1.771768e+01
2.810000e-06	-1.113226e-07	-2.861781e-10	-9.188899e-01	-1.737134e+01
2.820000e-06	-1.071712e-07	-2.779109e-10	-8.846224e-01	-1.702028e+01
2.830000e-06	-1.030251e-07	-2.699405e-10	-8.503995e-01	-1.666324e+01
2.840000e-06	-9.887136e-08	-2.651947e-10	-8.161134e-01	-1.629912e+01
