# Temperatura_=_20.0
# Concentracion g/m^3_=_10000.0
# C_Vs_to_Am_M_A/Vsm_=_65563218390.804596
# pendiente_HvsI_1/m_=_3716.3
# ordenada_HvsI_A/m_=_1297.0
# frecuencia_Hz_=_81120.6688088914

Tiempo_(s)	Campo_(V.s)	Magnetizacion_(V.s)	Campo_(kA/m)	Magnetizacion_(A/m)
0.000000e+00	-8.317986e-07	-2.458892e-11	-6.867975e+00	1.159120e-01
1.000000e-08	-8.317653e-07	-3.848284e-11	-6.867700e+00	1.231449e-01
2.000000e-08	-8.317299e-07	-4.305257e-11	-6.867408e+00	1.294208e-01
3.000000e-08	-8.317039e-07	-3.930706e-11	-6.867193e+00	1.345666e-01
4.000000e-08	-8.316481e-07	-3.464670e-11	-6.866732e+00	1.384625e-01
5.000000e-08	-8.315797e-07	-3.375344e-11	-6.866168e+00	1.410466e-01
6.000000e-08	-8.315122e-07	-3.659264e-11	-6.865610e+00	1.423159e-01
7.000000e-08	-8.314124e-07	-3.793225e-11	-6.864786e+00	1.423256e-01
8.000000e-08	-8.312889e-07	-2.511747e-11	-6.863766e+00	1.411849e-01
9.000000e-08	-8.311640e-07	-1.250303e-11	-6.862735e+00	1.390510e-01
1.000000e-07	-8.310253e-07	-9.288745e-12	-6.861590e+00	1.361204e-01
1.100000e-07	-8.308606e-07	-8.778580e-12	-6.860230e+00	1.326195e-01
1.200000e-07	-8.306594e-07	-1.098789e-11	-6.858569e+00	1.287925e-01
1.300000e-07	-8.304284e-07	-2.031618e-11	-6.856662e+00	1.248902e-01
1.400000e-07	-8.301946e-07	-4.418373e-11	-6.854731e+00	1.211581e-01
1.500000e-07	-8.299424e-07	-6.897134e-11	-6.852648e+00	1.178247e-01
1.600000e-07	-8.296512e-07	-7.289556e-11	-6.850244e+00	1.150917e-01
1.700000e-07	-8.293302e-07	-5.746943e-11	-6.847594e+00	1.131245e-01
1.800000e-07	-8.289823e-07	-3.501989e-11	-6.844721e+00	1.120462e-01
1.900000e-07	-8.285970e-07	-2.205616e-11	-6.841540e+00	1.119322e-01
2.000000e-07	-8.281771e-07	-1.954714e-11	-6.838073e+00	1.128081e-01
2.100000e-07	-8.277345e-07	-2.538609e-11	-6.834418e+00	1.146497e-01
2.200000e-07	-8.272617e-07	-4.553842e-11	-6.830515e+00	1.173854e-01
2.300000e-07	-8.267656e-07	-6.276943e-11	-6.826419e+00	1.209009e-01
2.400000e-07	-8.262628e-07	-7.041473e-11	-6.822267e+00	1.250451e-01
2.500000e-07	-8.257441e-07	-6.030464e-11	-6.817984e+00	1.296389e-01
2.600000e-07	-8.252056e-07	-4.608970e-11	-6.813538e+00	1.344834e-01
2.700000e-07	-8.246521e-07	-3.608832e-11	-6.808968e+00	1.393704e-01
2.800000e-07	-8.240812e-07	-2.523221e-11	-6.804254e+00	1.440917e-01
2.900000e-07	-8.235014e-07	-3.167795e-11	-6.799467e+00	1.484491e-01
3.000000e-07	-8.229068e-07	-3.659600e-11	-6.794557e+00	1.522630e-01
3.100000e-07	-8.222896e-07	-3.637231e-11	-6.789461e+00	1.553804e-01
3.200000e-07	-8.216458e-07	-3.800140e-11	-6.784146e+00	1.576808e-01
3.300000e-07	-8.209732e-07	-3.855869e-11	-6.778592e+00	1.590811e-01
3.400000e-07	-8.202747e-07	-3.887003e-11	-6.772825e+00	1.595381e-01
3.500000e-07	-8.195543e-07	-3.235328e-11	-6.766876e+00	1.590493e-01
3.600000e-07	-8.188265e-07	-3.146670e-11	-6.760867e+00	1.576521e-01
3.700000e-07	-8.180844e-07	-3.388055e-11	-6.754740e+00	1.554203e-01
3.800000e-07	-8.173214e-07	-3.329609e-11	-6.748440e+00	1.524601e-01
3.900000e-07	-8.165404e-07	-2.661988e-11	-6.741992e+00	1.489042e-01
4.000000e-07	-8.157361e-07	-1.664437e-11	-6.735351e+00	1.449051e-01
4.100000e-07	-8.149066e-07	-1.305458e-11	-6.728501e+00	1.406273e-01
4.200000e-07	-8.140440e-07	-7.446357e-12	-6.721379e+00	1.362400e-01
4.300000e-07	-8.131603e-07	-4.984529e-12	-6.714083e+00	1.319089e-01
4.400000e-07	-8.122651e-07	-5.797673e-12	-6.706691e+00	1.277892e-01
4.500000e-07	-8.113513e-07	-1.510118e-11	-6.699146e+00	1.240190e-01
4.600000e-07	-8.104285e-07	-2.259745e-11	-6.691527e+00	1.207132e-01
4.700000e-07	-8.094959e-07	-1.538635e-11	-6.683826e+00	1.179597e-01
4.800000e-07	-8.085485e-07	-7.168407e-12	-6.676004e+00	1.158152e-01
4.900000e-07	-8.075839e-07	-2.338918e-12	-6.668040e+00	1.143045e-01
5.000000e-07	-8.065947e-07	-5.055266e-12	-6.659871e+00	1.134191e-01
5.100000e-07	-8.055705e-07	-5.050137e-12	-6.651416e+00	1.131188e-01
5.200000e-07	-8.045256e-07	-1.980573e-12	-6.642788e+00	1.133336e-01
5.300000e-07	-8.034311e-07	-4.429914e-12	-6.633751e+00	1.139672e-01
5.400000e-07	-8.022681e-07	-1.067821e-11	-6.624148e+00	1.149014e-01
5.500000e-07	-8.010792e-07	-1.554290e-11	-6.614332e+00	1.160009e-01
5.600000e-07	-7.998692e-07	-8.844770e-12	-6.604341e+00	1.171191e-01
5.700000e-07	-7.986419e-07	1.225646e-12	-6.594207e+00	1.181040e-01
5.800000e-07	-7.973921e-07	7.019374e-12	-6.583888e+00	1.188042e-01
5.900000e-07	-7.961175e-07	6.749071e-12	-6.573364e+00	1.190745e-01
6.000000e-07	-7.948223e-07	3.726444e-12	-6.562670e+00	1.187816e-01
6.100000e-07	-7.935043e-07	2.163588e-12	-6.551787e+00	1.178089e-01
6.200000e-07	-7.921686e-07	-6.380356e-12	-6.540759e+00	1.160609e-01
6.300000e-07	-7.908173e-07	-1.996977e-11	-6.529601e+00	1.134666e-01
6.400000e-07	-7.894542e-07	-2.694346e-11	-6.518347e+00	1.099821e-01
6.500000e-07	-7.880709e-07	-2.097112e-11	-6.506925e+00	1.055924e-01
6.600000e-07	-7.866569e-07	-1.418494e-11	-6.495250e+00	1.003118e-01
6.700000e-07	-7.852190e-07	-1.329536e-11	-6.483378e+00	9.418394e-02
6.800000e-07	-7.837553e-07	-9.448458e-12	-6.471292e+00	8.728055e-02
6.900000e-07	-7.822572e-07	-3.624503e-12	-6.458923e+00	7.969920e-02
7.000000e-07	-7.807493e-07	-4.163181e-13	-6.446473e+00	7.156047e-02
7.100000e-07	-7.792318e-07	-5.511964e-12	-6.433943e+00	6.300437e-02
7.200000e-07	-7.776839e-07	-1.343973e-11	-6.421162e+00	5.418600e-02
7.300000e-07	-7.761123e-07	-1.609658e-11	-6.408186e+00	4.527089e-02
7.400000e-07	-7.745207e-07	-1.394599e-11	-6.395044e+00	3.642982e-02
7.500000e-07	-7.729209e-07	-1.124647e-11	-6.381835e+00	2.783360e-02
7.600000e-07	-7.712902e-07	-1.049517e-11	-6.368371e+00	1.964764e-02
7.700000e-07	-7.696256e-07	-5.082956e-12	-6.354626e+00	1.202677e-02
7.800000e-07	-7.679361e-07	1.604080e-12	-6.340677e+00	5.110211e-03
7.900000e-07	-7.661982e-07	5.439467e-12	-6.326327e+00	-9.829628e-04
8.000000e-07	-7.644359e-07	2.527889e-12	-6.311776e+00	-6.157771e-03
8.100000e-07	-7.626646e-07	-6.432766e-12	-6.297151e+00	-1.034658e-02
8.200000e-07	-7.608760e-07	-1.157741e-11	-6.282383e+00	-1.351151e-02
8.300000e-07	-7.590750e-07	-1.293947e-11	-6.267512e+00	-1.564582e-02
8.400000e-07	-7.572507e-07	-1.129215e-11	-6.252450e+00	-1.677441e-02
8.500000e-07	-7.554006e-07	-1.029619e-11	-6.237174e+00	-1.695306e-02
8.600000e-07	-7.535395e-07	-8.276469e-12	-6.221807e+00	-1.626677e-02
8.700000e-07	-7.516593e-07	-1.819468e-12	-6.206282e+00	-1.482693e-02
8.800000e-07	-7.497605e-07	1.444272e-12	-6.190605e+00	-1.276757e-02
8.900000e-07	-7.478546e-07	4.436759e-13	-6.174868e+00	-1.024077e-02
9.000000e-07	-7.459365e-07	-1.513539e-12	-6.159031e+00	-7.411320e-03
9.100000e-07	-7.439923e-07	-9.245888e-13	-6.142978e+00	-4.450870e-03
9.200000e-07	-7.420185e-07	-8.246862e-14	-6.126681e+00	-1.531835e-03
9.300000e-07	-7.400189e-07	-1.465622e-12	-6.110171e+00	1.178818e-03
9.400000e-07	-7.379949e-07	-4.631367e-12	-6.093458e+00	3.525552e-03
9.500000e-07	-7.359537e-07	-7.630033e-12	-6.076605e+00	5.369814e-03
9.600000e-07	-7.338993e-07	-6.217071e-12	-6.059642e+00	6.594887e-03
9.700000e-07	-7.318328e-07	-2.971449e-12	-6.042579e+00	7.109842e-03
9.800000e-07	-7.297514e-07	1.138106e-12	-6.025394e+00	6.852389e-03
9.900000e-07	-7.276521e-07	4.777460e-12	-6.008060e+00	5.790498e-03
1.000000e-06	-7.255425e-07	7.901494e-12	-5.990642e+00	3.922691e-03
1.010000e-06	-7.234242e-07	1.092036e-11	-5.973152e+00	1.276979e-03
1.020000e-06	-7.212942e-07	1.003824e-11	-5.955565e+00	-2.091512e-03
1.030000e-06	-7.191542e-07	6.950877e-12	-5.937896e+00	-6.104146e-03
1.040000e-06	-7.169992e-07	4.966078e-12	-5.920102e+00	-1.066343e-02
1.050000e-06	-7.148235e-07	5.845208e-12	-5.902138e+00	-1.565853e-02
1.060000e-06	-7.126352e-07	5.320140e-12	-5.884069e+00	-2.097134e-02
1.070000e-06	-7.104393e-07	2.119178e-12	-5.865938e+00	-2.648288e-02
1.080000e-06	-7.082160e-07	1.283442e-12	-5.847581e+00	-3.207960e-02
1.090000e-06	-7.059652e-07	3.484011e-12	-5.828997e+00	-3.765941e-02
1.100000e-06	-7.037021e-07	8.231425e-12	-5.810311e+00	-4.313696e-02
1.110000e-06	-7.014240e-07	9.225008e-12	-5.791501e+00	-4.844808e-02
1.120000e-06	-6.991233e-07	5.789973e-12	-5.772504e+00	-5.355290e-02
1.130000e-06	-6.968071e-07	5.176108e-12	-5.753380e+00	-5.843776e-02
1.140000e-06	-6.944776e-07	7.084420e-12	-5.734146e+00	-6.311554e-02
1.150000e-06	-6.921177e-07	3.312908e-12	-5.714661e+00	-6.762453e-02
1.160000e-06	-6.897374e-07	-4.695161e-12	-5.695007e+00	-7.202583e-02
1.170000e-06	-6.873434e-07	-6.248163e-12	-5.675241e+00	-7.639942e-02
1.180000e-06	-6.849276e-07	-2.185019e-12	-5.655294e+00	-8.083908e-02
1.190000e-06	-6.824986e-07	2.790322e-12	-5.635238e+00	-8.544646e-02
1.200000e-06	-6.800561e-07	4.240671e-12	-5.615071e+00	-9.032454e-02
1.210000e-06	-6.776024e-07	2.801704e-12	-5.594811e+00	-9.557097e-02
1.220000e-06	-6.751397e-07	-7.672606e-14	-5.574477e+00	-1.012715e-01
1.230000e-06	-6.726543e-07	-7.551668e-12	-5.553956e+00	-1.074940e-01
1.240000e-06	-6.701450e-07	-1.917855e-11	-5.533237e+00	-1.142832e-01
1.250000e-06	-6.676283e-07	-2.957478e-11	-5.512458e+00	-1.216568e-01
1.260000e-06	-6.651064e-07	-3.414583e-11	-5.491635e+00	-1.296032e-01
1.270000e-06	-6.625597e-07	-3.205295e-11	-5.470607e+00	-1.380800e-01
1.280000e-06	-6.599940e-07	-2.759755e-11	-5.449423e+00	-1.470150e-01
1.290000e-06	-6.574227e-07	-2.459471e-11	-5.428192e+00	-1.563088e-01
1.300000e-06	-6.548329e-07	-2.332362e-11	-5.406808e+00	-1.658381e-01
1.310000e-06	-6.522210e-07	-2.164172e-11	-5.385243e+00	-1.754618e-01
1.320000e-06	-6.495937e-07	-2.291113e-11	-5.363550e+00	-1.850267e-01
1.330000e-06	-6.469388e-07	-3.013877e-11	-5.341629e+00	-1.943750e-01
1.340000e-06	-6.442581e-07	-3.483641e-11	-5.319495e+00	-2.033518e-01
1.350000e-06	-6.415559e-07	-3.525091e-11	-5.297184e+00	-2.118125e-01
1.360000e-06	-6.388221e-07	-3.587589e-11	-5.274611e+00	-2.196303e-01
1.370000e-06	-6.360665e-07	-3.780179e-11	-5.251859e+00	-2.267015e-01
1.380000e-06	-6.332760e-07	-3.647002e-11	-5.228818e+00	-2.329517e-01
1.390000e-06	-6.304502e-07	-2.947852e-11	-5.205486e+00	-2.383384e-01
1.400000e-06	-6.276083e-07	-2.209129e-11	-5.182021e+00	-2.428529e-01
1.410000e-06	-6.247417e-07	-1.984553e-11	-5.158352e+00	-2.465209e-01
1.420000e-06	-6.218600e-07	-2.206301e-11	-5.134559e+00	-2.493998e-01
1.430000e-06	-6.189658e-07	-2.431295e-11	-5.110662e+00	-2.515753e-01
1.440000e-06	-6.160549e-07	-2.560047e-11	-5.086628e+00	-2.531563e-01
1.450000e-06	-6.131367e-07	-2.777181e-11	-5.062532e+00	-2.542679e-01
1.460000e-06	-6.102109e-07	-2.941007e-11	-5.038375e+00	-2.550440e-01
1.470000e-06	-6.072798e-07	-2.559273e-11	-5.014173e+00	-2.556189e-01
1.480000e-06	-6.043488e-07	-1.555267e-11	-4.989973e+00	-2.561195e-01
1.490000e-06	-6.014108e-07	-7.194710e-12	-4.965714e+00	-2.566568e-01
1.500000e-06	-5.984500e-07	-4.206423e-12	-4.941267e+00	-2.573195e-01
1.510000e-06	-5.954689e-07	-5.298853e-12	-4.916654e+00	-2.581674e-01
1.520000e-06	-5.924735e-07	-9.012956e-12	-4.891921e+00	-2.592280e-01
1.530000e-06	-5.894663e-07	-1.614587e-11	-4.867091e+00	-2.604936e-01
1.540000e-06	-5.864452e-07	-2.566752e-11	-4.842147e+00	-2.619214e-01
1.550000e-06	-5.834098e-07	-2.967886e-11	-4.817084e+00	-2.634352e-01
1.560000e-06	-5.803662e-07	-2.653730e-11	-4.791954e+00	-2.649292e-01
1.570000e-06	-5.773039e-07	-2.115285e-11	-4.766669e+00	-2.662740e-01
1.580000e-06	-5.742238e-07	-1.773874e-11	-4.741237e+00	-2.673242e-01
1.590000e-06	-5.711277e-07	-1.700126e-11	-4.715674e+00	-2.679266e-01
1.600000e-06	-5.680151e-07	-1.708691e-11	-4.689973e+00	-2.679300e-01
1.610000e-06	-5.648971e-07	-1.522120e-11	-4.664229e+00	-2.671951e-01
1.620000e-06	-5.617701e-07	-1.200479e-11	-4.638410e+00	-2.656036e-01
1.630000e-06	-5.586297e-07	-1.368246e-11	-4.612481e+00	-2.630671e-01
1.640000e-06	-5.554733e-07	-1.878067e-11	-4.586419e+00	-2.595347e-01
1.650000e-06	-5.523057e-07	-1.871623e-11	-4.560265e+00	-2.549983e-01
1.660000e-06	-5.491366e-07	-1.583117e-11	-4.534098e+00	-2.494968e-01
1.670000e-06	-5.459486e-07	-1.521677e-11	-4.507776e+00	-2.431169e-01
1.680000e-06	-5.427464e-07	-1.663516e-11	-4.481336e+00	-2.359923e-01
1.690000e-06	-5.395319e-07	-1.565162e-11	-4.454794e+00	-2.282997e-01
1.700000e-06	-5.362871e-07	-1.210229e-11	-4.428003e+00	-2.202532e-01
1.710000e-06	-5.330315e-07	-9.508523e-12	-4.401122e+00	-2.120958e-01
1.720000e-06	-5.297758e-07	-1.042263e-11	-4.374241e+00	-2.040900e-01
1.730000e-06	-5.265007e-07	-1.365957e-11	-4.347199e+00	-1.965061e-01
1.740000e-06	-5.232064e-07	-1.173306e-11	-4.319998e+00	-1.896109e-01
1.750000e-06	-5.198986e-07	-8.243943e-12	-4.292687e+00	-1.836552e-01
1.760000e-06	-5.165822e-07	-6.903596e-12	-4.265304e+00	-1.788625e-01
1.770000e-06	-5.132624e-07	-6.668507e-12	-4.237893e+00	-1.754182e-01
1.780000e-06	-5.099368e-07	-3.596154e-12	-4.210434e+00	-1.734607e-01
1.790000e-06	-5.066071e-07	8.127970e-13	-4.182942e+00	-1.730741e-01
1.800000e-06	-5.032684e-07	7.268963e-13	-4.155374e+00	-1.742839e-01
1.810000e-06	-4.999174e-07	-2.124353e-12	-4.127706e+00	-1.770549e-01
1.820000e-06	-4.965558e-07	-2.936570e-12	-4.099950e+00	-1.812918e-01
1.830000e-06	-4.931899e-07	1.435600e-12	-4.072159e+00	-1.868430e-01
1.840000e-06	-4.898152e-07	2.412500e-12	-4.044294e+00	-1.935066e-01
1.850000e-06	-4.864217e-07	-5.368834e-12	-4.016275e+00	-2.010390e-01
1.860000e-06	-4.830220e-07	-1.255829e-11	-3.988205e+00	-2.091652e-01
1.870000e-06	-4.796097e-07	-1.336447e-11	-3.960030e+00	-2.175907e-01
1.880000e-06	-4.761689e-07	-1.000115e-11	-3.931620e+00	-2.260143e-01
1.890000e-06	-4.727135e-07	-7.857702e-12	-3.903090e+00	-2.341411e-01
1.900000e-06	-4.692490e-07	-6.677408e-12	-3.874484e+00	-2.416949e-01
1.910000e-06	-4.657576e-07	-4.516666e-12	-3.845656e+00	-2.484306e-01
1.920000e-06	-4.622186e-07	-3.717342e-12	-3.816435e+00	-2.541436e-01
1.930000e-06	-4.586459e-07	-4.618642e-12	-3.786936e+00	-2.586787e-01
1.940000e-06	-4.550681e-07	-8.537633e-12	-3.757395e+00	-2.619359e-01
1.950000e-06	-4.514843e-07	-1.375365e-11	-3.727804e+00	-2.638735e-01
1.960000e-06	-4.478840e-07	-1.784162e-11	-3.698078e+00	-2.645091e-01
1.970000e-06	-4.442684e-07	-1.812146e-11	-3.668224e+00	-2.639169e-01
1.980000e-06	-4.406376e-07	-1.712640e-11	-3.638246e+00	-2.622237e-01
1.990000e-06	-4.369897e-07	-1.813773e-11	-3.608126e+00	-2.596014e-01
2.000000e-06	-4.333324e-07	-1.630318e-11	-3.577929e+00	-2.562580e-01
2.010000e-06	-4.296608e-07	-1.179330e-11	-3.547613e+00	-2.524272e-01
2.020000e-06	-4.259753e-07	-7.859836e-12	-3.517183e+00	-2.483571e-01
2.030000e-06	-4.222838e-07	-8.504177e-12	-3.486703e+00	-2.442980e-01
2.040000e-06	-4.185852e-07	-1.305682e-11	-3.456164e+00	-2.404905e-01
2.050000e-06	-4.148760e-07	-1.803352e-11	-3.425538e+00	-2.371551e-01
2.060000e-06	-4.111559e-07	-2.278209e-11	-3.394822e+00	-2.344818e-01
2.070000e-06	-4.074302e-07	-2.475711e-11	-3.364060e+00	-2.326221e-01
2.080000e-06	-4.036967e-07	-2.357812e-11	-3.333233e+00	-2.316829e-01
2.090000e-06	-3.999633e-07	-1.730900e-11	-3.302407e+00	-2.317225e-01
2.100000e-06	-3.962334e-07	-9.294137e-12	-3.271610e+00	-2.327492e-01
2.110000e-06	-3.924934e-07	-6.400246e-12	-3.240730e+00	-2.347220e-01
2.120000e-06	-3.887394e-07	-9.204966e-12	-3.209735e+00	-2.375539e-01
2.130000e-06	-3.849775e-07	-1.342525e-11	-3.178673e+00	-2.411171e-01
2.140000e-06	-3.812086e-07	-1.495879e-11	-3.147554e+00	-2.452497e-01
2.150000e-06	-3.774359e-07	-1.664360e-11	-3.116404e+00	-2.497648e-01
2.160000e-06	-3.736589e-07	-1.970871e-11	-3.085218e+00	-2.544591e-01
2.170000e-06	-3.698665e-07	-1.936752e-11	-3.053905e+00	-2.591233e-01
2.180000e-06	-3.660597e-07	-1.407346e-11	-3.022473e+00	-2.635516e-01
2.190000e-06	-3.622454e-07	-8.225179e-12	-2.990979e+00	-2.675513e-01
2.200000e-06	-3.584171e-07	-6.919469e-12	-2.959369e+00	-2.709513e-01
2.210000e-06	-3.545788e-07	-6.782788e-12	-2.927677e+00	-2.736090e-01
2.220000e-06	-3.507381e-07	-3.543553e-12	-2.895966e+00	-2.754165e-01
2.230000e-06	-3.468972e-07	-2.260536e-12	-2.864252e+00	-2.763044e-01
2.240000e-06	-3.430426e-07	-7.881928e-12	-2.832426e+00	-2.762436e-01
2.250000e-06	-3.391593e-07	-1.422585e-11	-2.800363e+00	-2.752455e-01
2.260000e-06	-3.352698e-07	-1.298000e-11	-2.768248e+00	-2.733606e-01
2.270000e-06	-3.313835e-07	-7.386223e-12	-2.736160e+00	-2.706745e-01
2.280000e-06	-3.274830e-07	-4.646888e-12	-2.703954e+00	-2.673033e-01
2.290000e-06	-3.235684e-07	-5.200181e-12	-2.671632e+00	-2.633873e-01
2.300000e-06	-3.196441e-07	-2.165852e-12	-2.639230e+00	-2.590840e-01
2.310000e-06	-3.157195e-07	2.942847e-12	-2.606825e+00	-2.545605e-01
2.320000e-06	-3.117925e-07	2.654672e-12	-2.574401e+00	-2.499856e-01
2.330000e-06	-3.078528e-07	-2.072401e-12	-2.541871e+00	-2.455221e-01
2.340000e-06	-3.039001e-07	-5.379840e-12	-2.509235e+00	-2.413202e-01
2.350000e-06	-2.999382e-07	-2.305077e-12	-2.476522e+00	-2.375103e-01
2.360000e-06	-2.959767e-07	2.333955e-13	-2.443814e+00	-2.341987e-01
2.370000e-06	-2.920151e-07	-2.300435e-12	-2.411103e+00	-2.314624e-01
2.380000e-06	-2.880452e-07	6.004389e-13	-2.378324e+00	-2.293476e-01
2.390000e-06	-2.840578e-07	1.241546e-11	-2.345402e+00	-2.278673e-01
2.400000e-06	-2.800675e-07	2.158148e-11	-2.312454e+00	-2.270018e-01
2.410000e-06	-2.760780e-07	2.137637e-11	-2.279515e+00	-2.267005e-01
2.420000e-06	-2.720679e-07	1.688148e-11	-2.246404e+00	-2.268837e-01
2.430000e-06	-2.680459e-07	1.699453e-11	-2.213195e+00	-2.274470e-01
2.440000e-06	-2.640354e-07	2.098336e-11	-2.180081e+00	-2.282657e-01
2.450000e-06	-2.600168e-07	2.044047e-11	-2.146900e+00	-2.292000e-01
2.460000e-06	-2.559827e-07	1.781265e-11	-2.113592e+00	-2.301007e-01
2.470000e-06	-2.519475e-07	2.042356e-11	-2.080274e+00	-2.308153e-01
2.480000e-06	-2.479042e-07	2.612128e-11	-2.046890e+00	-2.311940e-01
2.490000e-06	-2.438459e-07	2.953796e-11	-2.013381e+00	-2.310950e-01
2.500000e-06	-2.397784e-07	2.872103e-11	-1.979796e+00	-2.303903e-01
2.510000e-06	-2.357131e-07	2.854614e-11	-1.946230e+00	-2.289702e-01
2.520000e-06	-2.316512e-07	3.271695e-11	-1.912692e+00	-2.267473e-01
2.530000e-06	-2.275788e-07	3.288023e-11	-1.879067e+00	-2.236597e-01
2.540000e-06	-2.235000e-07	2.659621e-11	-1.845389e+00	-2.196734e-01
2.550000e-06	-2.194246e-07	2.408993e-11	-1.811740e+00	-2.147834e-01
2.560000e-06	-2.153390e-07	3.010419e-11	-1.778006e+00	-2.090145e-01
2.570000e-06	-2.112357e-07	3.645285e-11	-1.744126e+00	-2.024200e-01
2.580000e-06	-2.071298e-07	3.407939e-11	-1.710224e+00	-1.950810e-01
2.590000e-06	-2.030272e-07	2.742168e-11	-1.676350e+00	-1.871033e-01
2.600000e-06	-1.989207e-07	2.832081e-11	-1.642443e+00	-1.786148e-01
2.610000e-06	-1.948110e-07	3.138003e-11	-1.608511e+00	-1.697610e-01
2.620000e-06	-1.907022e-07	2.545648e-11	-1.574585e+00	-1.607014e-01
2.630000e-06	-1.865991e-07	1.614843e-11	-1.540707e+00	-1.516038e-01
2.640000e-06	-1.824868e-07	1.531484e-11	-1.506752e+00	-1.426396e-01
2.650000e-06	-1.783600e-07	2.271370e-11	-1.472679e+00	-1.339784e-01
2.660000e-06	-1.742319e-07	2.466147e-11	-1.438593e+00	-1.257826e-01
2.670000e-06	-1.701045e-07	1.864112e-11	-1.404515e+00	-1.182020e-01
2.680000e-06	-1.659759e-07	1.539726e-11	-1.370426e+00	-1.113695e-01
2.690000e-06	-1.618439e-07	1.794064e-11	-1.336308e+00	-1.053961e-01
2.700000e-06	-1.577111e-07	2.107464e-11	-1.302185e+00	-1.003677e-01
2.710000e-06	-1.535820e-07	2.237394e-11	-1.268092e+00	-9.634193e-02
2.720000e-06	-1.494443e-07	2.646470e-11	-1.233928e+00	-9.334592e-02
2.730000e-06	-1.453003e-07	3.442702e-11	-1.199712e+00	-9.137548e-02
2.740000e-06	-1.411586e-07	3.862794e-11	-1.165515e+00	-9.039488e-02
2.750000e-06	-1.370148e-07	3.260859e-11	-1.131301e+00	-9.033798e-02
2.760000e-06	-1.328736e-07	1.921419e-11	-1.097107e+00	-9.111029e-02
2.770000e-06	-1.287360e-07	1.081357e-11	-1.062944e+00	-9.259209e-02
2.780000e-06	-1.245968e-07	1.179427e-11	-1.028768e+00	-9.464254e-02
2.790000e-06	-1.204502e-07	1.506123e-11	-9.945305e-01	-9.710455e-02
2.800000e-06	-1.162998e-07	1.654661e-11	-9.602611e-01	-9.981027e-02
2.810000e-06	-1.121532e-07	1.947906e-11	-9.260237e-01	-1.025871e-01
2.820000e-06	-1.080023e-07	2.435974e-11	-8.917508e-01	-1.052637e-01
2.830000e-06	-1.038470e-07	2.754839e-11	-8.574418e-01	-1.076766e-01
2.840000e-06	-9.969221e-08	2.697265e-11	-8.231362e-01	-1.096754e-01
2.850000e-06	-9.553963e-08	2.407973e-11	-7.888493e-01	-1.111286e-01
2.860000e-06	-9.138769e-08	2.147526e-11	-7.545677e-01	-1.119281e-01
2.870000e-06	-8.723284e-08	1.774883e-11	-7.202620e-01	-1.119925e-01
