# Temperatura_=_20.0
# Concentracion g/m^3_=_10000.0
# C_Vs_to_Am_M_A/Vsm_=_65563218390.804596
# pendiente_HvsI_1/m_=_3716.3
# ordenada_HvsI_A/m_=_1297.0
# frecuencia_Hz_=_301040.4587311776

Tiempo_(s)	Campo_(V.s)	Magnetizacion_(V.s)	Campo_(kA/m)	Magnetizacion_(A/m)
0.000000e+00	-3.512093e-06	-7.546674e-09	-2.347565e+01	-4.955027e+02
1.000000e-08	-3.510973e-06	-7.546819e-09	-2.346816e+01	-4.949564e+02
2.000000e-08	-3.508549e-06	-7.546201e-09	-2.345196e+01	-4.943055e+02
3.000000e-08	-3.504749e-06	-7.544617e-09	-2.342656e+01	-4.935563e+02
4.000000e-08	-3.499878e-06	-7.541570e-09	-2.339400e+01	-4.927145e+02
5.000000e-08	-3.493991e-06	-7.538788e-09	-2.335465e+01	-4.917859e+02
6.000000e-08	-3.487009e-06	-7.529278e-09	-2.330797e+01	-4.907759e+02
7.000000e-08	-3.478973e-06	-7.505860e-09	-2.325426e+01	-4.896896e+02
8.000000e-08	-3.469706e-06	-7.534755e-09	-2.319232e+01	-4.885318e+02
9.000000e-08	-3.458646e-06	-7.576690e-09	-2.311839e+01	-4.873071e+02
1.000000e-07	-3.445689e-06	-7.550753e-09	-2.303178e+01	-4.860196e+02
1.100000e-07	-3.431362e-06	-7.416308e-09	-2.293602e+01	-4.846733e+02
1.200000e-07	-3.415991e-06	-7.316409e-09	-2.283328e+01	-4.832716e+02
1.300000e-07	-3.399404e-06	-7.514508e-09	-2.272240e+01	-4.818178e+02
1.400000e-07	-3.381514e-06	-7.559932e-09	-2.260283e+01	-4.803145e+02
1.500000e-07	-3.362606e-06	-7.230728e-09	-2.247644e+01	-4.787641e+02
1.600000e-07	-3.342803e-06	-7.374302e-09	-2.234407e+01	-4.771688e+02
1.700000e-07	-3.321794e-06	-7.489684e-09	-2.220364e+01	-4.755300e+02
1.800000e-07	-3.299668e-06	-7.198089e-09	-2.205575e+01	-4.738491e+02
1.900000e-07	-3.276810e-06	-7.340696e-09	-2.190296e+01	-4.721268e+02
2.000000e-07	-3.252874e-06	-7.441233e-09	-2.174296e+01	-4.703636e+02
2.100000e-07	-3.227428e-06	-7.108563e-09	-2.157287e+01	-4.685594e+02
2.200000e-07	-3.200578e-06	-7.141365e-09	-2.139341e+01	-4.667140e+02
2.300000e-07	-3.172624e-06	-7.353070e-09	-2.120655e+01	-4.648266e+02
2.400000e-07	-3.143641e-06	-7.152942e-09	-2.101283e+01	-4.628959e+02
2.500000e-07	-3.113564e-06	-7.093530e-09	-2.081178e+01	-4.609205e+02
2.600000e-07	-3.082344e-06	-7.102860e-09	-2.060310e+01	-4.588985e+02
2.700000e-07	-3.050237e-06	-7.017467e-09	-2.038849e+01	-4.568275e+02
2.800000e-07	-3.017375e-06	-7.089159e-09	-2.016883e+01	-4.547050e+02
2.900000e-07	-2.983235e-06	-7.033769e-09	-1.994063e+01	-4.525279e+02
3.000000e-07	-2.947676e-06	-6.858092e-09	-1.970295e+01	-4.502930e+02
3.100000e-07	-2.910994e-06	-6.910918e-09	-1.945776e+01	-4.479966e+02
3.200000e-07	-2.873353e-06	-6.900128e-09	-1.920616e+01	-4.456348e+02
3.300000e-07	-2.834812e-06	-6.795734e-09	-1.894854e+01	-4.432034e+02
3.400000e-07	-2.795298e-06	-6.786118e-09	-1.868442e+01	-4.406979e+02
3.500000e-07	-2.754853e-06	-6.675536e-09	-1.841407e+01	-4.381136e+02
3.600000e-07	-2.713490e-06	-6.628986e-09	-1.813760e+01	-4.354456e+02
3.700000e-07	-2.670936e-06	-6.672972e-09	-1.785316e+01	-4.326887e+02
3.800000e-07	-2.627152e-06	-6.620486e-09	-1.756049e+01	-4.298374e+02
3.900000e-07	-2.582427e-06	-6.468798e-09	-1.726154e+01	-4.268865e+02
4.000000e-07	-2.536872e-06	-6.417531e-09	-1.695704e+01	-4.238301e+02
4.100000e-07	-2.490494e-06	-6.422307e-09	-1.664704e+01	-4.206626e+02
4.200000e-07	-2.443260e-06	-6.359204e-09	-1.633131e+01	-4.173781e+02
4.300000e-07	-2.395172e-06	-6.263910e-09	-1.600989e+01	-4.139706e+02
4.400000e-07	-2.346181e-06	-6.167075e-09	-1.568242e+01	-4.104342e+02
4.500000e-07	-2.296068e-06	-6.129690e-09	-1.534745e+01	-4.067629e+02
4.600000e-07	-2.244770e-06	-6.117394e-09	-1.500457e+01	-4.029508e+02
4.700000e-07	-2.192476e-06	-6.054131e-09	-1.465502e+01	-3.989919e+02
4.800000e-07	-2.139307e-06	-5.921973e-09	-1.429962e+01	-3.948803e+02
4.900000e-07	-2.085339e-06	-5.844839e-09	-1.393889e+01	-3.906102e+02
5.000000e-07	-2.030687e-06	-5.801667e-09	-1.357358e+01	-3.861760e+02
5.100000e-07	-1.975374e-06	-5.748250e-09	-1.320386e+01	-3.815721e+02
5.200000e-07	-1.919427e-06	-5.647923e-09	-1.282990e+01	-3.767931e+02
5.300000e-07	-1.862954e-06	-5.519878e-09	-1.245242e+01	-3.718337e+02
5.400000e-07	-1.805957e-06	-5.460303e-09	-1.207144e+01	-3.666891e+02
5.500000e-07	-1.748157e-06	-5.420156e-09	-1.168509e+01	-3.613544e+02
5.600000e-07	-1.689376e-06	-5.340066e-09	-1.129218e+01	-3.558252e+02
5.700000e-07	-1.629757e-06	-5.208074e-09	-1.089368e+01	-3.500972e+02
5.800000e-07	-1.569568e-06	-5.107570e-09	-1.049135e+01	-3.441664e+02
5.900000e-07	-1.508992e-06	-5.043660e-09	-1.008645e+01	-3.380293e+02
6.000000e-07	-1.448023e-06	-4.971246e-09	-9.678919e+00	-3.316827e+02
6.100000e-07	-1.386528e-06	-4.856364e-09	-9.267874e+00	-3.251235e+02
6.200000e-07	-1.324486e-06	-4.719104e-09	-8.853174e+00	-3.183493e+02
6.300000e-07	-1.262020e-06	-4.620759e-09	-8.435633e+00	-3.113579e+02
6.400000e-07	-1.199178e-06	-4.549408e-09	-8.015583e+00	-3.041476e+02
6.500000e-07	-1.135950e-06	-4.454352e-09	-7.592956e+00	-2.967170e+02
6.600000e-07	-1.072303e-06	-4.312936e-09	-7.167519e+00	-2.890654e+02
6.700000e-07	-1.008224e-06	-4.189023e-09	-6.739203e+00	-2.811923e+02
6.800000e-07	-9.438627e-07	-4.097842e-09	-6.308997e+00	-2.730977e+02
6.900000e-07	-8.793673e-07	-4.008600e-09	-5.877895e+00	-2.647821e+02
7.000000e-07	-8.147402e-07	-3.874538e-09	-5.445912e+00	-2.562465e+02
7.100000e-07	-7.499017e-07	-3.717948e-09	-5.012517e+00	-2.474924e+02
7.200000e-07	-6.847300e-07	-3.591902e-09	-4.576894e+00	-2.385216e+02
7.300000e-07	-6.191871e-07	-3.487202e-09	-4.138790e+00	-2.293367e+02
7.400000e-07	-5.533372e-07	-3.369948e-09	-3.698634e+00	-2.199405e+02
7.500000e-07	-4.871980e-07	-3.218762e-09	-3.256544e+00	-2.103364e+02
7.600000e-07	-4.206737e-07	-3.074538e-09	-2.811881e+00	-2.005283e+02
7.700000e-07	-3.537946e-07	-2.952264e-09	-2.364845e+00	-1.905207e+02
7.800000e-07	-2.868275e-07	-2.833835e-09	-1.917222e+00	-1.803183e+02
7.900000e-07	-2.198456e-07	-2.680157e-09	-1.469499e+00	-1.699266e+02
8.000000e-07	-1.526909e-07	-2.502415e-09	-1.020621e+00	-1.593513e+02
8.100000e-07	-8.536119e-08	-2.342233e-09	-5.705740e-01	-1.485987e+02
8.200000e-07	-1.796928e-08	-2.205147e-09	-1.201109e-01	-1.376755e+02
8.300000e-07	4.943911e-08	-2.064353e-09	3.304625e-01	-1.265888e+02
8.400000e-07	1.167717e-07	-1.892988e-09	7.805290e-01	-1.153463e+02
8.500000e-07	1.839980e-07	-1.717449e-09	1.229885e+00	-1.039559e+02
8.600000e-07	2.511329e-07	-1.556831e-09	1.678631e+00	-9.242601e+01
8.700000e-07	3.181623e-07	-1.403176e-09	2.126671e+00	-8.076539e+01
8.800000e-07	3.849597e-07	-1.224421e-09	2.573160e+00	-6.898316e+01
8.900000e-07	4.515072e-07	-1.024502e-09	3.017979e+00	-5.708877e+01
9.000000e-07	5.178218e-07	-8.342025e-10	3.461241e+00	-4.509201e+01
9.100000e-07	5.837516e-07	-6.643415e-10	3.901931e+00	-3.300296e+01
9.200000e-07	6.492762e-07	-4.922993e-10	4.339913e+00	-2.083197e+01
9.300000e-07	7.144792e-07	-2.914932e-10	4.775745e+00	-8.589647e+00
9.400000e-07	7.794163e-07	-8.138506e-11	5.209800e+00	3.713164e+00
9.500000e-07	8.441015e-07	1.146688e-10	5.642170e+00	1.606542e+01
9.600000e-07	9.085721e-07	2.990139e-10	6.073106e+00	2.845590e+01
9.700000e-07	9.728973e-07	4.993484e-10	6.503071e+00	4.087323e+01
9.800000e-07	1.037044e-06	7.179125e-10	6.931846e+00	5.330589e+01
9.900000e-07	1.100863e-06	9.320009e-10	7.358425e+00	6.574230e+01
1.000000e-06	1.164235e-06	1.126344e-09	7.782020e+00	7.817076e+01
1.010000e-06	1.227169e-06	1.317771e-09	8.202679e+00	9.057955e+01
1.020000e-06	1.289738e-06	1.531064e-09	8.620909e+00	1.029569e+02
1.030000e-06	1.351953e-06	1.754184e-09	9.036771e+00	1.152912e+02
1.040000e-06	1.413721e-06	1.964897e-09	9.449639e+00	1.275706e+02
1.050000e-06	1.474981e-06	2.157993e-09	9.859112e+00	1.397836e+02
1.060000e-06	1.535757e-06	2.356376e-09	1.026536e+01	1.519185e+02
1.070000e-06	1.596155e-06	2.567694e-09	1.066907e+01	1.639640e+02
1.080000e-06	1.656225e-06	2.777744e-09	1.107059e+01	1.759089e+02
1.090000e-06	1.715669e-06	2.967779e-09	1.146793e+01	1.877419e+02
1.100000e-06	1.774125e-06	3.150505e-09	1.185866e+01	1.994522e+02
1.110000e-06	1.831546e-06	3.346332e-09	1.224248e+01	2.110292e+02
1.120000e-06	1.888246e-06	3.549452e-09	1.262148e+01	2.224624e+02
1.130000e-06	1.944535e-06	3.739001e-09	1.299772e+01	2.337416e+02
1.140000e-06	2.000273e-06	3.906484e-09	1.337029e+01	2.448571e+02
1.150000e-06	2.055270e-06	4.071726e-09	1.373790e+01	2.557991e+02
1.160000e-06	2.109552e-06	4.245020e-09	1.410074e+01	2.665587e+02
1.170000e-06	2.163121e-06	4.416610e-09	1.445880e+01	2.771268e+02
1.180000e-06	2.215880e-06	4.569360e-09	1.481146e+01	2.874951e+02
1.190000e-06	2.267677e-06	4.710198e-09	1.515768e+01	2.976555e+02
1.200000e-06	2.318347e-06	4.858792e-09	1.549637e+01	3.076003e+02
1.210000e-06	2.367824e-06	5.015747e-09	1.582708e+01	3.173224e+02
1.220000e-06	2.416408e-06	5.162027e-09	1.615183e+01	3.268148e+02
1.230000e-06	2.464234e-06	5.287013e-09	1.647151e+01	3.360714e+02
1.240000e-06	2.511268e-06	5.403161e-09	1.678590e+01	3.450863e+02
1.250000e-06	2.557496e-06	5.528796e-09	1.709490e+01	3.538541e+02
1.260000e-06	2.602794e-06	5.657007e-09	1.739768e+01	3.623699e+02
1.270000e-06	2.647345e-06	5.769782e-09	1.769547e+01	3.706293e+02
1.280000e-06	2.691109e-06	5.867963e-09	1.798800e+01	3.786285e+02
1.290000e-06	2.733638e-06	5.969337e-09	1.827227e+01	3.863640e+02
1.300000e-06	2.774944e-06	6.078112e-09	1.854837e+01	3.938331e+02
1.310000e-06	2.815337e-06	6.180614e-09	1.881836e+01	4.010332e+02
1.320000e-06	2.854828e-06	6.268434e-09	1.908233e+01	4.079627e+02
1.330000e-06	2.893335e-06	6.347957e-09	1.933972e+01	4.146201e+02
1.340000e-06	2.930879e-06	6.432233e-09	1.959067e+01	4.210045e+02
1.350000e-06	2.967570e-06	6.518728e-09	1.983593e+01	4.271158e+02
1.360000e-06	3.003327e-06	6.592658e-09	2.007494e+01	4.329539e+02
1.370000e-06	3.037742e-06	6.652956e-09	2.030497e+01	4.385196e+02
1.380000e-06	3.070834e-06	6.714468e-09	2.052616e+01	4.438139e+02
1.390000e-06	3.102922e-06	6.783932e-09	2.074065e+01	4.488386e+02
1.400000e-06	3.134048e-06	6.853472e-09	2.094871e+01	4.535955e+02
1.410000e-06	3.164170e-06	6.912987e-09	2.115004e+01	4.580871e+02
1.420000e-06	3.193267e-06	6.965359e-09	2.134454e+01	4.623165e+02
1.430000e-06	3.221391e-06	7.019447e-09	2.153253e+01	4.662869e+02
1.440000e-06	3.248272e-06	7.074246e-09	2.171221e+01	4.700020e+02
1.450000e-06	3.273736e-06	7.121295e-09	2.188241e+01	4.734659e+02
1.460000e-06	3.297993e-06	7.158611e-09	2.204455e+01	4.766831e+02
1.470000e-06	3.321092e-06	7.193491e-09	2.219895e+01	4.796584e+02
1.480000e-06	3.343042e-06	7.233277e-09	2.234567e+01	4.823969e+02
1.490000e-06	3.364003e-06	7.273667e-09	2.248578e+01	4.849039e+02
1.500000e-06	3.383997e-06	7.306510e-09	2.261942e+01	4.871852e+02
1.510000e-06	3.402750e-06	7.334460e-09	2.274477e+01	4.892467e+02
1.520000e-06	3.420197e-06	7.363609e-09	2.286139e+01	4.910946e+02
1.530000e-06	3.436395e-06	7.395662e-09	2.296966e+01	4.927352e+02
1.540000e-06	3.451344e-06	7.424212e-09	2.306958e+01	4.941750e+02
1.550000e-06	3.465048e-06	7.444431e-09	2.316119e+01	4.954208e+02
1.560000e-06	3.477429e-06	7.460423e-09	2.324394e+01	4.964793e+02
1.570000e-06	3.488295e-06	7.478478e-09	2.331658e+01	4.973575e+02
1.580000e-06	3.497693e-06	7.496521e-09	2.337939e+01	4.980624e+02
1.590000e-06	3.505905e-06	7.509117e-09	2.343428e+01	4.986009e+02
1.600000e-06	3.512940e-06	7.517831e-09	2.348131e+01	4.989802e+02
1.610000e-06	3.518740e-06	7.528344e-09	2.352007e+01	4.992074e+02
1.620000e-06	3.523496e-06	7.543028e-09	2.355186e+01	4.992894e+02
1.630000e-06	3.527101e-06	7.558264e-09	2.357596e+01	4.992332e+02
1.640000e-06	3.529191e-06	7.567723e-09	2.358993e+01	4.990457e+02
1.650000e-06	3.529919e-06	7.570435e-09	2.359480e+01	4.987337e+02
1.660000e-06	3.529543e-06	7.568938e-09	2.359228e+01	4.983040e+02
1.670000e-06	3.528074e-06	7.564262e-09	2.358247e+01	4.977628e+02
1.680000e-06	3.525559e-06	7.559010e-09	2.356566e+01	4.971168e+02
1.690000e-06	3.522080e-06	7.551953e-09	2.354240e+01	4.963718e+02
1.700000e-06	3.517386e-06	7.546887e-09	2.351102e+01	4.955340e+02
1.710000e-06	3.511179e-06	7.547865e-09	2.346953e+01	4.946089e+02
1.720000e-06	3.503850e-06	7.562483e-09	2.342054e+01	4.936020e+02
1.730000e-06	3.495673e-06	7.575621e-09	2.336589e+01	4.925185e+02
1.740000e-06	3.486405e-06	7.482819e-09	2.330394e+01	4.913631e+02
1.750000e-06	3.475472e-06	7.443491e-09	2.323086e+01	4.901406e+02
1.760000e-06	3.462213e-06	7.470410e-09	2.314223e+01	4.888550e+02
1.770000e-06	3.447159e-06	7.623780e-09	2.304161e+01	4.875102e+02
1.780000e-06	3.431606e-06	7.509919e-09	2.293765e+01	4.861099e+02
1.790000e-06	3.415787e-06	7.270557e-09	2.283191e+01	4.846572e+02
1.800000e-06	3.398645e-06	7.496300e-09	2.271733e+01	4.831548e+02
1.810000e-06	3.379960e-06	7.516214e-09	2.259244e+01	4.816052e+02
1.820000e-06	3.360637e-06	7.266256e-09	2.246327e+01	4.800105e+02
1.830000e-06	3.340304e-06	7.396463e-09	2.232737e+01	4.783723e+02
1.840000e-06	3.318184e-06	7.504567e-09	2.217951e+01	4.766919e+02
1.850000e-06	3.294826e-06	7.162747e-09	2.202338e+01	4.749700e+02
1.860000e-06	3.270519e-06	7.274429e-09	2.186091e+01	4.732072e+02
1.870000e-06	3.244901e-06	7.519283e-09	2.168967e+01	4.714035e+02
1.880000e-06	3.218232e-06	7.162732e-09	2.151141e+01	4.695586e+02
1.890000e-06	3.190565e-06	7.123406e-09	2.132648e+01	4.676717e+02
1.900000e-06	3.161490e-06	7.317945e-09	2.113213e+01	4.657417e+02
1.910000e-06	3.131198e-06	7.140156e-09	2.092965e+01	4.637670e+02
1.920000e-06	3.099726e-06	7.184660e-09	2.071929e+01	4.617459e+02
1.930000e-06	3.067097e-06	7.128472e-09	2.050119e+01	4.596760e+02
1.940000e-06	3.033693e-06	6.929549e-09	2.027790e+01	4.575547e+02
1.950000e-06	2.999310e-06	7.126215e-09	2.004809e+01	4.553792e+02
1.960000e-06	2.963951e-06	7.034891e-09	1.981174e+01	4.531460e+02
1.970000e-06	2.927716e-06	6.823855e-09	1.956954e+01	4.508516e+02
1.980000e-06	2.890129e-06	6.932436e-09	1.931829e+01	4.484921e+02
1.990000e-06	2.851223e-06	6.827911e-09	1.905824e+01	4.460633e+02
2.000000e-06	2.811395e-06	6.771073e-09	1.879201e+01	4.435608e+02
2.010000e-06	2.770632e-06	6.859303e-09	1.851955e+01	4.409798e+02
2.020000e-06	2.728931e-06	6.661764e-09	1.824081e+01	4.383154e+02
2.030000e-06	2.686306e-06	6.594100e-09	1.795589e+01	4.355625e+02
2.040000e-06	2.642919e-06	6.630281e-09	1.766588e+01	4.327157e+02
2.050000e-06	2.598790e-06	6.579369e-09	1.737092e+01	4.297695e+02
2.060000e-06	2.553552e-06	6.516172e-09	1.706853e+01	4.267184e+02
2.070000e-06	2.507314e-06	6.371914e-09	1.675947e+01	4.235565e+02
2.080000e-06	2.460240e-06	6.358119e-09	1.644481e+01	4.202780e+02
2.090000e-06	2.412251e-06	6.342294e-09	1.612404e+01	4.168770e+02
2.100000e-06	2.363320e-06	6.259275e-09	1.579698e+01	4.133475e+02
2.110000e-06	2.313422e-06	6.186475e-09	1.546345e+01	4.096836e+02
2.120000e-06	2.262762e-06	6.070811e-09	1.512483e+01	4.058792e+02
2.130000e-06	2.211351e-06	6.059993e-09	1.478118e+01	4.019285e+02
2.140000e-06	2.158857e-06	6.023790e-09	1.443030e+01	3.978255e+02
2.150000e-06	2.105132e-06	5.908358e-09	1.407119e+01	3.935644e+02
2.160000e-06	2.050424e-06	5.825262e-09	1.370551e+01	3.891396e+02
2.170000e-06	1.995135e-06	5.729743e-09	1.333594e+01	3.845455e+02
2.180000e-06	1.939312e-06	5.699638e-09	1.296281e+01	3.797767e+02
2.190000e-06	1.882841e-06	5.648192e-09	1.258535e+01	3.748279e+02
2.200000e-06	1.825741e-06	5.503984e-09	1.220368e+01	3.696941e+02
2.210000e-06	1.767928e-06	5.418029e-09	1.181724e+01	3.643707e+02
2.220000e-06	1.709451e-06	5.350138e-09	1.142637e+01	3.588530e+02
2.230000e-06	1.650498e-06	5.295294e-09	1.103231e+01	3.531368e+02
2.240000e-06	1.591146e-06	5.201271e-09	1.063559e+01	3.472181e+02
2.250000e-06	1.531398e-06	5.062734e-09	1.023622e+01	3.410934e+02
2.260000e-06	1.471044e-06	4.982599e-09	9.832798e+00	3.347593e+02
2.270000e-06	1.409860e-06	4.902164e-09	9.423828e+00	3.282129e+02
2.280000e-06	1.347844e-06	4.823909e-09	9.009304e+00	3.214516e+02
2.290000e-06	1.285202e-06	4.694907e-09	8.590591e+00	3.144733e+02
2.300000e-06	1.222174e-06	4.554578e-09	8.169294e+00	3.072762e+02
2.310000e-06	1.158867e-06	4.473645e-09	7.746138e+00	2.998589e+02
2.320000e-06	1.095301e-06	4.388457e-09	7.321246e+00	2.922206e+02
2.330000e-06	1.031408e-06	4.280228e-09	6.894168e+00	2.843608e+02
2.340000e-06	9.671323e-07	4.137371e-09	6.464537e+00	2.762795e+02
2.350000e-06	9.024555e-07	4.014609e-09	6.032222e+00	2.679772e+02
2.360000e-06	8.374645e-07	3.926216e-09	5.597807e+00	2.594548e+02
2.370000e-06	7.722089e-07	3.813857e-09	5.161623e+00	2.507137e+02
2.380000e-06	7.067095e-07	3.670500e-09	4.723810e+00	2.417558e+02
2.390000e-06	6.409991e-07	3.522616e-09	4.284586e+00	2.325836e+02
2.400000e-06	5.750547e-07	3.400225e-09	3.843799e+00	2.231998e+02
2.410000e-06	5.088659e-07	3.292462e-09	3.401378e+00	2.136080e+02
2.420000e-06	4.425004e-07	3.157528e-09	2.957775e+00	2.038119e+02
2.430000e-06	3.760137e-07	2.998451e-09	2.513363e+00	1.938158e+02
2.440000e-06	3.093728e-07	2.849056e-09	2.067919e+00	1.836247e+02
2.450000e-06	2.426307e-07	2.721063e-09	1.621800e+00	1.732438e+02
2.460000e-06	1.757897e-07	2.587976e-09	1.175019e+00	1.626789e+02
2.470000e-06	1.088965e-07	2.422305e-09	7.278895e-01	1.519362e+02
2.480000e-06	4.198520e-08	2.246651e-09	2.806388e-01	1.410225e+02
2.490000e-06	-2.495958e-08	2.087083e-09	-1.668356e-01	1.299448e+02
2.500000e-06	-9.184598e-08	1.943565e-09	-6.139198e-01	1.187106e+02
2.510000e-06	-1.586622e-07	1.785568e-09	-1.060535e+00	1.073280e+02
2.520000e-06	-2.254573e-07	1.604644e-09	-1.507009e+00	9.580529e+01
2.530000e-06	-2.921606e-07	1.429227e-09	-1.952869e+00	8.415121e+01
2.540000e-06	-3.587302e-07	1.266748e-09	-2.397836e+00	7.237485e+01
2.550000e-06	-4.251853e-07	1.102987e-09	-2.842037e+00	6.048566e+01
2.560000e-06	-4.914544e-07	9.154435e-10	-3.284995e+00	4.849338e+01
2.570000e-06	-5.575297e-07	7.132971e-10	-3.726658e+00	3.640808e+01
2.580000e-06	-6.233817e-07	5.227022e-10	-4.166828e+00	2.424009e+01
2.590000e-06	-6.889629e-07	3.457147e-10	-4.605187e+00	1.200000e+01
2.600000e-06	-7.543470e-07	1.576367e-10	-5.042230e+00	-3.013536e-01
2.610000e-06	-8.195407e-07	-5.057927e-11	-5.478000e+00	-1.265295e+01
2.620000e-06	-8.844638e-07	-2.570090e-10	-5.911961e+00	-2.504358e+01
2.630000e-06	-9.490182e-07	-4.472544e-10	-6.343458e+00	-3.746187e+01
2.640000e-06	-1.013126e-06	-6.331536e-10	-6.771972e+00	-4.989632e+01
2.650000e-06	-1.076862e-06	-8.383967e-10	-7.197996e+00	-6.233535e+01
2.660000e-06	-1.140340e-06	-1.056826e-09	-7.622297e+00	-7.476727e+01
2.670000e-06	-1.203594e-06	-1.268063e-09	-8.045099e+00	-8.718036e+01
2.680000e-06	-1.266549e-06	-1.465524e-09	-8.465908e+00	-9.956288e+01
2.690000e-06	-1.329049e-06	-1.666709e-09	-8.883669e+00	-1.119031e+02
2.700000e-06	-1.390957e-06	-1.882185e-09	-9.297481e+00	-1.241893e+02
2.710000e-06	-1.452153e-06	-2.097334e-09	-9.706527e+00	-1.364099e+02
2.720000e-06	-1.512578e-06	-2.298059e-09	-1.011043e+01	-1.485533e+02
2.730000e-06	-1.572339e-06	-2.487097e-09	-1.050988e+01	-1.606081e+02
2.740000e-06	-1.631646e-06	-2.686068e-09	-1.090630e+01	-1.725630e+02
2.750000e-06	-1.690577e-06	-2.895564e-09	-1.130021e+01	-1.844069e+02
2.760000e-06	-1.748933e-06	-3.098211e-09	-1.169027e+01	-1.961288e+02
2.770000e-06	-1.806643e-06	-3.284125e-09	-1.207602e+01	-2.077182e+02
2.780000e-06	-1.863742e-06	-3.464710e-09	-1.245769e+01	-2.191645e+02
2.790000e-06	-1.920159e-06	-3.653710e-09	-1.283478e+01	-2.304576e+02
2.800000e-06	-1.975916e-06	-3.842380e-09	-1.320748e+01	-2.415875e+02
2.810000e-06	-2.031119e-06	-4.015078e-09	-1.357647e+01	-2.525448e+02
2.820000e-06	-2.085614e-06	-4.172665e-09	-1.394072e+01	-2.633201e+02
2.830000e-06	-2.139054e-06	-4.330481e-09	-1.429793e+01	-2.739048e+02
2.840000e-06	-2.191384e-06	-4.493636e-09	-1.464772e+01	-2.842901e+02
2.850000e-06	-2.242836e-06	-4.652935e-09	-1.499164e+01	-2.944681e+02
2.860000e-06	-2.293492e-06	-4.798354e-09	-1.533023e+01	-3.044311e+02
2.870000e-06	-2.343300e-06	-4.936246e-09	-1.566316e+01	-3.141717e+02
2.880000e-06	-2.392226e-06	-5.077902e-09	-1.599019e+01	-3.236833e+02
2.890000e-06	-2.440010e-06	-5.220709e-09	-1.630959e+01	-3.329595e+02
2.900000e-06	-2.486596e-06	-5.352214e-09	-1.662098e+01	-3.419943e+02
2.910000e-06	-2.532305e-06	-5.469874e-09	-1.692651e+01	-3.507824e+02
2.920000e-06	-2.577217e-06	-5.583177e-09	-1.722672e+01	-3.593189e+02
2.930000e-06	-2.621287e-06	-5.698163e-09	-1.752129e+01	-3.675992e+02
2.940000e-06	-2.664691e-06	-5.810550e-09	-1.781141e+01	-3.756196e+02
