# Temperatura_=_20.0
# Concentracion g/m^3_=_10000.0
# C_Vs_to_Am_M_A/Vsm_=_65563218390.804596
# pendiente_HvsI_1/m_=_3716.3
# ordenada_HvsI_A/m_=_1297.0
# frecuencia_Hz_=_301414.78946147906

Tiempo_(s)	Campo_(V.s)	Magnetizacion_(V.s)	Campo_(kA/m)	Magnetizacion_(A/m)
0.000000e+00	-2.416422e-06	-5.207949e-09	-1.613566e+01	-3.414021e+02
1.000000e-08	-2.416028e-06	-5.211329e-09	-1.613303e+01	-3.417542e+02
2.000000e-08	-2.415017e-06	-5.213528e-09	-1.612628e+01	-3.420146e+02
3.000000e-08	-2.413097e-06	-5.215973e-09	-1.611346e+01	-3.421677e+02
4.000000e-08	-2.410080e-06	-5.217955e-09	-1.609331e+01	-3.422094e+02
5.000000e-08	-2.406127e-06	-5.218440e-09	-1.606692e+01	-3.421465e+02
6.000000e-08	-2.401476e-06	-5.219579e-09	-1.603586e+01	-3.419853e+02
7.000000e-08	-2.396094e-06	-5.212830e-09	-1.599992e+01	-3.417223e+02
8.000000e-08	-2.389760e-06	-5.199566e-09	-1.595762e+01	-3.413475e+02
9.000000e-08	-2.382392e-06	-5.201442e-09	-1.590842e+01	-3.408594e+02
1.000000e-07	-2.374230e-06	-5.212440e-09	-1.585392e+01	-3.402801e+02
1.100000e-07	-2.365613e-06	-5.179149e-09	-1.579638e+01	-3.396541e+02
1.200000e-07	-2.356372e-06	-5.147008e-09	-1.573468e+01	-3.390280e+02
1.300000e-07	-2.345899e-06	-5.176830e-09	-1.566474e+01	-3.384206e+02
1.400000e-07	-2.334109e-06	-5.189920e-09	-1.558601e+01	-3.378060e+02
1.500000e-07	-2.321482e-06	-5.136232e-09	-1.550170e+01	-3.371224e+02
1.600000e-07	-2.308086e-06	-5.109049e-09	-1.541224e+01	-3.363054e+02
1.700000e-07	-2.293704e-06	-5.143522e-09	-1.531621e+01	-3.353245e+02
1.800000e-07	-2.278399e-06	-5.104243e-09	-1.521401e+01	-3.341981e+02
1.900000e-07	-2.262294e-06	-5.045080e-09	-1.510647e+01	-3.329770e+02
2.000000e-07	-2.245142e-06	-5.083335e-09	-1.499194e+01	-3.317060e+02
2.100000e-07	-2.226931e-06	-5.074982e-09	-1.487033e+01	-3.303899e+02
2.200000e-07	-2.208117e-06	-4.986224e-09	-1.474470e+01	-3.289891e+02
2.300000e-07	-2.188743e-06	-4.989102e-09	-1.461533e+01	-3.274474e+02
2.400000e-07	-2.168594e-06	-5.003357e-09	-1.448079e+01	-3.257339e+02
2.500000e-07	-2.147705e-06	-4.920434e-09	-1.434130e+01	-3.238696e+02
2.600000e-07	-2.126221e-06	-4.882528e-09	-1.419785e+01	-3.219193e+02
2.700000e-07	-2.104047e-06	-4.901115e-09	-1.404978e+01	-3.199523e+02
2.800000e-07	-2.081038e-06	-4.856895e-09	-1.389613e+01	-3.179982e+02
2.900000e-07	-2.057296e-06	-4.807046e-09	-1.373760e+01	-3.160276e+02
3.000000e-07	-2.032982e-06	-4.811166e-09	-1.357524e+01	-3.139714e+02
3.100000e-07	-2.008079e-06	-4.761975e-09	-1.340895e+01	-3.117665e+02
3.200000e-07	-1.982436e-06	-4.697719e-09	-1.323772e+01	-3.093974e+02
3.300000e-07	-1.955756e-06	-4.687000e-09	-1.305956e+01	-3.069075e+02
3.400000e-07	-1.928032e-06	-4.659431e-09	-1.287443e+01	-3.043716e+02
3.500000e-07	-1.899689e-06	-4.594313e-09	-1.268517e+01	-3.018485e+02
3.600000e-07	-1.870912e-06	-4.553925e-09	-1.249302e+01	-2.993448e+02
3.700000e-07	-1.841528e-06	-4.540285e-09	-1.229680e+01	-2.968122e+02
3.800000e-07	-1.811408e-06	-4.503239e-09	-1.209568e+01	-2.941788e+02
3.900000e-07	-1.780642e-06	-4.446132e-09	-1.189024e+01	-2.913933e+02
4.000000e-07	-1.749318e-06	-4.393074e-09	-1.168107e+01	-2.884529e+02
4.100000e-07	-1.717469e-06	-4.356380e-09	-1.146840e+01	-2.853987e+02
4.200000e-07	-1.685183e-06	-4.309731e-09	-1.125281e+01	-2.822850e+02
4.300000e-07	-1.652437e-06	-4.258536e-09	-1.103415e+01	-2.791429e+02
4.400000e-07	-1.618969e-06	-4.208848e-09	-1.081067e+01	-2.759633e+02
4.500000e-07	-1.584637e-06	-4.153632e-09	-1.058141e+01	-2.727064e+02
4.600000e-07	-1.549457e-06	-4.108257e-09	-1.034650e+01	-2.693313e+02
4.700000e-07	-1.513564e-06	-4.068233e-09	-1.010682e+01	-2.658213e+02
4.800000e-07	-1.477265e-06	-4.009853e-09	-9.864438e+00	-2.621924e+02
4.900000e-07	-1.440700e-06	-3.938993e-09	-9.620278e+00	-2.584795e+02
5.000000e-07	-1.403681e-06	-3.881064e-09	-9.373083e+00	-2.547140e+02
5.100000e-07	-1.366038e-06	-3.831934e-09	-9.121720e+00	-2.509079e+02
5.200000e-07	-1.327865e-06	-3.780821e-09	-8.866819e+00	-2.470535e+02
5.300000e-07	-1.289304e-06	-3.714142e-09	-8.609332e+00	-2.431365e+02
5.400000e-07	-1.250374e-06	-3.645644e-09	-8.349371e+00	-2.391489e+02
5.500000e-07	-1.210967e-06	-3.589827e-09	-8.086235e+00	-2.350928e+02
5.600000e-07	-1.171078e-06	-3.533484e-09	-7.819875e+00	-2.309740e+02
5.700000e-07	-1.130870e-06	-3.467114e-09	-7.551387e+00	-2.267918e+02
5.800000e-07	-1.090479e-06	-3.392838e-09	-7.281673e+00	-2.225367e+02
5.900000e-07	-1.049853e-06	-3.323324e-09	-7.010396e+00	-2.181976e+02
6.000000e-07	-1.008827e-06	-3.264111e-09	-6.736443e+00	-2.137729e+02
6.100000e-07	-9.672473e-07	-3.204174e-09	-6.458795e+00	-2.092757e+02
6.200000e-07	-9.251155e-07	-3.127871e-09	-6.177459e+00	-2.047257e+02
6.300000e-07	-8.824339e-07	-3.049163e-09	-5.892453e+00	-2.001328e+02
6.400000e-07	-8.391793e-07	-2.981613e-09	-5.603620e+00	-1.954835e+02
6.500000e-07	-7.954886e-07	-2.917581e-09	-5.311876e+00	-1.907434e+02
6.600000e-07	-7.515151e-07	-2.845373e-09	-5.018243e+00	-1.858754e+02
6.700000e-07	-7.074109e-07	-2.761850e-09	-4.723737e+00	-1.808645e+02
6.800000e-07	-6.632094e-07	-2.679534e-09	-4.428581e+00	-1.757317e+02
6.900000e-07	-6.188658e-07	-2.605613e-09	-4.132477e+00	-1.705261e+02
7.000000e-07	-5.743864e-07	-2.532741e-09	-3.835465e+00	-1.652982e+02
7.100000e-07	-5.297396e-07	-2.448657e-09	-3.537337e+00	-1.600714e+02
7.200000e-07	-4.849015e-07	-2.360588e-09	-3.237930e+00	-1.548283e+02
7.300000e-07	-4.399115e-07	-2.279740e-09	-2.937510e+00	-1.495229e+02
7.400000e-07	-3.947343e-07	-2.204072e-09	-2.635839e+00	-1.441094e+02
7.500000e-07	-3.493601e-07	-2.124236e-09	-2.332852e+00	-1.385687e+02
7.600000e-07	-3.038822e-07	-2.033825e-09	-2.029174e+00	-1.329173e+02
7.700000e-07	-2.582961e-07	-1.941102e-09	-1.724773e+00	-1.271918e+02
7.800000e-07	-2.125685e-07	-1.855069e-09	-1.419426e+00	-1.214219e+02
7.900000e-07	-1.667752e-07	-1.773861e-09	-1.113642e+00	-1.156107e+02
8.000000e-07	-1.209766e-07	-1.684149e-09	-8.078214e-01	-1.097353e+02
8.100000e-07	-7.517747e-08	-1.585700e-09	-5.019976e-01	-1.037653e+02
8.200000e-07	-2.932929e-08	-1.491923e-09	-1.958464e-01	-9.768488e+01
8.300000e-07	1.661293e-08	-1.404467e-09	1.109328e-01	-9.150222e+01
8.400000e-07	6.254373e-08	-1.312613e-09	4.176358e-01	-8.523908e+01
8.500000e-07	1.083954e-07	-1.210156e-09	7.238105e-01	-7.891005e+01
8.600000e-07	1.542276e-07	-1.106382e-09	1.029855e+00	-7.250775e+01
8.700000e-07	2.000419e-07	-1.009621e-09	1.335780e+00	-6.600622e+01
8.800000e-07	2.457366e-07	-9.148476e-10	1.640907e+00	-5.938073e+01
8.900000e-07	2.912978e-07	-8.108050e-10	1.945141e+00	-5.262911e+01
9.000000e-07	3.367233e-07	-7.006923e-10	2.248470e+00	-4.577779e+01
9.100000e-07	3.819674e-07	-5.936257e-10	2.550587e+00	-3.886657e+01
9.200000e-07	4.270844e-07	-4.905163e-10	2.851856e+00	-3.192183e+01
9.300000e-07	4.720709e-07	-3.877290e-10	3.152254e+00	-2.493753e+01
9.400000e-07	5.168606e-07	-2.792350e-10	3.451337e+00	-1.787869e+01
9.500000e-07	5.614714e-07	-1.666213e-10	3.749225e+00	-1.070635e+01
9.600000e-07	6.059572e-07	-5.610471e-11	4.046280e+00	-3.407370e+00
9.700000e-07	6.503256e-07	5.311242e-11	4.342550e+00	3.991969e+00
9.800000e-07	6.945959e-07	1.669365e-10	4.638165e+00	1.143899e+01
9.900000e-07	7.387702e-07	2.846482e-10	4.933138e+00	1.888639e+01
1.000000e-06	7.827812e-07	4.011037e-10	5.227022e+00	2.632158e+01
1.010000e-06	8.265384e-07	5.126125e-10	5.519211e+00	3.377349e+01
1.020000e-06	8.699562e-07	6.244478e-10	5.809134e+00	4.129199e+01
1.030000e-06	9.128791e-07	7.435133e-10	6.095751e+00	4.891348e+01
1.040000e-06	9.552120e-07	8.639080e-10	6.378429e+00	5.663517e+01
1.050000e-06	9.968794e-07	9.806508e-10	6.656663e+00	6.441453e+01
1.060000e-06	1.037939e-06	1.095981e-09	6.930841e+00	7.219314e+01
1.070000e-06	1.078611e-06	1.214196e-09	7.202425e+00	7.992847e+01
1.080000e-06	1.119008e-06	1.335409e-09	7.472179e+00	8.761306e+01
1.090000e-06	1.159190e-06	1.455212e-09	7.740492e+00	9.527024e+01
1.100000e-06	1.199126e-06	1.571483e-09	8.007163e+00	1.029318e+02
1.110000e-06	1.238668e-06	1.687519e-09	8.271208e+00	1.106138e+02
1.120000e-06	1.277701e-06	1.806454e-09	8.531847e+00	1.183056e+02
1.130000e-06	1.316259e-06	1.926755e-09	8.789323e+00	1.259768e+02
1.140000e-06	1.354381e-06	2.044078e-09	9.043883e+00	1.335941e+02
1.150000e-06	1.392037e-06	2.156398e-09	9.295326e+00	1.411353e+02
1.160000e-06	1.429155e-06	2.268928e-09	9.543186e+00	1.485926e+02
1.170000e-06	1.465812e-06	2.385577e-09	9.787959e+00	1.559661e+02
1.180000e-06	1.502163e-06	2.500202e-09	1.003069e+01	1.632562e+02
1.190000e-06	1.538199e-06	2.608776e-09	1.027132e+01	1.704595e+02
1.200000e-06	1.573672e-06	2.715211e-09	1.050820e+01	1.775711e+02
1.210000e-06	1.608364e-06	2.823123e-09	1.073985e+01	1.845869e+02
1.220000e-06	1.642194e-06	2.931713e-09	1.096575e+01	1.915014e+02
1.230000e-06	1.675204e-06	3.037243e-09	1.118618e+01	1.983030e+02
1.240000e-06	1.707642e-06	3.137240e-09	1.140278e+01	2.049713e+02
1.250000e-06	1.739644e-06	3.234914e-09	1.161647e+01	2.114824e+02
1.260000e-06	1.771135e-06	3.334171e-09	1.182675e+01	2.178208e+02
1.270000e-06	1.802016e-06	3.431255e-09	1.203296e+01	2.239891e+02
1.280000e-06	1.832270e-06	3.522576e-09	1.223498e+01	2.300068e+02
1.290000e-06	1.861881e-06	3.610626e-09	1.243271e+01	2.358963e+02
1.300000e-06	1.890852e-06	3.698051e-09	1.262617e+01	2.416628e+02
1.310000e-06	1.919316e-06	3.784735e-09	1.281623e+01	2.472846e+02
1.320000e-06	1.947300e-06	3.869454e-09	1.300310e+01	2.527211e+02
1.330000e-06	1.974599e-06	3.948434e-09	1.318539e+01	2.579366e+02
1.340000e-06	2.000948e-06	4.021979e-09	1.336133e+01	2.629244e+02
1.350000e-06	2.026280e-06	4.094712e-09	1.353049e+01	2.677144e+02
1.360000e-06	2.050791e-06	4.166808e-09	1.369416e+01	2.723555e+02
1.370000e-06	2.074649e-06	4.235009e-09	1.385347e+01	2.768859e+02
1.380000e-06	2.097822e-06	4.299365e-09	1.400821e+01	2.813076e+02
1.390000e-06	2.120279e-06	4.362998e-09	1.415817e+01	2.855854e+02
1.400000e-06	2.142026e-06	4.427151e-09	1.430338e+01	2.896690e+02
1.410000e-06	2.163062e-06	4.488156e-09	1.444385e+01	2.935258e+02
1.420000e-06	2.183488e-06	4.542120e-09	1.458024e+01	2.971597e+02
1.430000e-06	2.203310e-06	4.592311e-09	1.471261e+01	3.006062e+02
1.440000e-06	2.222375e-06	4.642827e-09	1.483991e+01	3.039074e+02
1.450000e-06	2.240548e-06	4.691164e-09	1.496126e+01	3.070846e+02
1.460000e-06	2.257887e-06	4.734889e-09	1.507704e+01	3.101291e+02
1.470000e-06	2.274418e-06	4.775283e-09	1.518743e+01	3.130154e+02
1.480000e-06	2.290026e-06	4.816054e-09	1.529165e+01	3.157247e+02
1.490000e-06	2.304708e-06	4.857877e-09	1.538969e+01	3.182621e+02
1.500000e-06	2.318568e-06	4.896960e-09	1.548224e+01	3.206525e+02
1.510000e-06	2.331665e-06	4.931313e-09	1.556969e+01	3.229216e+02
1.520000e-06	2.343917e-06	4.961475e-09	1.565150e+01	3.250756e+02
1.530000e-06	2.355154e-06	4.991029e-09	1.572654e+01	3.270973e+02
1.540000e-06	2.365268e-06	5.019993e-09	1.579408e+01	3.289624e+02
1.550000e-06	2.374288e-06	5.044935e-09	1.585431e+01	3.306622e+02
1.560000e-06	2.382479e-06	5.067095e-09	1.590901e+01	3.322166e+02
1.570000e-06	2.390008e-06	5.088721e-09	1.595928e+01	3.336654e+02
1.580000e-06	2.396718e-06	5.110110e-09	1.600408e+01	3.350430e+02
1.590000e-06	2.402590e-06	5.130397e-09	1.604329e+01	3.363555e+02
1.600000e-06	2.407668e-06	5.149507e-09	1.607721e+01	3.375750e+02
1.610000e-06	2.412070e-06	5.166208e-09	1.610660e+01	3.386576e+02
1.620000e-06	2.415777e-06	5.180726e-09	1.613135e+01	3.395711e+02
1.630000e-06	2.418407e-06	5.192887e-09	1.614892e+01	3.403149e+02
1.640000e-06	2.419856e-06	5.201527e-09	1.615859e+01	3.409179e+02
1.650000e-06	2.420397e-06	5.207327e-09	1.616220e+01	3.414179e+02
1.660000e-06	2.420278e-06	5.212738e-09	1.616141e+01	3.418396e+02
1.670000e-06	2.419400e-06	5.219978e-09	1.615554e+01	3.421832e+02
1.680000e-06	2.417743e-06	5.226232e-09	1.614448e+01	3.424333e+02
1.690000e-06	2.415371e-06	5.229187e-09	1.612864e+01	3.425749e+02
1.700000e-06	2.412245e-06	5.228298e-09	1.610777e+01	3.426055e+02
1.710000e-06	2.408496e-06	5.223660e-09	1.608274e+01	3.425324e+02
1.720000e-06	2.404063e-06	5.216822e-09	1.605313e+01	3.423613e+02
1.730000e-06	2.398689e-06	5.222093e-09	1.601725e+01	3.420873e+02
1.740000e-06	2.392120e-06	5.220368e-09	1.597338e+01	3.417007e+02
1.750000e-06	2.384275e-06	5.180116e-09	1.592100e+01	3.412018e+02
1.760000e-06	2.375342e-06	5.187143e-09	1.586135e+01	3.406156e+02
1.770000e-06	2.365835e-06	5.203577e-09	1.579787e+01	3.399882e+02
1.780000e-06	2.356124e-06	5.184472e-09	1.573302e+01	3.393645e+02
1.790000e-06	2.345722e-06	5.135154e-09	1.566356e+01	3.387589e+02
1.800000e-06	2.333945e-06	5.140694e-09	1.558492e+01	3.381408e+02
1.810000e-06	2.321166e-06	5.170026e-09	1.549959e+01	3.374462e+02
1.820000e-06	2.308003e-06	5.117625e-09	1.541169e+01	3.366128e+02
1.830000e-06	2.293786e-06	5.095616e-09	1.531676e+01	3.356151e+02
1.840000e-06	2.278159e-06	5.128435e-09	1.521241e+01	3.344765e+02
1.850000e-06	2.261854e-06	5.090601e-09	1.510353e+01	3.332489e+02
1.860000e-06	2.245048e-06	5.014539e-09	1.499131e+01	3.319742e+02
1.870000e-06	2.227294e-06	5.049563e-09	1.487276e+01	3.306521e+02
1.880000e-06	2.208530e-06	5.055841e-09	1.474746e+01	3.292394e+02
1.890000e-06	2.189178e-06	4.962365e-09	1.461824e+01	3.276805e+02
1.900000e-06	2.169341e-06	4.955432e-09	1.448577e+01	3.259494e+02
1.910000e-06	2.148687e-06	4.990930e-09	1.434786e+01	3.240729e+02
1.920000e-06	2.126994e-06	4.907288e-09	1.420300e+01	3.221184e+02
1.930000e-06	2.104293e-06	4.860658e-09	1.405142e+01	3.201529e+02
1.940000e-06	2.080845e-06	4.873129e-09	1.389485e+01	3.182000e+02
1.950000e-06	2.056777e-06	4.808321e-09	1.373413e+01	3.162244e+02
1.960000e-06	2.031932e-06	4.768188e-09	1.356823e+01	3.141553e+02
1.970000e-06	2.006405e-06	4.784259e-09	1.339777e+01	3.119329e+02
1.980000e-06	1.980274e-06	4.724773e-09	1.322328e+01	3.095485e+02
1.990000e-06	1.953389e-06	4.656286e-09	1.304376e+01	3.070505e+02
2.000000e-06	1.925933e-06	4.651751e-09	1.286042e+01	3.045144e+02
2.010000e-06	1.897990e-06	4.619731e-09	1.267383e+01	3.019947e+02
2.020000e-06	1.869181e-06	4.565999e-09	1.248146e+01	2.994915e+02
2.030000e-06	1.839346e-06	4.517586e-09	1.228223e+01	2.969521e+02
2.040000e-06	1.808711e-06	4.473628e-09	1.207767e+01	2.943047e+02
2.050000e-06	1.777472e-06	4.450448e-09	1.186907e+01	2.915024e+02
2.060000e-06	1.745710e-06	4.404333e-09	1.165698e+01	2.885477e+02
2.070000e-06	1.713414e-06	4.341939e-09	1.144132e+01	2.854852e+02
2.080000e-06	1.680495e-06	4.308269e-09	1.122151e+01	2.823682e+02
2.090000e-06	1.647041e-06	4.264788e-09	1.099812e+01	2.792238e+02
2.100000e-06	1.613093e-06	4.208915e-09	1.077143e+01	2.760386e+02
2.110000e-06	1.578541e-06	4.164240e-09	1.054071e+01	2.727714e+02
2.120000e-06	1.543468e-06	4.102050e-09	1.030651e+01	2.693825e+02
2.130000e-06	1.508033e-06	4.042021e-09	1.006989e+01	2.658591e+02
2.140000e-06	1.472230e-06	3.996969e-09	9.830816e+00	2.622199e+02
2.150000e-06	1.435896e-06	3.945056e-09	9.588198e+00	2.585007e+02
2.160000e-06	1.398824e-06	3.886009e-09	9.340646e+00	2.547313e+02
2.170000e-06	1.360835e-06	3.816851e-09	9.086975e+00	2.509211e+02
2.180000e-06	1.322058e-06	3.756916e-09	8.828042e+00	2.470612e+02
2.190000e-06	1.282835e-06	3.710371e-09	8.566132e+00	2.431374e+02
2.200000e-06	1.243346e-06	3.648089e-09	8.302443e+00	2.391427e+02
2.210000e-06	1.203590e-06	3.575597e-09	8.036976e+00	2.350802e+02
2.220000e-06	1.163499e-06	3.512609e-09	7.769263e+00	2.309554e+02
2.230000e-06	1.123000e-06	3.454899e-09	7.498833e+00	2.267665e+02
2.240000e-06	1.082044e-06	3.398476e-09	7.225350e+00	2.225034e+02
2.250000e-06	1.040682e-06	3.327891e-09	6.949158e+00	2.181555e+02
2.260000e-06	9.990324e-07	3.248005e-09	6.671039e+00	2.137227e+02
2.270000e-06	9.570950e-07	3.183542e-09	6.391003e+00	2.092194e+02
2.280000e-06	9.147778e-07	3.123163e-09	6.108429e+00	2.046653e+02
2.290000e-06	8.720625e-07	3.054226e-09	5.823198e+00	2.000680e+02
2.300000e-06	8.289957e-07	2.975543e-09	5.535619e+00	1.954114e+02
2.310000e-06	7.857287e-07	2.896383e-09	5.246704e+00	1.906597e+02
2.320000e-06	7.423545e-07	2.828292e-09	4.957073e+00	1.857771e+02
2.330000e-06	6.988570e-07	2.758996e-09	4.666618e+00	1.807520e+02
2.340000e-06	6.552419e-07	2.675638e-09	4.375378e+00	1.756093e+02
2.350000e-06	6.114765e-07	2.587698e-09	4.083135e+00	1.703997e+02
2.360000e-06	5.675492e-07	2.508736e-09	3.789810e+00	1.651721e+02
2.370000e-06	5.234106e-07	2.438083e-09	3.495075e+00	1.599456e+02
2.380000e-06	4.790749e-07	2.362618e-09	3.199023e+00	1.546988e+02
2.390000e-06	4.346161e-07	2.274782e-09	2.902149e+00	1.493843e+02
2.400000e-06	3.898721e-07	2.185784e-09	2.603371e+00	1.439579e+02
2.410000e-06	3.448228e-07	2.103362e-09	2.302555e+00	1.384046e+02
2.420000e-06	2.996587e-07	2.024092e-09	2.000971e+00	1.327440e+02
2.430000e-06	2.544313e-07	1.936482e-09	1.698965e+00	1.270132e+02
2.440000e-06	2.090920e-07	1.838753e-09	1.396212e+00	1.212398e+02
2.450000e-06	1.636277e-07	1.747218e-09	1.092624e+00	1.154237e+02
2.460000e-06	1.180822e-07	1.665160e-09	7.884940e-01	1.095401e+02
2.470000e-06	7.251730e-08	1.579853e-09	4.842344e-01	1.035591e+02
2.480000e-06	2.690539e-08	1.481591e-09	1.796607e-01	9.746750e+01
2.490000e-06	-1.869305e-08	1.379802e-09	-1.248229e-01	9.127566e+01
2.500000e-06	-6.422273e-08	1.286535e-09	-4.288473e-01	8.500562e+01
2.510000e-06	-1.097511e-07	1.197506e-09	-7.328633e-01	7.867007e+01
2.520000e-06	-1.551970e-07	1.101093e-09	-1.036328e+00	7.225910e+01
2.530000e-06	-2.005553e-07	9.956357e-10	-1.339208e+00	6.574577e+01
2.540000e-06	-2.459083e-07	8.913850e-10	-1.642053e+00	5.910688e+01
2.550000e-06	-2.912318e-07	7.927827e-10	-1.944701e+00	5.234343e+01
2.560000e-06	-3.363877e-07	6.934030e-10	-2.246229e+00	4.548434e+01
2.570000e-06	-3.813744e-07	5.858260e-10	-2.546628e+00	3.856929e+01
2.580000e-06	-4.262037e-07	4.746207e-10	-2.845976e+00	3.162177e+01
2.590000e-06	-4.707206e-07	3.686337e-10	-3.143237e+00	2.463203e+01
2.600000e-06	-5.149582e-07	2.662131e-10	-3.438634e+00	1.756321e+01
2.610000e-06	-5.590075e-07	1.572633e-10	-3.732773e+00	1.037781e+01
2.620000e-06	-6.028410e-07	3.968231e-11	-4.025471e+00	3.066690e+00
2.630000e-06	-6.464812e-07	-7.689601e-11	-4.316879e+00	-4.339936e+00
2.640000e-06	-6.900022e-07	-1.867366e-10	-4.607490e+00	-1.178829e+01
2.650000e-06	-7.334657e-07	-2.949268e-10	-4.897718e+00	-1.923367e+01
2.660000e-06	-7.768578e-07	-4.079930e-10	-5.187469e+00	-2.666810e+01
2.670000e-06	-8.200856e-07	-5.246889e-10	-5.476122e+00	-3.412415e+01
2.680000e-06	-8.631148e-07	-6.394506e-10	-5.763450e+00	-4.165195e+01
2.690000e-06	-9.059064e-07	-7.527279e-10	-6.049191e+00	-4.928457e+01
2.700000e-06	-9.483282e-07	-8.693388e-10	-6.332462e+00	-5.701447e+01
2.710000e-06	-9.902908e-07	-9.915346e-10	-6.612668e+00	-6.479597e+01
2.720000e-06	-1.031872e-06	-1.113633e-09	-6.890324e+00	-7.257089e+01
2.730000e-06	-1.073151e-06	-1.228866e-09	-7.165968e+00	-8.029994e+01
2.740000e-06	-1.114100e-06	-1.340025e-09	-7.439405e+00	-8.797956e+01
2.750000e-06	-1.154624e-06	-1.456000e-09	-7.710000e+00	-9.563524e+01
2.760000e-06	-1.194708e-06	-1.577122e-09	-7.977663e+00	-1.032981e+02
2.770000e-06	-1.234459e-06	-1.694494e-09	-8.243099e+00	-1.109816e+02
2.780000e-06	-1.273919e-06	-1.805915e-09	-8.506594e+00	-1.186723e+02
2.790000e-06	-1.313062e-06	-1.918724e-09	-8.767973e+00	-1.263387e+02
2.800000e-06	-1.351755e-06	-2.037160e-09	-9.026348e+00	-1.339481e+02
2.810000e-06	-1.389813e-06	-2.155606e-09	-9.280476e+00	-1.414799e+02
2.820000e-06	-1.427081e-06	-2.268342e-09	-9.529335e+00	-1.489276e+02
2.830000e-06	-1.463527e-06	-2.376488e-09	-9.772701e+00	-1.562917e+02
2.840000e-06	-1.499368e-06	-2.485319e-09	-1.001203e+01	-1.635721e+02
2.850000e-06	-1.534850e-06	-2.596202e-09	-1.024896e+01	-1.707653e+02
2.860000e-06	-1.569939e-06	-2.706035e-09	-1.048327e+01	-1.778663e+02
2.870000e-06	-1.604540e-06	-2.811129e-09	-1.071432e+01	-1.848710e+02
2.880000e-06	-1.638601e-06	-2.913611e-09	-1.094176e+01	-1.917736e+02
2.890000e-06	-1.672082e-06	-3.017256e-09	-1.116533e+01	-1.985614e+02
2.900000e-06	-1.704932e-06	-3.119834e-09	-1.138468e+01	-2.052134e+02
2.910000e-06	-1.737136e-06	-3.217688e-09	-1.159973e+01	-2.117060e+02
2.920000e-06	-1.768827e-06	-3.311495e-09	-1.181134e+01	-2.180252e+02
2.930000e-06	-1.800052e-06	-3.404997e-09	-1.201985e+01	-2.241756e+02
2.940000e-06	-1.830682e-06	-3.498083e-09	-1.222438e+01	-2.301781e+02
