# Temperatura_=_20.0
# Concentracion g/m^3_=_10000.0
# C_Vs_to_Am_M_A/Vsm_=_65563218390.804596
# pendiente_HvsI_1/m_=_3716.3
# ordenada_HvsI_A/m_=_1297.0
# frecuencia_Hz_=_301417.07395005744

Tiempo_(s)	Campo_(V.s)	Magnetizacion_(V.s)	Campo_(kA/m)	Magnetizacion_(A/m)
0.000000e+00	-2.416111e-06	-5.230203e-09	-1.613049e+01	-3.428363e+02
1.000000e-08	-2.415356e-06	-5.240222e-09	-1.612545e+01	-3.432353e+02
2.000000e-08	-2.413697e-06	-5.244748e-09	-1.611437e+01	-3.434567e+02
3.000000e-08	-2.410928e-06	-5.242990e-09	-1.609589e+01	-3.434823e+02
4.000000e-08	-2.407185e-06	-5.239633e-09	-1.607090e+01	-3.433486e+02
5.000000e-08	-2.402753e-06	-5.233857e-09	-1.604131e+01	-3.431237e+02
6.000000e-08	-2.397716e-06	-5.216433e-09	-1.600768e+01	-3.428644e+02
7.000000e-08	-2.391806e-06	-5.225982e-09	-1.596822e+01	-3.425816e+02
8.000000e-08	-2.384796e-06	-5.296778e-09	-1.592142e+01	-3.422377e+02
9.000000e-08	-2.376813e-06	-5.288386e-09	-1.586812e+01	-3.417776e+02
1.000000e-07	-2.368286e-06	-5.125443e-09	-1.581120e+01	-3.411719e+02
1.100000e-07	-2.359327e-06	-5.090918e-09	-1.575139e+01	-3.404427e+02
1.200000e-07	-2.349344e-06	-5.254217e-09	-1.568474e+01	-3.396543e+02
1.300000e-07	-2.337980e-06	-5.275126e-09	-1.560887e+01	-3.388723e+02
1.400000e-07	-2.325693e-06	-5.092100e-09	-1.552684e+01	-3.381199e+02
1.500000e-07	-2.312746e-06	-5.107767e-09	-1.544040e+01	-3.373597e+02
1.600000e-07	-2.298770e-06	-5.227257e-09	-1.534709e+01	-3.365133e+02
1.700000e-07	-2.283735e-06	-5.109306e-09	-1.524672e+01	-3.355074e+02
1.800000e-07	-2.267979e-06	-5.040292e-09	-1.514153e+01	-3.343150e+02
1.900000e-07	-2.251172e-06	-5.171615e-09	-1.502932e+01	-3.329658e+02
2.000000e-07	-2.233186e-06	-5.074306e-09	-1.490924e+01	-3.315204e+02
2.100000e-07	-2.214641e-06	-4.892819e-09	-1.478543e+01	-3.300276e+02
2.200000e-07	-2.195576e-06	-5.067619e-09	-1.465815e+01	-3.284927e+02
2.300000e-07	-2.175678e-06	-5.128979e-09	-1.452531e+01	-3.268803e+02
2.400000e-07	-2.155024e-06	-4.884118e-09	-1.438741e+01	-3.251448e+02
2.500000e-07	-2.133809e-06	-4.842108e-09	-1.424578e+01	-3.232689e+02
2.600000e-07	-2.111904e-06	-4.971604e-09	-1.409954e+01	-3.212805e+02
2.700000e-07	-2.089168e-06	-4.899510e-09	-1.394774e+01	-3.192373e+02
2.800000e-07	-2.065644e-06	-4.809243e-09	-1.379069e+01	-3.171881e+02
2.900000e-07	-2.041497e-06	-4.805043e-09	-1.362948e+01	-3.151392e+02
3.000000e-07	-2.016908e-06	-4.754076e-09	-1.346532e+01	-3.130464e+02
3.100000e-07	-1.991669e-06	-4.748807e-09	-1.329682e+01	-3.108401e+02
3.200000e-07	-1.965320e-06	-4.756297e-09	-1.312091e+01	-3.084668e+02
3.300000e-07	-1.937862e-06	-4.652235e-09	-1.293759e+01	-3.059210e+02
3.400000e-07	-1.909693e-06	-4.573723e-09	-1.274953e+01	-3.032493e+02
3.500000e-07	-1.881040e-06	-4.574078e-09	-1.255824e+01	-3.005251e+02
3.600000e-07	-1.851878e-06	-4.563149e-09	-1.236355e+01	-2.978099e+02
3.700000e-07	-1.822025e-06	-4.541463e-09	-1.216424e+01	-2.951241e+02
3.800000e-07	-1.791459e-06	-4.451412e-09	-1.196017e+01	-2.924404e+02
3.900000e-07	-1.760278e-06	-4.366890e-09	-1.175200e+01	-2.897015e+02
4.000000e-07	-1.728565e-06	-4.394963e-09	-1.154028e+01	-2.868491e+02
4.100000e-07	-1.696409e-06	-4.388227e-09	-1.132560e+01	-2.838479e+02
4.200000e-07	-1.663835e-06	-4.263748e-09	-1.110813e+01	-2.806967e+02
4.300000e-07	-1.630681e-06	-4.187740e-09	-1.088679e+01	-2.774236e+02
4.400000e-07	-1.596734e-06	-4.179018e-09	-1.066014e+01	-2.740705e+02
4.500000e-07	-1.561879e-06	-4.151357e-09	-1.042745e+01	-2.706756e+02
4.600000e-07	-1.526182e-06	-4.102215e-09	-1.018913e+01	-2.672572e+02
4.700000e-07	-1.489970e-06	-4.015315e-09	-9.947369e+00	-2.638070e+02
4.800000e-07	-1.453493e-06	-3.937056e-09	-9.703836e+00	-2.602921e+02
4.900000e-07	-1.416658e-06	-3.917165e-09	-9.457922e+00	-2.566703e+02
5.000000e-07	-1.379243e-06	-3.893690e-09	-9.208132e+00	-2.529108e+02
5.100000e-07	-1.341285e-06	-3.806198e-09	-8.954714e+00	-2.490128e+02
5.200000e-07	-1.302911e-06	-3.713316e-09	-8.698519e+00	-2.450113e+02
5.300000e-07	-1.264136e-06	-3.664930e-09	-8.439648e+00	-2.409627e+02
5.400000e-07	-1.224881e-06	-3.637655e-09	-8.177573e+00	-2.369161e+02
5.500000e-07	-1.185106e-06	-3.580505e-09	-7.912028e+00	-2.328846e+02
5.600000e-07	-1.144975e-06	-3.481782e-09	-7.644103e+00	-2.288347e+02
5.700000e-07	-1.104651e-06	-3.398964e-09	-7.374895e+00	-2.247022e+02
5.800000e-07	-1.064156e-06	-3.359533e-09	-7.104540e+00	-2.204276e+02
5.900000e-07	-1.023337e-06	-3.320591e-09	-6.832024e+00	-2.159914e+02
6.000000e-07	-9.820074e-07	-3.237530e-09	-6.556097e+00	-2.114266e+02
6.100000e-07	-9.401246e-07	-3.138017e-09	-6.276478e+00	-2.068002e+02
6.200000e-07	-8.976641e-07	-3.067459e-09	-5.993003e+00	-2.021723e+02
6.300000e-07	-8.546085e-07	-3.025859e-09	-5.705554e+00	-1.975585e+02
6.400000e-07	-8.110451e-07	-2.966933e-09	-5.414715e+00	-1.929184e+02
6.500000e-07	-7.671606e-07	-2.869010e-09	-5.121733e+00	-1.881780e+02
6.600000e-07	-7.230953e-07	-2.774348e-09	-4.827543e+00	-1.832726e+02
6.700000e-07	-6.788682e-07	-2.713998e-09	-4.532273e+00	-1.781858e+02
6.800000e-07	-6.345249e-07	-2.658825e-09	-4.236228e+00	-1.729590e+02
6.900000e-07	-5.900646e-07	-2.569856e-09	-3.939401e+00	-1.676681e+02
7.000000e-07	-5.454601e-07	-2.464857e-09	-3.641612e+00	-1.623802e+02
7.100000e-07	-5.007346e-07	-2.381673e-09	-3.343014e+00	-1.571181e+02
7.200000e-07	-4.558731e-07	-2.324015e-09	-3.043509e+00	-1.518507e+02
7.300000e-07	-4.107815e-07	-2.255436e-09	-2.742467e+00	-1.465141e+02
7.400000e-07	-3.654797e-07	-2.156943e-09	-2.440022e+00	-1.410490e+02
7.500000e-07	-3.200773e-07	-2.054498e-09	-2.136907e+00	-1.354307e+02
7.600000e-07	-2.745557e-07	-1.975186e-09	-1.832994e+00	-1.296773e+02
7.700000e-07	-2.288742e-07	-1.907184e-09	-1.528015e+00	-1.238334e+02
7.800000e-07	-1.830884e-07	-1.817593e-09	-1.222339e+00	-1.179422e+02
7.900000e-07	-1.372743e-07	-1.708310e-09	-9.164732e-01	-1.120233e+02
8.000000e-07	-9.143766e-08	-1.609259e-09	-6.104579e-01	-1.060662e+02
8.100000e-07	-4.557257e-08	-1.532595e-09	-3.042525e-01	-1.000402e+02
8.200000e-07	3.647775e-10	-1.453275e-09	2.435335e-03	-9.391230e+01
8.300000e-07	4.631204e-08	-1.349100e-09	3.091893e-01	-8.766043e+01
8.400000e-07	9.214478e-08	-1.236088e-09	6.151788e-01	-8.127921e+01
8.500000e-07	1.378994e-07	-1.139535e-09	9.206464e-01	-7.477711e+01
8.600000e-07	1.836819e-07	-1.053967e-09	1.226301e+00	-6.817062e+01
8.700000e-07	2.294701e-07	-9.532852e-10	1.531993e+00	-6.147912e+01
8.800000e-07	2.751572e-07	-8.350912e-10	1.837010e+00	-5.472111e+01
8.900000e-07	3.206384e-07	-7.227631e-10	2.140653e+00	-4.791029e+01
9.000000e-07	3.659239e-07	-6.283389e-10	2.442988e+00	-4.105095e+01
9.100000e-07	4.110799e-07	-5.351361e-10	2.744460e+00	-3.413451e+01
9.200000e-07	4.560895e-07	-4.237558e-10	3.044954e+00	-2.714101e+01
9.300000e-07	5.009511e-07	-3.027837e-10	3.344459e+00	-2.004719e+01
9.400000e-07	5.456312e-07	-1.930292e-10	3.642754e+00	-1.283864e+01
9.500000e-07	5.901744e-07	-9.522407e-11	3.940134e+00	-5.519579e+00
9.600000e-07	6.346067e-07	1.222487e-11	4.236774e+00	1.886214e+00
9.700000e-07	6.789291e-07	1.378391e-10	4.532680e+00	9.345153e+00
9.800000e-07	7.231806e-07	2.619347e-10	4.828113e+00	1.682947e+01
9.900000e-07	7.673027e-07	3.687611e-10	5.122681e+00	2.432966e+01
1.000000e-06	8.112501e-07	4.714175e-10	5.416084e+00	3.185600e+01
1.010000e-06	8.548856e-07	5.881136e-10	5.707404e+00	3.942798e+01
1.020000e-06	8.980238e-07	7.155063e-10	5.995405e+00	4.705793e+01
1.030000e-06	9.405459e-07	8.341731e-10	6.279291e+00	5.473939e+01
1.040000e-06	9.823373e-07	9.393620e-10	6.558300e+00	6.244766e+01
1.050000e-06	1.023537e-06	1.051992e-09	6.833358e+00	7.015244e+01
1.060000e-06	1.064325e-06	1.180338e-09	7.105670e+00	7.783459e+01
1.070000e-06	1.104790e-06	1.309761e-09	7.375824e+00	8.549602e+01
1.080000e-06	1.145050e-06	1.423523e-09	7.644603e+00	9.315594e+01
1.090000e-06	1.185072e-06	1.528636e-09	7.911799e+00	1.008354e+02
1.100000e-06	1.224765e-06	1.645698e-09	8.176804e+00	1.085393e+02
1.110000e-06	1.263992e-06	1.773747e-09	8.438688e+00	1.162477e+02
1.120000e-06	1.302712e-06	1.895157e-09	8.697193e+00	1.239216e+02
1.130000e-06	1.340990e-06	2.003841e-09	8.952747e+00	1.315203e+02
1.140000e-06	1.378796e-06	2.112544e-09	9.205147e+00	1.390201e+02
1.150000e-06	1.416092e-06	2.231211e-09	9.454144e+00	1.464232e+02
1.160000e-06	1.452918e-06	2.351538e-09	9.699998e+00	1.537508e+02
1.170000e-06	1.489388e-06	2.460900e-09	9.943485e+00	1.610272e+02
1.180000e-06	1.525566e-06	2.562335e-09	1.018502e+01	1.682614e+02
1.190000e-06	1.561278e-06	2.669912e-09	1.042343e+01	1.754400e+02
1.200000e-06	1.596291e-06	2.785702e-09	1.065719e+01	1.825316e+02
1.210000e-06	1.630431e-06	2.897116e-09	1.088512e+01	1.895019e+02
1.220000e-06	1.663671e-06	2.997393e-09	1.110704e+01	1.963273e+02
1.230000e-06	1.696300e-06	3.094051e-09	1.132487e+01	2.030020e+02
1.240000e-06	1.728521e-06	3.197056e-09	1.153998e+01	2.095336e+02
1.250000e-06	1.760281e-06	3.303060e-09	1.175202e+01	2.159333e+02
1.260000e-06	1.791443e-06	3.400431e-09	1.196007e+01	2.222054e+02
1.270000e-06	1.821960e-06	3.488587e-09	1.216381e+01	2.283437e+02
1.280000e-06	1.851840e-06	3.577682e-09	1.236329e+01	2.343329e+02
1.290000e-06	1.881016e-06	3.671222e-09	1.255808e+01	2.401541e+02
1.300000e-06	1.909628e-06	3.761069e-09	1.274909e+01	2.457906e+02
1.310000e-06	1.937860e-06	3.840699e-09	1.293758e+01	2.512311e+02
1.320000e-06	1.965491e-06	3.915599e-09	1.312205e+01	2.564713e+02
1.330000e-06	1.992150e-06	3.992540e-09	1.330003e+01	2.615151e+02
1.340000e-06	2.017730e-06	4.071546e-09	1.347081e+01	2.663757e+02
1.350000e-06	2.042437e-06	4.145313e-09	1.363576e+01	2.710736e+02
1.360000e-06	2.066523e-06	4.210748e-09	1.379656e+01	2.756320e+02
1.370000e-06	2.089968e-06	4.274050e-09	1.395309e+01	2.800681e+02
1.380000e-06	2.112663e-06	4.340378e-09	1.410460e+01	2.843842e+02
1.390000e-06	2.134649e-06	4.407061e-09	1.425139e+01	2.885646e+02
1.400000e-06	2.155939e-06	4.466985e-09	1.439352e+01	2.925795e+02
1.410000e-06	2.176589e-06	4.521081e-09	1.453139e+01	2.963975e+02
1.420000e-06	2.196677e-06	4.575112e-09	1.466550e+01	2.999996e+02
1.430000e-06	2.216032e-06	4.630715e-09	1.479472e+01	3.033890e+02
1.440000e-06	2.234504e-06	4.681020e-09	1.491804e+01	3.065909e+02
1.450000e-06	2.252121e-06	4.722418e-09	1.503566e+01	3.096435e+02
1.460000e-06	2.268998e-06	4.760964e-09	1.514833e+01	3.125828e+02
1.470000e-06	2.284979e-06	4.803356e-09	1.525502e+01	3.154275e+02
1.480000e-06	2.299961e-06	4.848603e-09	1.535505e+01	3.181720e+02
1.490000e-06	2.314135e-06	4.889515e-09	1.544968e+01	3.207877e+02
1.500000e-06	2.327500e-06	4.924663e-09	1.553890e+01	3.232353e+02
1.510000e-06	2.340040e-06	4.958397e-09	1.562262e+01	3.254813e+02
1.520000e-06	2.351715e-06	4.991568e-09	1.570057e+01	3.275153e+02
1.530000e-06	2.362205e-06	5.020001e-09	1.577060e+01	3.293584e+02
1.540000e-06	2.371502e-06	5.042661e-09	1.583267e+01	3.310585e+02
1.550000e-06	2.379963e-06	5.063910e-09	1.588916e+01	3.326716e+02
1.560000e-06	2.387711e-06	5.089045e-09	1.594088e+01	3.342367e+02
1.570000e-06	2.394720e-06	5.115611e-09	1.598768e+01	3.357550e+02
1.580000e-06	2.400953e-06	5.137662e-09	1.602929e+01	3.371874e+02
1.590000e-06	2.406339e-06	5.155068e-09	1.606525e+01	3.384727e+02
1.600000e-06	2.410972e-06	5.170291e-09	1.609618e+01	3.395605e+02
1.610000e-06	2.414971e-06	5.185731e-09	1.612288e+01	3.404416e+02
1.620000e-06	2.418059e-06	5.199647e-09	1.614349e+01	3.411559e+02
1.630000e-06	2.419916e-06	5.207753e-09	1.615589e+01	3.417732e+02
1.640000e-06	2.420740e-06	5.214831e-09	1.616139e+01	3.423541e+02
1.650000e-06	2.420861e-06	5.225248e-09	1.616220e+01	3.429153e+02
1.660000e-06	2.420256e-06	5.234270e-09	1.615816e+01	3.434190e+02
1.670000e-06	2.418897e-06	5.238683e-09	1.614909e+01	3.437967e+02
1.680000e-06	2.416801e-06	5.240116e-09	1.613509e+01	3.439908e+02
1.690000e-06	2.413934e-06	5.238708e-09	1.611595e+01	3.439911e+02
1.700000e-06	2.410422e-06	5.237925e-09	1.609250e+01	3.438409e+02
1.710000e-06	2.406277e-06	5.248665e-09	1.606483e+01	3.436093e+02
1.720000e-06	2.401246e-06	5.260325e-09	1.603124e+01	3.433481e+02
1.730000e-06	2.395048e-06	5.196393e-09	1.598987e+01	3.430606e+02
1.740000e-06	2.387590e-06	5.113784e-09	1.594007e+01	3.427043e+02
1.750000e-06	2.378939e-06	5.224026e-09	1.588232e+01	3.422250e+02
1.760000e-06	2.369551e-06	5.325140e-09	1.581964e+01	3.415999e+02
1.770000e-06	2.360021e-06	5.204321e-09	1.575602e+01	3.408587e+02
1.780000e-06	2.350044e-06	5.075780e-09	1.568941e+01	3.400686e+02
1.790000e-06	2.338686e-06	5.164129e-09	1.561358e+01	3.392917e+02
1.800000e-06	2.326083e-06	5.232535e-09	1.552944e+01	3.385428e+02
1.810000e-06	2.313151e-06	5.088516e-09	1.544310e+01	3.377763e+02
1.820000e-06	2.299409e-06	5.097964e-09	1.535136e+01	3.369118e+02
1.830000e-06	2.284086e-06	5.215113e-09	1.524906e+01	3.358804e+02
1.840000e-06	2.267890e-06	5.066518e-09	1.514093e+01	3.346635e+02
1.850000e-06	2.251341e-06	4.980506e-09	1.503045e+01	3.332975e+02
1.860000e-06	2.233876e-06	5.195696e-09	1.491385e+01	3.318441e+02
1.870000e-06	2.215325e-06	5.125630e-09	1.479000e+01	3.303470e+02
1.880000e-06	2.196184e-06	4.836830e-09	1.466220e+01	3.288048e+02
1.890000e-06	2.176596e-06	4.973593e-09	1.453143e+01	3.271781e+02
1.900000e-06	2.156260e-06	5.139241e-09	1.439566e+01	3.254235e+02
1.910000e-06	2.134911e-06	4.906143e-09	1.425314e+01	3.235297e+02
1.920000e-06	2.112478e-06	4.817141e-09	1.410337e+01	3.215306e+02
1.930000e-06	2.089230e-06	4.927365e-09	1.394816e+01	3.194851e+02
1.940000e-06	2.065388e-06	4.861571e-09	1.378898e+01	3.174377e+02
1.950000e-06	2.040832e-06	4.819105e-09	1.362504e+01	3.153871e+02
1.960000e-06	2.015611e-06	4.809559e-09	1.345666e+01	3.132833e+02
1.970000e-06	1.989758e-06	4.693363e-09	1.328406e+01	3.110565e+02
1.980000e-06	1.963111e-06	4.701265e-09	1.310616e+01	3.086585e+02
1.990000e-06	1.935848e-06	4.738557e-09	1.292415e+01	3.060917e+02
2.000000e-06	1.908164e-06	4.639798e-09	1.273932e+01	3.034087e+02
2.010000e-06	1.879673e-06	4.590633e-09	1.254911e+01	3.006837e+02
2.020000e-06	1.850072e-06	4.539984e-09	1.235149e+01	2.979735e+02
2.030000e-06	1.819608e-06	4.471847e-09	1.214810e+01	2.952915e+02
2.040000e-06	1.788547e-06	4.527966e-09	1.194073e+01	2.926047e+02
2.050000e-06	1.756993e-06	4.465557e-09	1.173007e+01	2.898537e+02
2.060000e-06	1.724934e-06	4.304812e-09	1.151604e+01	2.869823e+02
2.070000e-06	1.692216e-06	4.339997e-09	1.129761e+01	2.839599e+02
2.080000e-06	1.658878e-06	4.357333e-09	1.107503e+01	2.807900e+02
2.090000e-06	1.625003e-06	4.246828e-09	1.084887e+01	2.775036e+02
2.100000e-06	1.590599e-06	4.179285e-09	1.061919e+01	2.741434e+02
2.110000e-06	1.555706e-06	4.115821e-09	1.038624e+01	2.707455e+02
2.120000e-06	1.520397e-06	4.074664e-09	1.015051e+01	2.673247e+02
2.130000e-06	1.484750e-06	4.071429e-09	9.912516e+00	2.638685e+02
2.140000e-06	1.448690e-06	3.990105e-09	9.671773e+00	2.603418e+02
2.150000e-06	1.411941e-06	3.895113e-09	9.426427e+00	2.567026e+02
2.160000e-06	1.374237e-06	3.859782e-09	9.174709e+00	2.529233e+02
2.170000e-06	1.335681e-06	3.825441e-09	8.917301e+00	2.490085e+02
2.180000e-06	1.296546e-06	3.772926e-09	8.656024e+00	2.449976e+02
2.190000e-06	1.257098e-06	3.681986e-09	8.392660e+00	2.409478e+02
2.200000e-06	1.217454e-06	3.592221e-09	8.127993e+00	2.369045e+02
2.210000e-06	1.177536e-06	3.559134e-09	7.861492e+00	2.328743e+02
2.220000e-06	1.137237e-06	3.529387e-09	7.592441e+00	2.288177e+02
2.230000e-06	1.096447e-06	3.452260e-09	7.320124e+00	2.246688e+02
2.240000e-06	1.055218e-06	3.353943e-09	7.044864e+00	2.203720e+02
2.250000e-06	1.013710e-06	3.285532e-09	6.767748e+00	2.159151e+02
2.260000e-06	9.718947e-07	3.247073e-09	6.488583e+00	2.113380e+02
2.270000e-06	9.296440e-07	3.187142e-09	6.206508e+00	2.067093e+02
2.280000e-06	8.869782e-07	3.091082e-09	5.921661e+00	2.020847e+02
2.290000e-06	8.440019e-07	2.999487e-09	5.634742e+00	1.974717e+02
2.300000e-06	8.008082e-07	2.941829e-09	5.346372e+00	1.928230e+02
2.310000e-06	7.574845e-07	2.900163e-09	5.057133e+00	1.880630e+02
2.320000e-06	7.140583e-07	2.818807e-09	4.767210e+00	1.831322e+02
2.330000e-06	6.705265e-07	2.709055e-09	4.476582e+00	1.780225e+02
2.340000e-06	6.268455e-07	2.628072e-09	4.184959e+00	1.727826e+02
2.350000e-06	5.829230e-07	2.569716e-09	3.891722e+00	1.674896e+02
2.360000e-06	5.387689e-07	2.500747e-09	3.596939e+00	1.622062e+02
2.370000e-06	4.944936e-07	2.404731e-09	3.301348e+00	1.569472e+02
2.380000e-06	4.500139e-07	2.303574e-09	3.004392e+00	1.516750e+02
2.390000e-06	4.052366e-07	2.228734e-09	2.705448e+00	1.463241e+02
2.400000e-06	3.602685e-07	2.164901e-09	2.405231e+00	1.408385e+02
2.410000e-06	3.150689e-07	2.077680e-09	2.103469e+00	1.351998e+02
2.420000e-06	2.697439e-07	1.969097e-09	1.800870e+00	1.294313e+02
2.430000e-06	2.244028e-07	1.869225e-09	1.498162e+00	1.235793e+02
2.440000e-06	1.789201e-07	1.794993e-09	1.194510e+00	1.176846e+02
2.450000e-06	1.332903e-07	1.720901e-09	8.898753e-01	1.117623e+02
2.460000e-06	8.765504e-08	1.619355e-09	5.852043e-01	1.057984e+02
2.470000e-06	4.207352e-08	1.509138e-09	2.808921e-01	9.976064e+01
2.480000e-06	-3.466428e-09	1.418519e-09	-2.314264e-02	9.361686e+01
2.490000e-06	-4.896851e-08	1.341119e-09	-3.269246e-01	8.734734e+01
2.500000e-06	-9.452889e-08	1.245971e-09	-6.310956e-01	8.094898e+01
2.510000e-06	-1.400959e-07	1.129848e-09	-9.353108e-01	7.443173e+01
2.520000e-06	-1.855503e-07	1.020988e-09	-1.238775e+00	6.781278e+01
2.530000e-06	-2.309121e-07	9.317189e-10	-1.541620e+00	6.111160e+01
2.540000e-06	-2.761820e-07	8.422992e-10	-1.843852e+00	5.434626e+01
2.550000e-06	-3.213242e-07	7.324351e-10	-2.145231e+00	4.752942e+01
2.560000e-06	-3.662877e-07	6.126365e-10	-2.445417e+00	4.066364e+01
2.570000e-06	-4.110271e-07	5.068043e-10	-2.744107e+00	3.373850e+01
2.580000e-06	-4.555999e-07	4.145911e-10	-3.041685e+00	2.673291e+01
2.590000e-06	-4.999995e-07	3.118587e-10	-3.338106e+00	1.962411e+01
2.600000e-06	-5.441533e-07	1.891662e-10	-3.632887e+00	1.239990e+01
2.610000e-06	-5.880542e-07	6.539967e-11	-3.925979e+00	5.067508e+00
2.620000e-06	-6.317510e-07	-4.065835e-11	-4.217708e+00	-2.347085e+00
2.630000e-06	-6.753397e-07	-1.402652e-10	-4.508716e+00	-9.810133e+00
2.640000e-06	-7.188464e-07	-2.566060e-10	-4.799177e+00	-1.729590e+01
2.650000e-06	-7.622468e-07	-3.847370e-10	-5.088927e+00	-2.479793e+01
2.660000e-06	-8.054995e-07	-5.034950e-10	-5.377692e+00	-3.232871e+01
2.670000e-06	-8.485647e-07	-6.079475e-10	-5.665204e+00	-3.990768e+01
2.680000e-06	-8.913767e-07	-7.170403e-10	-5.951027e+00	-4.754499e+01
2.690000e-06	-9.338532e-07	-8.435463e-10	-6.234609e+00	-5.523122e+01
2.700000e-06	-9.759078e-07	-9.728824e-10	-6.515375e+00	-6.293986e+01
2.710000e-06	-1.017557e-06	-1.087514e-09	-6.793437e+00	-7.064126e+01
2.720000e-06	-1.058918e-06	-1.193158e-09	-7.069572e+00	-7.831893e+01
2.730000e-06	-1.099974e-06	-1.306631e-09	-7.343668e+00	-8.597783e+01
2.740000e-06	-1.140636e-06	-1.431135e-09	-7.615137e+00	-9.363856e+01
2.750000e-06	-1.180860e-06	-1.552789e-09	-7.883682e+00	-1.013208e+02
2.760000e-06	-1.220660e-06	-1.662469e-09	-8.149394e+00	-1.090263e+02
2.770000e-06	-1.260134e-06	-1.772017e-09	-8.412931e+00	-1.167315e+02
2.780000e-06	-1.299383e-06	-1.892117e-09	-8.674964e+00	-1.243961e+02
2.790000e-06	-1.338275e-06	-2.015837e-09	-8.934620e+00	-1.319806e+02
2.800000e-06	-1.376535e-06	-2.129134e-09	-9.190047e+00	-1.394651e+02
2.810000e-06	-1.414064e-06	-2.233386e-09	-9.440601e+00	-1.468549e+02
2.820000e-06	-1.450829e-06	-2.342388e-09	-9.686050e+00	-1.541730e+02
2.830000e-06	-1.486878e-06	-2.459813e-09	-9.926723e+00	-1.614424e+02
2.840000e-06	-1.522468e-06	-2.574451e-09	-1.016433e+01	-1.686692e+02
2.850000e-06	-1.557727e-06	-2.679320e-09	-1.039973e+01	-1.758366e+02
2.860000e-06	-1.592568e-06	-2.781704e-09	-1.063233e+01	-1.829120e+02
2.870000e-06	-1.626819e-06	-2.889990e-09	-1.086100e+01	-1.898617e+02
2.880000e-06	-1.660445e-06	-2.999997e-09	-1.108549e+01	-1.966647e+02
2.890000e-06	-1.693501e-06	-3.100363e-09	-1.130618e+01	-2.033174e+02
2.900000e-06	-1.725923e-06	-3.192485e-09	-1.152264e+01	-2.098286e+02
2.910000e-06	-1.757802e-06	-3.286259e-09	-1.173547e+01	-2.162091e+02
2.920000e-06	-1.789290e-06	-3.383982e-09	-1.194569e+01	-2.224619e+02
2.930000e-06	-1.820279e-06	-3.479975e-09	-1.215258e+01	-2.285791e+02
2.940000e-06	-1.850389e-06	-3.568617e-09	-1.235361e+01	-2.345446e+02
