# Temperatura_=_20.0
# Concentracion g/m^3_=_10000.0
# C_Vs_to_Am_M_A/Vsm_=_65563218390.804596
# pendiente_HvsI_1/m_=_3716.3
# ordenada_HvsI_A/m_=_1297.0
# frecuencia_Hz_=_301420.3151356688

Tiempo_(s)	Campo_(V.s)	Magnetizacion_(V.s)	Campo_(kA/m)	Magnetizacion_(A/m)
0.000000e+00	-2.410223e-06	-5.260744e-09	-1.613248e+01	-3.452060e+02
1.000000e-08	-2.409683e-06	-5.264556e-09	-1.612886e+01	-3.455187e+02
2.000000e-08	-2.408467e-06	-5.269746e-09	-1.612072e+01	-3.457097e+02
3.000000e-08	-2.406297e-06	-5.273231e-09	-1.610620e+01	-3.457958e+02
4.000000e-08	-2.402996e-06	-5.273154e-09	-1.608410e+01	-3.458109e+02
5.000000e-08	-2.398822e-06	-5.266106e-09	-1.605616e+01	-3.457836e+02
6.000000e-08	-2.394051e-06	-5.251389e-09	-1.602423e+01	-3.457109e+02
7.000000e-08	-2.388522e-06	-5.252174e-09	-1.598722e+01	-3.455511e+02
8.000000e-08	-2.382039e-06	-5.307061e-09	-1.594383e+01	-3.452435e+02
9.000000e-08	-2.374561e-06	-5.337631e-09	-1.589378e+01	-3.447482e+02
1.000000e-07	-2.366310e-06	-5.214536e-09	-1.583855e+01	-3.440796e+02
1.100000e-07	-2.357618e-06	-5.115205e-09	-1.578037e+01	-3.433087e+02
1.200000e-07	-2.348200e-06	-5.236914e-09	-1.571733e+01	-3.425299e+02
1.300000e-07	-2.337457e-06	-5.319369e-09	-1.564542e+01	-3.418098e+02
1.400000e-07	-2.325534e-06	-5.180772e-09	-1.556562e+01	-3.411480e+02
1.500000e-07	-2.312896e-06	-5.117893e-09	-1.548103e+01	-3.404762e+02
1.600000e-07	-2.299414e-06	-5.244441e-09	-1.539079e+01	-3.396957e+02
1.700000e-07	-2.284838e-06	-5.205962e-09	-1.529323e+01	-3.387302e+02
1.800000e-07	-2.269382e-06	-5.071916e-09	-1.518978e+01	-3.375631e+02
1.900000e-07	-2.253119e-06	-5.172910e-09	-1.508092e+01	-3.362362e+02
2.000000e-07	-2.235716e-06	-5.164901e-09	-1.496444e+01	-3.348164e+02
2.100000e-07	-2.217371e-06	-4.964935e-09	-1.484165e+01	-3.333508e+02
2.200000e-07	-2.198573e-06	-5.033343e-09	-1.471582e+01	-3.318415e+02
2.300000e-07	-2.179133e-06	-5.185700e-09	-1.458570e+01	-3.302532e+02
2.400000e-07	-2.158838e-06	-4.998140e-09	-1.444986e+01	-3.285459e+02
2.500000e-07	-2.137903e-06	-4.849144e-09	-1.430974e+01	-3.267073e+02
2.600000e-07	-2.116369e-06	-4.987926e-09	-1.416560e+01	-3.247638e+02
2.700000e-07	-2.094084e-06	-4.989456e-09	-1.401645e+01	-3.227622e+02
2.800000e-07	-2.070988e-06	-4.853574e-09	-1.386185e+01	-3.207355e+02
2.900000e-07	-2.047133e-06	-4.839727e-09	-1.370218e+01	-3.186783e+02
3.000000e-07	-2.022701e-06	-4.825984e-09	-1.353865e+01	-3.165473e+02
3.100000e-07	-1.997729e-06	-4.773410e-09	-1.337151e+01	-3.142889e+02
3.200000e-07	-1.971935e-06	-4.788022e-09	-1.319886e+01	-3.118756e+02
3.300000e-07	-1.945047e-06	-4.736279e-09	-1.301889e+01	-3.093272e+02
3.400000e-07	-1.917225e-06	-4.632703e-09	-1.283267e+01	-3.067033e+02
3.500000e-07	-1.888849e-06	-4.601860e-09	-1.264274e+01	-3.040706e+02
3.600000e-07	-1.860035e-06	-4.617634e-09	-1.244987e+01	-3.014645e+02
3.700000e-07	-1.830583e-06	-4.597046e-09	-1.225274e+01	-2.988686e+02
3.800000e-07	-1.800385e-06	-4.506327e-09	-1.205061e+01	-2.962235e+02
3.900000e-07	-1.769574e-06	-4.420364e-09	-1.184438e+01	-2.934596e+02
4.000000e-07	-1.738210e-06	-4.427061e-09	-1.163446e+01	-2.905346e+02
4.100000e-07	-1.706309e-06	-4.434652e-09	-1.142093e+01	-2.874534e+02
4.200000e-07	-1.673941e-06	-4.330656e-09	-1.120428e+01	-2.842618e+02
4.300000e-07	-1.641150e-06	-4.244925e-09	-1.098480e+01	-2.810179e+02
4.400000e-07	-1.607783e-06	-4.217210e-09	-1.076146e+01	-2.777592e+02
4.500000e-07	-1.573534e-06	-4.200752e-09	-1.053222e+01	-2.744856e+02
4.600000e-07	-1.538289e-06	-4.160644e-09	-1.029631e+01	-2.711632e+02
4.700000e-07	-1.502335e-06	-4.078510e-09	-1.005566e+01	-2.677467e+02
4.800000e-07	-1.466038e-06	-3.993289e-09	-9.812713e+00	-2.642035e+02
4.900000e-07	-1.429460e-06	-3.961702e-09	-9.567884e+00	-2.605273e+02
5.000000e-07	-1.392366e-06	-3.947947e-09	-9.319596e+00	-2.567348e+02
5.100000e-07	-1.354653e-06	-3.872741e-09	-9.067169e+00	-2.528533e+02
5.200000e-07	-1.316468e-06	-3.775954e-09	-8.811585e+00	-2.489075e+02
5.300000e-07	-1.277921e-06	-3.712336e-09	-8.553577e+00	-2.449142e+02
5.400000e-07	-1.238949e-06	-3.690046e-09	-8.292725e+00	-2.408842e+02
5.500000e-07	-1.199468e-06	-3.641218e-09	-8.028464e+00	-2.368255e+02
5.600000e-07	-1.159537e-06	-3.546945e-09	-7.761193e+00	-2.327419e+02
5.700000e-07	-1.119327e-06	-3.460632e-09	-7.492051e+00	-2.286260e+02
5.800000e-07	-1.078978e-06	-3.414915e-09	-7.221979e+00	-2.244539e+02
5.900000e-07	-1.038413e-06	-3.381096e-09	-6.950464e+00	-2.201891e+02
6.000000e-07	-9.974517e-07	-3.311185e-09	-6.676297e+00	-2.157972e+02
6.100000e-07	-9.559342e-07	-3.215149e-09	-6.398405e+00	-2.112646e+02
6.200000e-07	-9.138941e-07	-3.131891e-09	-6.117017e+00	-2.066095e+02
6.300000e-07	-8.713294e-07	-3.086043e-09	-5.832116e+00	-2.018755e+02
6.400000e-07	-8.281605e-07	-3.032047e-09	-5.543171e+00	-1.971088e+02
6.500000e-07	-7.844915e-07	-2.941388e-09	-5.250879e+00	-1.923320e+02
6.600000e-07	-7.405671e-07	-2.843719e-09	-4.956877e+00	-1.875296e+02
6.700000e-07	-6.965090e-07	-2.778880e-09	-4.661981e+00	-1.826551e+02
6.800000e-07	-6.523034e-07	-2.730469e-09	-4.366098e+00	-1.776561e+02
6.900000e-07	-6.079418e-07	-2.650271e-09	-4.069169e+00	-1.725020e+02
7.000000e-07	-5.634442e-07	-2.544914e-09	-3.771331e+00	-1.671995e+02
7.100000e-07	-5.188143e-07	-2.451802e-09	-3.472607e+00	-1.617860e+02
7.200000e-07	-4.740518e-07	-2.388933e-09	-3.172996e+00	-1.563082e+02
7.300000e-07	-4.291493e-07	-2.320262e-09	-2.872448e+00	-1.507981e+02
7.400000e-07	-3.840523e-07	-2.224910e-09	-2.570597e+00	-1.452612e+02
7.500000e-07	-3.387972e-07	-2.121918e-09	-2.267690e+00	-1.396799e+02
7.600000e-07	-2.934244e-07	-2.039108e-09	-1.963993e+00	-1.340268e+02
7.700000e-07	-2.479227e-07	-1.971002e-09	-1.659434e+00	-1.282779e+02
7.800000e-07	-2.022917e-07	-1.886769e-09	-1.354010e+00	-1.224194e+02
7.900000e-07	-1.565752e-07	-1.781429e-09	-1.048013e+00	-1.164469e+02
8.000000e-07	-1.108382e-07	-1.676893e-09	-7.418793e-01	-1.103626e+02
8.100000e-07	-6.507440e-08	-1.594364e-09	-4.355660e-01	-1.041751e+02
8.200000e-07	-1.930085e-08	-1.513923e-09	-1.291874e-01	-9.789934e+01
8.300000e-07	2.651343e-08	-1.412261e-09	1.774637e-01	-9.155404e+01
8.400000e-07	7.233303e-08	-1.298384e-09	4.841505e-01	-8.515377e+01
8.500000e-07	1.180448e-07	-1.199136e-09	7.901153e-01	-7.869851e+01
8.600000e-07	1.637275e-07	-1.114745e-09	1.095886e+00	-7.216897e+01
8.700000e-07	2.094091e-07	-1.019212e-09	1.401649e+00	-6.553359e+01
8.800000e-07	2.550001e-07	-9.040231e-10	1.706806e+00	-5.876584e+01
8.900000e-07	3.004317e-07	-7.873397e-10	2.010896e+00	-5.186158e+01
9.000000e-07	3.456569e-07	-6.876344e-10	2.313604e+00	-4.484434e+01
9.100000e-07	3.906964e-07	-5.920347e-10	2.615069e+00	-3.775321e+01
9.200000e-07	4.356808e-07	-4.813545e-10	2.916165e+00	-3.062002e+01
9.300000e-07	4.805556e-07	-3.584715e-10	3.216528e+00	-2.345089e+01
9.400000e-07	5.252382e-07	-2.457378e-10	3.515605e+00	-1.622513e+01
9.500000e-07	5.697719e-07	-1.467250e-10	3.813685e+00	-8.912682e+00
9.600000e-07	6.141790e-07	-4.098485e-11	4.110917e+00	-1.497913e+00
9.700000e-07	6.585064e-07	8.205306e-11	4.407616e+00	6.007312e+00
9.800000e-07	7.027606e-07	2.086706e-10	4.703825e+00	1.357103e+01
9.900000e-07	7.468704e-07	3.203066e-10	4.999068e+00	2.116361e+01
1.000000e-06	7.907979e-07	4.250619e-10	5.293090e+00	2.877827e+01
1.010000e-06	8.344515e-07	5.411348e-10	5.585279e+00	3.643359e+01
1.020000e-06	8.775969e-07	6.701571e-10	5.874067e+00	4.415499e+01
1.030000e-06	9.200559e-07	7.937319e-10	6.158259e+00	5.194835e+01
1.040000e-06	9.618162e-07	9.039256e-10	6.437776e+00	5.978590e+01
1.050000e-06	1.003031e-06	1.015177e-09	6.713638e+00	6.761691e+01
1.060000e-06	1.043849e-06	1.140347e-09	6.986851e+00	7.539798e+01
1.070000e-06	1.084364e-06	1.270448e-09	7.258033e+00	8.312278e+01
1.080000e-06	1.124672e-06	1.387549e-09	7.527826e+00	9.082952e+01
1.090000e-06	1.164778e-06	1.495183e-09	7.796273e+00	9.857865e+01
1.100000e-06	1.204582e-06	1.612100e-09	8.062691e+00	1.064130e+02
1.110000e-06	1.243918e-06	1.742704e-09	8.325980e+00	1.143251e+02
1.120000e-06	1.282768e-06	1.870007e-09	8.586020e+00	1.222528e+02
1.130000e-06	1.321184e-06	1.985148e-09	8.843152e+00	1.301065e+02
1.140000e-06	1.359155e-06	2.096415e-09	9.097306e+00	1.378121e+02
1.150000e-06	1.396598e-06	2.213369e-09	9.347925e+00	1.453446e+02
1.160000e-06	1.433474e-06	2.332734e-09	9.594748e+00	1.527340e+02
1.170000e-06	1.470003e-06	2.444721e-09	9.839249e+00	1.600427e+02
1.180000e-06	1.506302e-06	2.550006e-09	1.008221e+01	1.673279e+02
1.190000e-06	1.542223e-06	2.658681e-09	1.032265e+01	1.746109e+02
1.200000e-06	1.577477e-06	2.776949e-09	1.055861e+01	1.818677e+02
1.210000e-06	1.611854e-06	2.894616e-09	1.078871e+01	1.890407e+02
1.220000e-06	1.645311e-06	2.999998e-09	1.101265e+01	1.960636e+02
1.230000e-06	1.678039e-06	3.098175e-09	1.123171e+01	2.028862e+02
1.240000e-06	1.710349e-06	3.200042e-09	1.144797e+01	2.094901e+02
1.250000e-06	1.742246e-06	3.303183e-09	1.166147e+01	2.158907e+02
1.260000e-06	1.773586e-06	3.399440e-09	1.187124e+01	2.221278e+02
1.270000e-06	1.804284e-06	3.488739e-09	1.207671e+01	2.282466e+02
1.280000e-06	1.834340e-06	3.578893e-09	1.227789e+01	2.342774e+02
1.290000e-06	1.863713e-06	3.674802e-09	1.247449e+01	2.402187e+02
1.300000e-06	1.892459e-06	3.768866e-09	1.266690e+01	2.460335e+02
1.310000e-06	1.920835e-06	3.852852e-09	1.285683e+01	2.516629e+02
1.320000e-06	1.948716e-06	3.928730e-09	1.304344e+01	2.570527e+02
1.330000e-06	1.975728e-06	4.004473e-09	1.322425e+01	2.621799e+02
1.340000e-06	2.001761e-06	4.082729e-09	1.339850e+01	2.670663e+02
1.350000e-06	2.026841e-06	4.156540e-09	1.356636e+01	2.717671e+02
1.360000e-06	2.051148e-06	4.221933e-09	1.372906e+01	2.763420e+02
1.370000e-06	2.074848e-06	4.285721e-09	1.388769e+01	2.808233e+02
1.380000e-06	2.097840e-06	4.355380e-09	1.404159e+01	2.852011e+02
1.390000e-06	2.120092e-06	4.426125e-09	1.419052e+01	2.894334e+02
1.400000e-06	2.141593e-06	4.488302e-09	1.433444e+01	2.934740e+02
1.410000e-06	2.162409e-06	4.540820e-09	1.447377e+01	2.972999e+02
1.420000e-06	2.182706e-06	4.592603e-09	1.460962e+01	3.009210e+02
1.430000e-06	2.202399e-06	4.648875e-09	1.474143e+01	3.043668e+02
1.440000e-06	2.221236e-06	4.702570e-09	1.486752e+01	3.076632e+02
1.450000e-06	2.239168e-06	4.746670e-09	1.498755e+01	3.108156e+02
1.460000e-06	2.256312e-06	4.785992e-09	1.510229e+01	3.138115e+02
1.470000e-06	2.272659e-06	4.829072e-09	1.521171e+01	3.166379e+02
1.480000e-06	2.288055e-06	4.875053e-09	1.531476e+01	3.192995e+02
1.490000e-06	2.302543e-06	4.915954e-09	1.541173e+01	3.218211e+02
1.500000e-06	2.316255e-06	4.949382e-09	1.550351e+01	3.242326e+02
1.510000e-06	2.329147e-06	4.981904e-09	1.558981e+01	3.265463e+02
1.520000e-06	2.341157e-06	5.017231e-09	1.567019e+01	3.287461e+02
1.530000e-06	2.352090e-06	5.052114e-09	1.574337e+01	3.307972e+02
1.540000e-06	2.361793e-06	5.079229e-09	1.580831e+01	3.326711e+02
1.550000e-06	2.370545e-06	5.099476e-09	1.586690e+01	3.343683e+02
1.560000e-06	2.378606e-06	5.122292e-09	1.592085e+01	3.359214e+02
1.570000e-06	2.385922e-06	5.148745e-09	1.596982e+01	3.373764e+02
1.580000e-06	2.392407e-06	5.171358e-09	1.601322e+01	3.387639e+02
1.590000e-06	2.398063e-06	5.187386e-09	1.605108e+01	3.400811e+02
1.600000e-06	2.402995e-06	5.203141e-09	1.608409e+01	3.412966e+02
1.610000e-06	2.407298e-06	5.223117e-09	1.611290e+01	3.423730e+02
1.620000e-06	2.410768e-06	5.242298e-09	1.613612e+01	3.432912e+02
1.630000e-06	2.413051e-06	5.253508e-09	1.615140e+01	3.440587e+02
1.640000e-06	2.414240e-06	5.259063e-09	1.615936e+01	3.446980e+02
1.650000e-06	2.414664e-06	5.266807e-09	1.616220e+01	3.452269e+02
1.660000e-06	2.414365e-06	5.276404e-09	1.616020e+01	3.456462e+02
1.670000e-06	2.413304e-06	5.279664e-09	1.615309e+01	3.459462e+02
1.680000e-06	2.411488e-06	5.278616e-09	1.614094e+01	3.461253e+02
1.690000e-06	2.408906e-06	5.279813e-09	1.612366e+01	3.462026e+02
1.700000e-06	2.405673e-06	5.283891e-09	1.610202e+01	3.462127e+02
1.710000e-06	2.401861e-06	5.294090e-09	1.607651e+01	3.461819e+02
1.720000e-06	2.397340e-06	5.309702e-09	1.604625e+01	3.461031e+02
1.730000e-06	2.391696e-06	5.275782e-09	1.600847e+01	3.459308e+02
1.740000e-06	2.384759e-06	5.186368e-09	1.596203e+01	3.456048e+02
1.750000e-06	2.376615e-06	5.227202e-09	1.590753e+01	3.450898e+02
1.760000e-06	2.367488e-06	5.351897e-09	1.584643e+01	3.444065e+02
1.770000e-06	2.358011e-06	5.293168e-09	1.578300e+01	3.436308e+02
1.780000e-06	2.348370e-06	5.161389e-09	1.571847e+01	3.428567e+02
1.790000e-06	2.337714e-06	5.172945e-09	1.564714e+01	3.421447e+02
1.800000e-06	2.325612e-06	5.285469e-09	1.556614e+01	3.414866e+02
1.810000e-06	2.312884e-06	5.188994e-09	1.548095e+01	3.408084e+02
1.820000e-06	2.299715e-06	5.113307e-09	1.539281e+01	3.400115e+02
1.830000e-06	2.285168e-06	5.221937e-09	1.529544e+01	3.390246e+02
1.840000e-06	2.269320e-06	5.166587e-09	1.518936e+01	3.378380e+02
1.850000e-06	2.253033e-06	5.030037e-09	1.508035e+01	3.364986e+02
1.860000e-06	2.236095e-06	5.162506e-09	1.496697e+01	3.350728e+02
1.870000e-06	2.218004e-06	5.228048e-09	1.484588e+01	3.336038e+02
1.880000e-06	2.199098e-06	4.937281e-09	1.471934e+01	3.320887e+02
1.890000e-06	2.179757e-06	4.937095e-09	1.458988e+01	3.304898e+02
1.900000e-06	2.159775e-06	5.167697e-09	1.445614e+01	3.287689e+02
1.910000e-06	2.138844e-06	5.027103e-09	1.431604e+01	3.269177e+02
1.920000e-06	2.116896e-06	4.839355e-09	1.416914e+01	3.249663e+02
1.930000e-06	2.094018e-06	4.949553e-09	1.401601e+01	3.229614e+02
1.940000e-06	2.070479e-06	4.946924e-09	1.385845e+01	3.209331e+02
1.950000e-06	2.046310e-06	4.845125e-09	1.369668e+01	3.188711e+02
1.960000e-06	2.021359e-06	4.851773e-09	1.352967e+01	3.167294e+02
1.970000e-06	1.995780e-06	4.789345e-09	1.335846e+01	3.144555e+02
1.980000e-06	1.969576e-06	4.717014e-09	1.318307e+01	3.120265e+02
1.990000e-06	1.942649e-06	4.755680e-09	1.300284e+01	3.094672e+02
2.000000e-06	1.915198e-06	4.718229e-09	1.281910e+01	3.068400e+02
2.010000e-06	1.887206e-06	4.632446e-09	1.263174e+01	3.042098e+02
2.020000e-06	1.858263e-06	4.584740e-09	1.243801e+01	3.016070e+02
2.030000e-06	1.828308e-06	4.534008e-09	1.223751e+01	2.990098e+02
2.040000e-06	1.797617e-06	4.558823e-09	1.203208e+01	2.963556e+02
2.050000e-06	1.766337e-06	4.524925e-09	1.182272e+01	2.935763e+02
2.060000e-06	1.734559e-06	4.380290e-09	1.161001e+01	2.906339e+02
2.070000e-06	1.702205e-06	4.358679e-09	1.139346e+01	2.875388e+02
2.080000e-06	1.669201e-06	4.388841e-09	1.117256e+01	2.843395e+02
2.090000e-06	1.635678e-06	4.306948e-09	1.094817e+01	2.810933e+02
2.100000e-06	1.601630e-06	4.230217e-09	1.072027e+01	2.778343e+02
2.110000e-06	1.567011e-06	4.173094e-09	1.048856e+01	2.745580e+02
2.120000e-06	1.531924e-06	4.120630e-09	1.025371e+01	2.712282e+02
2.130000e-06	1.496480e-06	4.116362e-09	1.001647e+01	2.677998e+02
2.140000e-06	1.460702e-06	4.053509e-09	9.776994e+00	2.642428e+02
2.150000e-06	1.424398e-06	3.950151e-09	9.533999e+00	2.605535e+02
2.160000e-06	1.387251e-06	3.895989e-09	9.285364e+00	2.567507e+02
2.170000e-06	1.349153e-06	3.863917e-09	9.030360e+00	2.528618e+02
2.180000e-06	1.310330e-06	3.820246e-09	8.770501e+00	2.489108e+02
2.190000e-06	1.271107e-06	3.735792e-09	8.507966e+00	2.449137e+02
2.200000e-06	1.231647e-06	3.643219e-09	8.243846e+00	2.408807e+02
2.210000e-06	1.191928e-06	3.601009e-09	7.977992e+00	2.368199e+02
2.220000e-06	1.151807e-06	3.571409e-09	7.709453e+00	2.327340e+02
2.230000e-06	1.111219e-06	3.501700e-09	7.437779e+00	2.286140e+02
2.240000e-06	1.070209e-06	3.411806e-09	7.163289e+00	2.244344e+02
2.250000e-06	1.028896e-06	3.332353e-09	6.886764e+00	2.201580e+02
2.260000e-06	9.873049e-07	3.288002e-09	6.608380e+00	2.157517e+02
2.270000e-06	9.453442e-07	3.241010e-09	6.327523e+00	2.112051e+02
2.280000e-06	9.029716e-07	3.151790e-09	6.043908e+00	2.065397e+02
2.290000e-06	8.602597e-07	3.055118e-09	5.758023e+00	2.018007e+02
2.300000e-06	8.172440e-07	2.986191e-09	5.470103e+00	1.970330e+02
2.310000e-06	7.739922e-07	2.943345e-09	5.180603e+00	1.922554e+02
2.320000e-06	7.306398e-07	2.875424e-09	4.890431e+00	1.874484e+02
2.330000e-06	6.872000e-07	2.770573e-09	4.599672e+00	1.825635e+02
2.340000e-06	6.436802e-07	2.681566e-09	4.308379e+00	1.775493e+02
2.350000e-06	6.000411e-07	2.624608e-09	4.016287e+00	1.723789e+02
2.360000e-06	5.562052e-07	2.561763e-09	3.722878e+00	1.670629e+02
2.370000e-06	5.121174e-07	2.469809e-09	3.427783e+00	1.616409e+02
2.380000e-06	4.677913e-07	2.364879e-09	3.131093e+00	1.561590e+02
2.390000e-06	4.232540e-07	2.280218e-09	2.832989e+00	1.506468e+02
2.400000e-06	3.785547e-07	2.216720e-09	2.533800e+00	1.451069e+02
2.410000e-06	3.336706e-07	2.137833e-09	2.233375e+00	1.395198e+02
2.420000e-06	2.885741e-07	2.034885e-09	1.931529e+00	1.338579e+02
2.430000e-06	2.434104e-07	1.931156e-09	1.629232e+00	1.280983e+02
2.440000e-06	1.981508e-07	1.850250e-09	1.326293e+00	1.222282e+02
2.450000e-06	1.527198e-07	1.778028e-09	1.022207e+00	1.162440e+02
2.460000e-06	1.072163e-07	1.682227e-09	7.176363e-01	1.101487e+02
2.470000e-06	6.173861e-08	1.568126e-09	4.132384e-01	1.039515e+02
2.480000e-06	1.628029e-08	1.466773e-09	1.089698e-01	9.766789e+01
2.490000e-06	-2.914035e-08	1.387166e-09	-1.950467e-01	9.131672e+01
2.500000e-06	-7.452326e-08	1.299572e-09	-4.988105e-01	8.491144e+01
2.510000e-06	-1.199296e-07	1.188789e-09	-8.027311e-01	7.845002e+01
2.520000e-06	-1.652671e-07	1.074962e-09	-1.106191e+00	7.191126e+01
2.530000e-06	-2.104491e-07	9.797635e-10	-1.408610e+00	6.526324e+01
2.540000e-06	-2.555417e-07	8.921256e-10	-1.710431e+00	5.848111e+01
2.550000e-06	-3.005721e-07	7.873021e-10	-2.011836e+00	5.156372e+01
2.560000e-06	-3.455023e-07	6.657534e-10	-2.312569e+00	4.453717e+01
2.570000e-06	-3.902705e-07	5.513559e-10	-2.612219e+00	3.744089e+01
2.580000e-06	-4.348388e-07	4.558051e-10	-2.910530e+00	3.030464e+01
2.590000e-06	-4.792471e-07	3.574000e-10	-3.207770e+00	2.313134e+01
2.600000e-06	-5.234430e-07	2.385257e-10	-3.503589e+00	1.589821e+01
2.610000e-06	-5.673279e-07	1.111111e-10	-3.797326e+00	8.575647e+00
2.620000e-06	-6.109728e-07	4.643738e-13	-4.089457e+00	1.150672e+00
2.630000e-06	-6.545180e-07	-9.866820e-11	-4.380920e+00	-6.361977e+00
2.640000e-06	-6.979930e-07	-2.111259e-10	-4.671914e+00	-1.392939e+01
2.650000e-06	-7.413980e-07	-3.392478e-10	-4.962439e+00	-2.152361e+01
2.660000e-06	-7.846908e-07	-4.625899e-10	-5.252213e+00	-2.914086e+01
2.670000e-06	-8.277881e-07	-5.706059e-10	-5.540679e+00	-3.680163e+01
2.680000e-06	-8.706320e-07	-6.781538e-10	-5.827448e+00	-4.453047e+01
2.690000e-06	-9.131265e-07	-8.007510e-10	-6.111878e+00	-5.232993e+01
2.700000e-06	-9.552134e-07	-9.329051e-10	-6.393581e+00	-6.016883e+01
2.710000e-06	-9.969592e-07	-1.052403e-09	-6.673001e+00	-6.799556e+01
2.720000e-06	-1.038418e-06	-1.159362e-09	-6.950500e+00	-7.576953e+01
2.730000e-06	-1.079556e-06	-1.271042e-09	-7.225849e+00	-8.348935e+01
2.740000e-06	-1.120303e-06	-1.395359e-09	-7.498581e+00	-9.119715e+01
2.750000e-06	-1.160641e-06	-1.521636e-09	-7.768580e+00	-9.895351e+01
2.760000e-06	-1.200536e-06	-1.636257e-09	-8.035614e+00	-1.067970e+02
2.770000e-06	-1.240055e-06	-1.747234e-09	-8.300129e+00	-1.147141e+02
2.780000e-06	-1.279346e-06	-1.867337e-09	-8.563113e+00	-1.226377e+02
2.790000e-06	-1.318348e-06	-1.994684e-09	-8.824167e+00	-1.304779e+02
2.800000e-06	-1.356807e-06	-2.113985e-09	-9.081587e+00	-1.381645e+02
2.810000e-06	-1.394532e-06	-2.221280e-09	-9.334093e+00	-1.456788e+02
2.820000e-06	-1.431464e-06	-2.329548e-09	-9.581293e+00	-1.530559e+02
2.830000e-06	-1.467647e-06	-2.447090e-09	-9.823481e+00	-1.603592e+02
2.840000e-06	-1.503304e-06	-2.564771e-09	-1.006215e+01	-1.676434e+02
2.850000e-06	-1.538626e-06	-2.670885e-09	-1.029857e+01	-1.749250e+02
2.860000e-06	-1.573573e-06	-2.770823e-09	-1.053248e+01	-1.821754e+02
2.870000e-06	-1.607997e-06	-2.877163e-09	-1.076289e+01	-1.893348e+02
2.880000e-06	-1.641827e-06	-2.990566e-09	-1.098933e+01	-1.963376e+02
2.890000e-06	-1.675056e-06	-3.096818e-09	-1.121174e+01	-2.031365e+02
2.900000e-06	-1.707689e-06	-3.190545e-09	-1.143017e+01	-2.097168e+02
2.910000e-06	-1.739767e-06	-3.282793e-09	-1.164487e+01	-2.160972e+02
2.920000e-06	-1.771355e-06	-3.382546e-09	-1.185630e+01	-2.223189e+02
2.930000e-06	-1.802455e-06	-3.482385e-09	-1.206447e+01	-2.284268e+02
2.940000e-06	-1.832832e-06	-3.570672e-09	-1.226779e+01	-2.344482e+02
