# Temperatura_=_20.0
# Concentracion g/m^3_=_10000.0
# C_Vs_to_Am_M_A/Vsm_=_65563218390.804596
# pendiente_HvsI_1/m_=_3716.3
# ordenada_HvsI_A/m_=_1297.0
# frecuencia_Hz_=_301415.8841851351

Tiempo_(s)	Campo_(V.s)	Magnetizacion_(V.s)	Campo_(kA/m)	Magnetizacion_(A/m)
0.000000e+00	-2.414280e-06	-5.221110e-09	-1.613286e+01	-3.423739e+02
1.000000e-08	-2.413978e-06	-5.224786e-09	-1.613084e+01	-3.427002e+02
2.000000e-08	-2.413011e-06	-5.227530e-09	-1.612437e+01	-3.429234e+02
3.000000e-08	-2.411091e-06	-5.231129e-09	-1.611154e+01	-3.430570e+02
4.000000e-08	-2.408059e-06	-5.234422e-09	-1.609129e+01	-3.431228e+02
5.000000e-08	-2.404157e-06	-5.232809e-09	-1.606521e+01	-3.431370e+02
6.000000e-08	-2.399633e-06	-5.225991e-09	-1.603498e+01	-3.430920e+02
7.000000e-08	-2.394345e-06	-5.216929e-09	-1.599964e+01	-3.429498e+02
8.000000e-08	-2.388119e-06	-5.242039e-09	-1.595804e+01	-3.426585e+02
9.000000e-08	-2.380884e-06	-5.270827e-09	-1.590970e+01	-3.421870e+02
1.000000e-07	-2.372785e-06	-5.205544e-09	-1.585558e+01	-3.415555e+02
1.100000e-07	-2.364208e-06	-5.135997e-09	-1.579826e+01	-3.408389e+02
1.200000e-07	-2.355044e-06	-5.169098e-09	-1.573702e+01	-3.401351e+02
1.300000e-07	-2.344698e-06	-5.261213e-09	-1.566789e+01	-3.395132e+02
1.400000e-07	-2.333079e-06	-5.173315e-09	-1.559025e+01	-3.389727e+02
1.500000e-07	-2.320625e-06	-5.130244e-09	-1.550703e+01	-3.384398e+02
1.600000e-07	-2.307370e-06	-5.188697e-09	-1.541846e+01	-3.378052e+02
1.700000e-07	-2.293055e-06	-5.179852e-09	-1.532279e+01	-3.369813e+02
1.800000e-07	-2.277861e-06	-5.098372e-09	-1.522127e+01	-3.359440e+02
1.900000e-07	-2.261934e-06	-5.129571e-09	-1.511484e+01	-3.347343e+02
2.000000e-07	-2.244937e-06	-5.169289e-09	-1.500126e+01	-3.334221e+02
2.100000e-07	-2.226868e-06	-5.002840e-09	-1.488052e+01	-3.320582e+02
2.200000e-07	-2.208176e-06	-5.026010e-09	-1.475561e+01	-3.306446e+02
2.300000e-07	-2.188884e-06	-5.120455e-09	-1.462670e+01	-3.291422e+02
2.400000e-07	-2.168806e-06	-5.013269e-09	-1.449253e+01	-3.275054e+02
2.500000e-07	-2.148047e-06	-4.896574e-09	-1.435381e+01	-3.257173e+02
2.600000e-07	-2.126666e-06	-4.971374e-09	-1.421094e+01	-3.238023e+02
2.700000e-07	-2.104571e-06	-4.954621e-09	-1.406330e+01	-3.218075e+02
2.800000e-07	-2.081668e-06	-4.869453e-09	-1.391025e+01	-3.197702e+02
2.900000e-07	-2.058012e-06	-4.859977e-09	-1.375217e+01	-3.176947e+02
3.000000e-07	-2.033734e-06	-4.836017e-09	-1.358995e+01	-3.155542e+02
3.100000e-07	-2.008947e-06	-4.764037e-09	-1.342431e+01	-3.133148e+02
3.200000e-07	-1.983460e-06	-4.765389e-09	-1.325400e+01	-3.109622e+02
3.300000e-07	-1.956881e-06	-4.751663e-09	-1.307639e+01	-3.085116e+02
3.400000e-07	-1.929268e-06	-4.652422e-09	-1.289187e+01	-3.059954e+02
3.500000e-07	-1.901018e-06	-4.616352e-09	-1.270311e+01	-3.034394e+02
3.600000e-07	-1.872337e-06	-4.603945e-09	-1.251145e+01	-3.008457e+02
3.700000e-07	-1.843050e-06	-4.592278e-09	-1.231575e+01	-2.981943e+02
3.800000e-07	-1.813024e-06	-4.518931e-09	-1.211510e+01	-2.954611e+02
3.900000e-07	-1.782403e-06	-4.455832e-09	-1.191048e+01	-2.926357e+02
4.000000e-07	-1.751216e-06	-4.416113e-09	-1.170208e+01	-2.897276e+02
4.100000e-07	-1.719424e-06	-4.397728e-09	-1.148964e+01	-2.867543e+02
4.200000e-07	-1.687149e-06	-4.347738e-09	-1.127398e+01	-2.837234e+02
4.300000e-07	-1.654444e-06	-4.277289e-09	-1.105543e+01	-2.806233e+02
4.400000e-07	-1.621133e-06	-4.228764e-09	-1.083283e+01	-2.774291e+02
4.500000e-07	-1.586979e-06	-4.183114e-09	-1.060461e+01	-2.741201e+02
4.600000e-07	-1.551916e-06	-4.159322e-09	-1.037031e+01	-2.706950e+02
4.700000e-07	-1.516114e-06	-4.089080e-09	-1.013108e+01	-2.671722e+02
4.800000e-07	-1.479904e-06	-4.015635e-09	-9.889106e+00	-2.635761e+02
4.900000e-07	-1.443389e-06	-3.954531e-09	-9.645105e+00	-2.599192e+02
5.000000e-07	-1.406421e-06	-3.922507e-09	-9.398074e+00	-2.561948e+02
5.100000e-07	-1.368879e-06	-3.873432e-09	-9.147208e+00	-2.523856e+02
5.200000e-07	-1.330803e-06	-3.797637e-09	-8.892778e+00	-2.484822e+02
5.300000e-07	-1.292335e-06	-3.724066e-09	-8.635720e+00	-2.444974e+02
5.400000e-07	-1.253453e-06	-3.668065e-09	-8.375901e+00	-2.404627e+02
5.500000e-07	-1.214053e-06	-3.625410e-09	-8.112619e+00	-2.364096e+02
5.600000e-07	-1.174198e-06	-3.552721e-09	-7.846301e+00	-2.323466e+02
5.700000e-07	-1.134069e-06	-3.480750e-09	-7.578149e+00	-2.282495e+02
5.800000e-07	-1.093748e-06	-3.406887e-09	-7.308713e+00	-2.240723e+02
5.900000e-07	-1.053235e-06	-3.354846e-09	-7.037994e+00	-2.197736e+02
6.000000e-07	-1.012323e-06	-3.300164e-09	-6.764611e+00	-2.153419e+02
6.100000e-07	-9.708597e-07	-3.224390e-09	-6.487540e+00	-2.108034e+02
6.200000e-07	-9.288124e-07	-3.137784e-09	-6.206569e+00	-2.062068e+02
6.300000e-07	-8.861553e-07	-3.067406e-09	-5.921523e+00	-2.015945e+02
6.400000e-07	-8.429863e-07	-3.016627e-09	-5.633057e+00	-1.969774e+02
6.500000e-07	-7.994200e-07	-2.947041e-09	-5.341935e+00	-1.923287e+02
6.600000e-07	-7.555358e-07	-2.865077e-09	-5.048689e+00	-1.875985e+02
6.700000e-07	-7.114359e-07	-2.777667e-09	-4.754002e+00	-1.827411e+02
6.800000e-07	-6.672115e-07	-2.709995e-09	-4.458483e+00	-1.777380e+02
6.900000e-07	-6.228908e-07	-2.641673e-09	-4.162320e+00	-1.726042e+02
7.000000e-07	-5.784434e-07	-2.559020e-09	-3.865311e+00	-1.673771e+02
7.100000e-07	-5.338635e-07	-2.466553e-09	-3.567416e+00	-1.620953e+02
7.200000e-07	-4.891349e-07	-2.382318e-09	-3.268528e+00	-1.567808e+02
7.300000e-07	-4.441972e-07	-2.312397e-09	-2.968243e+00	-1.514318e+02
7.400000e-07	-3.990322e-07	-2.235034e-09	-2.666438e+00	-1.460296e+02
7.500000e-07	-3.536984e-07	-2.147374e-09	-2.363506e+00	-1.405508e+02
7.600000e-07	-3.082788e-07	-2.049254e-09	-2.060000e+00	-1.349784e+02
7.700000e-07	-2.627307e-07	-1.965012e-09	-1.755635e+00	-1.293057e+02
7.800000e-07	-2.170275e-07	-1.886243e-09	-1.450235e+00	-1.235339e+02
7.900000e-07	-1.712144e-07	-1.800559e-09	-1.144100e+00	-1.176667e+02
8.000000e-07	-1.253720e-07	-1.701343e-09	-8.377686e-01	-1.117073e+02
8.100000e-07	-7.952832e-08	-1.601765e-09	-5.314292e-01	-1.056586e+02
8.200000e-07	-3.365383e-08	-1.515224e-09	-2.248837e-01	-9.952502e+01
8.300000e-07	1.226960e-08	-1.428138e-09	8.198868e-02	-9.331325e+01
8.400000e-07	5.817997e-08	-1.331421e-09	3.887739e-01	-8.702941e+01
8.500000e-07	1.040253e-07	-1.223377e-09	6.951247e-01	-8.067442e+01
8.600000e-07	1.498401e-07	-1.124276e-09	1.001271e+00	-7.424087e+01
8.700000e-07	1.956638e-07	-1.032275e-09	1.307477e+00	-6.771449e+01
8.800000e-07	2.414387e-07	-9.367638e-10	1.613357e+00	-6.108065e+01
8.900000e-07	2.870447e-07	-8.276070e-10	1.918108e+00	-5.433258e+01
9.000000e-07	3.324331e-07	-7.158149e-10	2.221406e+00	-4.747638e+01
9.100000e-07	3.776535e-07	-6.142672e-10	2.523580e+00	-4.052925e+01
9.200000e-07	4.227534e-07	-5.146330e-10	2.824950e+00	-3.351149e+01
9.300000e-07	4.676804e-07	-4.076709e-10	3.125164e+00	-2.643676e+01
9.400000e-07	5.124365e-07	-2.913065e-10	3.424235e+00	-1.930640e+01
9.500000e-07	5.570403e-07	-1.805193e-10	3.722290e+00	-1.211103e+01
9.600000e-07	6.015017e-07	-7.534835e-11	4.019393e+00	-4.838360e+00
9.700000e-07	6.458716e-07	3.253543e-11	4.315884e+00	2.518214e+00
9.800000e-07	6.901534e-07	1.511481e-10	4.611786e+00	9.955568e+00
9.900000e-07	7.342991e-07	2.725719e-10	4.906780e+00	1.746347e+01
1.000000e-06	7.782957e-07	3.869228e-10	5.200777e+00	2.503114e+01
1.010000e-06	8.220890e-07	4.962822e-10	5.493415e+00	3.265217e+01
1.020000e-06	8.654722e-07	6.105001e-10	5.783313e+00	4.032369e+01
1.030000e-06	9.082991e-07	7.354006e-10	6.069493e+00	4.804036e+01
1.040000e-06	9.505120e-07	8.559689e-10	6.351571e+00	5.578817e+01
1.050000e-06	9.920762e-07	9.692874e-10	6.629314e+00	6.354421e+01
1.060000e-06	1.033105e-06	1.082660e-09	6.903480e+00	7.128449e+01
1.070000e-06	1.073738e-06	1.204947e-09	7.174998e+00	7.899621e+01
1.080000e-06	1.114099e-06	1.329554e-09	7.444703e+00	8.668617e+01
1.090000e-06	1.154259e-06	1.448083e-09	7.713061e+00	9.437865e+01
1.100000e-06	1.194172e-06	1.561619e-09	7.979773e+00	1.021016e+02
1.110000e-06	1.233704e-06	1.677737e-09	8.243935e+00	1.098681e+02
1.120000e-06	1.272762e-06	1.800496e-09	8.504928e+00	1.176630e+02
1.130000e-06	1.311371e-06	1.923339e-09	8.762924e+00	1.254436e+02
1.140000e-06	1.349525e-06	2.040907e-09	9.017883e+00	1.331550e+02
1.150000e-06	1.387202e-06	2.152437e-09	9.269651e+00	1.407523e+02
1.160000e-06	1.424373e-06	2.266918e-09	9.518038e+00	1.482192e+02
1.170000e-06	1.461076e-06	2.385395e-09	9.763295e+00	1.555726e+02
1.180000e-06	1.497456e-06	2.499466e-09	1.000639e+01	1.628506e+02
1.190000e-06	1.533531e-06	2.605428e-09	1.024746e+01	1.700904e+02
1.200000e-06	1.569121e-06	2.711710e-09	1.048528e+01	1.773058e+02
1.210000e-06	1.603977e-06	2.824236e-09	1.071820e+01	1.844752e+02
1.220000e-06	1.637879e-06	2.935813e-09	1.094474e+01	1.915455e+02
1.230000e-06	1.670911e-06	3.040060e-09	1.116547e+01	1.984514e+02
1.240000e-06	1.703398e-06	3.137742e-09	1.138255e+01	2.051417e+02
1.250000e-06	1.735504e-06	3.236424e-09	1.159710e+01	2.116014e+02
1.260000e-06	1.767087e-06	3.338039e-09	1.180814e+01	2.178578e+02
1.270000e-06	1.798013e-06	3.435276e-09	1.201480e+01	2.239678e+02
1.280000e-06	1.828340e-06	3.524996e-09	1.221745e+01	2.299885e+02
1.290000e-06	1.857996e-06	3.612028e-09	1.241562e+01	2.359458e+02
1.300000e-06	1.886990e-06	3.702813e-09	1.260936e+01	2.418163e+02
1.310000e-06	1.915520e-06	3.793613e-09	1.280001e+01	2.475338e+02
1.320000e-06	1.943594e-06	3.878123e-09	1.298760e+01	2.530190e+02
1.330000e-06	1.970951e-06	3.952968e-09	1.317041e+01	2.582198e+02
1.340000e-06	1.997327e-06	4.025703e-09	1.334666e+01	2.631388e+02
1.350000e-06	2.022670e-06	4.101514e-09	1.351601e+01	2.678338e+02
1.360000e-06	2.047185e-06	4.174296e-09	1.367983e+01	2.723883e+02
1.370000e-06	2.071081e-06	4.239372e-09	1.383951e+01	2.768681e+02
1.380000e-06	2.094340e-06	4.300456e-09	1.399493e+01	2.812886e+02
1.390000e-06	2.116880e-06	4.365731e-09	1.414555e+01	2.856095e+02
1.400000e-06	2.138674e-06	4.434190e-09	1.429118e+01	2.897612e+02
1.410000e-06	2.159716e-06	4.496196e-09	1.443179e+01	2.936843e+02
1.420000e-06	2.180142e-06	4.547137e-09	1.456828e+01	2.973599e+02
1.430000e-06	2.200034e-06	4.595264e-09	1.470120e+01	3.008145e+02
1.440000e-06	2.219141e-06	4.647821e-09	1.482888e+01	3.040977e+02
1.450000e-06	2.237349e-06	4.699166e-09	1.495055e+01	3.072522e+02
1.460000e-06	2.254769e-06	4.742110e-09	1.506696e+01	3.102928e+02
1.470000e-06	2.271372e-06	4.779677e-09	1.517790e+01	3.132081e+02
1.480000e-06	2.287073e-06	4.820387e-09	1.528282e+01	3.159776e+02
1.490000e-06	2.301889e-06	4.865762e-09	1.538183e+01	3.185906e+02
1.500000e-06	2.315886e-06	4.906669e-09	1.547536e+01	3.210522e+02
1.510000e-06	2.329047e-06	4.938352e-09	1.556331e+01	3.233742e+02
1.520000e-06	2.341369e-06	4.965896e-09	1.564565e+01	3.255614e+02
1.530000e-06	2.352713e-06	4.996305e-09	1.572145e+01	3.276055e+02
1.540000e-06	2.362818e-06	5.028767e-09	1.578897e+01	3.294931e+02
1.550000e-06	2.371840e-06	5.054605e-09	1.584926e+01	3.312213e+02
1.560000e-06	2.380142e-06	5.074692e-09	1.590474e+01	3.328081e+02
1.570000e-06	2.387735e-06	5.095685e-09	1.595547e+01	3.342869e+02
1.580000e-06	2.394513e-06	5.119846e-09	1.600076e+01	3.356883e+02
1.590000e-06	2.400462e-06	5.143370e-09	1.604052e+01	3.370215e+02
1.600000e-06	2.405608e-06	5.161161e-09	1.607490e+01	3.382678e+02
1.610000e-06	2.410092e-06	5.175257e-09	1.610487e+01	3.393932e+02
1.620000e-06	2.413866e-06	5.190797e-09	1.613009e+01	3.403682e+02
1.630000e-06	2.416543e-06	5.206905e-09	1.614798e+01	3.411833e+02
1.640000e-06	2.418029e-06	5.219452e-09	1.615790e+01	3.418499e+02
1.650000e-06	2.418672e-06	5.225276e-09	1.616220e+01	3.423876e+02
1.660000e-06	2.418649e-06	5.228316e-09	1.616205e+01	3.428110e+02
1.670000e-06	2.417871e-06	5.232352e-09	1.615685e+01	3.431264e+02
1.680000e-06	2.416310e-06	5.238746e-09	1.614642e+01	3.433398e+02
1.690000e-06	2.413953e-06	5.242019e-09	1.613067e+01	3.434655e+02
1.700000e-06	2.410902e-06	5.239788e-09	1.611028e+01	3.435258e+02
1.710000e-06	2.407293e-06	5.239772e-09	1.608617e+01	3.435352e+02
1.720000e-06	2.403004e-06	5.252143e-09	1.605751e+01	3.434826e+02
1.730000e-06	2.397731e-06	5.246939e-09	1.602227e+01	3.433274e+02
1.740000e-06	2.391255e-06	5.191247e-09	1.597899e+01	3.430181e+02
1.750000e-06	2.383514e-06	5.179668e-09	1.592727e+01	3.425280e+02
1.760000e-06	2.374617e-06	5.264256e-09	1.586781e+01	3.418836e+02
1.770000e-06	2.365155e-06	5.246534e-09	1.580459e+01	3.411642e+02
1.780000e-06	2.355554e-06	5.158216e-09	1.574043e+01	3.404674e+02
1.790000e-06	2.345245e-06	5.142965e-09	1.567154e+01	3.398563e+02
1.800000e-06	2.333449e-06	5.198368e-09	1.559272e+01	3.393218e+02
1.810000e-06	2.320765e-06	5.163413e-09	1.550796e+01	3.387838e+02
1.820000e-06	2.307789e-06	5.089985e-09	1.542125e+01	3.381328e+02
1.830000e-06	2.293627e-06	5.173129e-09	1.532662e+01	3.372865e+02
1.840000e-06	2.278036e-06	5.133284e-09	1.522244e+01	3.362283e+02
1.850000e-06	2.261870e-06	5.014749e-09	1.511441e+01	3.350048e+02
1.860000e-06	2.245207e-06	5.087403e-09	1.500307e+01	3.336859e+02
1.870000e-06	2.227447e-06	5.148505e-09	1.488439e+01	3.323180e+02
1.880000e-06	2.208703e-06	4.981517e-09	1.475914e+01	3.308978e+02
1.890000e-06	2.189461e-06	4.929009e-09	1.463056e+01	3.293835e+02
1.900000e-06	2.169683e-06	5.065901e-09	1.449839e+01	3.277311e+02
1.910000e-06	2.149024e-06	5.000174e-09	1.436035e+01	3.259281e+02
1.920000e-06	2.127324e-06	4.859613e-09	1.421534e+01	3.240027e+02
1.930000e-06	2.104675e-06	4.913110e-09	1.406399e+01	3.220026e+02
1.940000e-06	2.081321e-06	4.891542e-09	1.390794e+01	3.199622e+02
1.950000e-06	2.057338e-06	4.800226e-09	1.374767e+01	3.178820e+02
1.960000e-06	2.032572e-06	4.829786e-09	1.358218e+01	3.157328e+02
1.970000e-06	2.007151e-06	4.783713e-09	1.341231e+01	3.134820e+02
1.980000e-06	1.981097e-06	4.693606e-09	1.323821e+01	3.111183e+02
1.990000e-06	1.954296e-06	4.694120e-09	1.305912e+01	3.086595e+02
2.000000e-06	1.926954e-06	4.691394e-09	1.287641e+01	3.061388e+02
2.010000e-06	1.899114e-06	4.622370e-09	1.269038e+01	3.035797e+02
2.020000e-06	1.870384e-06	4.567006e-09	1.249840e+01	3.009815e+02
2.030000e-06	1.840627e-06	4.513442e-09	1.229956e+01	2.983230e+02
2.040000e-06	1.810074e-06	4.500541e-09	1.209539e+01	2.955805e+02
2.050000e-06	1.778914e-06	4.487823e-09	1.188717e+01	2.927461e+02
2.060000e-06	1.747279e-06	4.395055e-09	1.167578e+01	2.898308e+02
2.070000e-06	1.715090e-06	4.349975e-09	1.146068e+01	2.868517e+02
2.080000e-06	1.682258e-06	4.328677e-09	1.124129e+01	2.838149e+02
2.090000e-06	1.648859e-06	4.282400e-09	1.101811e+01	2.807065e+02
2.100000e-06	1.614905e-06	4.235309e-09	1.079122e+01	2.775013e+02
2.110000e-06	1.580359e-06	4.163621e-09	1.056037e+01	2.741801e+02
2.120000e-06	1.545330e-06	4.098600e-09	1.032630e+01	2.707439e+02
2.130000e-06	1.509939e-06	4.074570e-09	1.008981e+01	2.672127e+02
2.140000e-06	1.474190e-06	4.032350e-09	9.850923e+00	2.636104e+02
2.150000e-06	1.437962e-06	3.957548e-09	9.608841e+00	2.599475e+02
2.160000e-06	1.400932e-06	3.891596e-09	9.361396e+00	2.562154e+02
2.170000e-06	1.362974e-06	3.827820e-09	9.107749e+00	2.523967e+02
2.180000e-06	1.324296e-06	3.792897e-09	8.849292e+00	2.484841e+02
2.190000e-06	1.285150e-06	3.733263e-09	8.587708e+00	2.444928e+02
2.200000e-06	1.245743e-06	3.651697e-09	8.324384e+00	2.404554e+02
2.210000e-06	1.206048e-06	3.592408e-09	8.059130e+00	2.364019e+02
2.220000e-06	1.165965e-06	3.536585e-09	7.791286e+00	2.323375e+02
2.230000e-06	1.125445e-06	3.487332e-09	7.520522e+00	2.282348e+02
2.240000e-06	1.084519e-06	3.424360e-09	7.247043e+00	2.240467e+02
2.250000e-06	1.043275e-06	3.340088e-09	6.971439e+00	2.197341e+02
2.260000e-06	1.001749e-06	3.266063e-09	6.693952e+00	2.152897e+02
2.270000e-06	9.599119e-07	3.218423e-09	6.414384e+00	2.107431e+02
2.280000e-06	9.176535e-07	3.152850e-09	6.132002e+00	2.061437e+02
2.290000e-06	8.749623e-07	3.070674e-09	5.846728e+00	2.015316e+02
2.300000e-06	8.319386e-07	2.987412e-09	5.559233e+00	1.969136e+02
2.310000e-06	7.886910e-07	2.922647e-09	5.270241e+00	1.922592e+02
2.320000e-06	7.452982e-07	2.866930e-09	4.980278e+00	1.875178e+02
2.330000e-06	7.018094e-07	2.788373e-09	4.689675e+00	1.826456e+02
2.340000e-06	6.582296e-07	2.703168e-09	4.398463e+00	1.776277e+02
2.350000e-06	6.145203e-07	2.621339e-09	4.106386e+00	1.724825e+02
2.360000e-06	5.705809e-07	2.551694e-09	3.812772e+00	1.672484e+02
2.370000e-06	5.264357e-07	2.479817e-09	3.517782e+00	1.619631e+02
2.380000e-06	4.820913e-07	2.392826e-09	3.221461e+00	1.566458e+02
2.390000e-06	4.375346e-07	2.299163e-09	2.923722e+00	1.512928e+02
2.400000e-06	3.927812e-07	2.217650e-09	2.624668e+00	1.458840e+02
2.410000e-06	3.478485e-07	2.146105e-09	2.324415e+00	1.403964e+02
2.420000e-06	3.028041e-07	2.065656e-09	2.023416e+00	1.348139e+02
2.430000e-06	2.576594e-07	1.970638e-09	1.721748e+00	1.291310e+02
2.440000e-06	2.124383e-07	1.872916e-09	1.419568e+00	1.233493e+02
2.450000e-06	1.670829e-07	1.791066e-09	1.116492e+00	1.174726e+02
2.460000e-06	1.215791e-07	1.709348e-09	8.124237e-01	1.115041e+02
2.470000e-06	7.600136e-08	1.615383e-09	5.078611e-01	1.054466e+02
2.480000e-06	3.043634e-08	1.510848e-09	2.033837e-01	9.930483e+01
2.490000e-06	-1.506798e-08	1.413416e-09	-1.006882e-01	9.308565e+01
2.500000e-06	-6.057156e-08	1.327853e-09	-4.047551e-01	8.679481e+01
2.510000e-06	-1.060716e-07	1.235624e-09	-7.087986e-01	8.043246e+01
2.520000e-06	-1.514934e-07	1.131099e-09	-1.012319e+00	7.399027e+01
2.530000e-06	-1.967832e-07	1.022208e-09	-1.314957e+00	6.745355e+01
2.540000e-06	-2.419899e-07	9.250592e-10	-1.617040e+00	6.080813e+01
2.550000e-06	-2.871642e-07	8.316491e-10	-1.918907e+00	5.404850e+01
2.560000e-06	-3.322294e-07	7.272127e-10	-2.220044e+00	4.718214e+01
2.570000e-06	-3.771004e-07	6.115309e-10	-2.519884e+00	4.022705e+01
2.580000e-06	-4.217600e-07	5.000670e-10	-2.818312e+00	3.320327e+01
2.590000e-06	-4.662430e-07	3.984613e-10	-3.115558e+00	2.612330e+01
2.600000e-06	-5.105504e-07	2.959548e-10	-3.411632e+00	1.898709e+01
2.610000e-06	-5.546111e-07	1.825665e-10	-3.706058e+00	1.178454e+01
2.620000e-06	-5.984380e-07	6.190929e-11	-3.998920e+00	4.503580e+00
2.630000e-06	-6.421024e-07	-5.009326e-11	-4.290697e+00	-2.861423e+00
2.640000e-06	-6.856353e-07	-1.552316e-10	-4.581595e+00	-1.030635e+01
2.650000e-06	-7.291037e-07	-2.650209e-10	-4.872063e+00	-1.782058e+01
2.660000e-06	-7.725057e-07	-3.858844e-10	-5.162087e+00	-2.539363e+01
2.670000e-06	-8.157207e-07	-5.073983e-10	-5.450861e+00	-3.301964e+01
2.680000e-06	-8.586449e-07	-6.210352e-10	-5.737691e+00	-4.069582e+01
2.690000e-06	-9.012442e-07	-7.332945e-10	-6.022351e+00	-4.841614e+01
2.700000e-06	-9.435091e-07	-8.540389e-10	-6.304776e+00	-5.616549e+01
2.710000e-06	-9.854273e-07	-9.805112e-10	-6.584885e+00	-6.392035e+01
2.720000e-06	-1.027019e-06	-1.098317e-09	-6.862814e+00	-7.165733e+01
2.730000e-06	-1.068308e-06	-1.207096e-09	-7.138717e+00	-7.936548e+01
2.740000e-06	-1.109232e-06	-1.317381e-09	-7.412179e+00	-8.705379e+01
2.750000e-06	-1.149758e-06	-1.438853e-09	-7.682985e+00	-9.474776e+01
2.760000e-06	-1.189858e-06	-1.563363e-09	-7.950943e+00	-1.024747e+02
2.770000e-06	-1.229560e-06	-1.679934e-09	-8.216240e+00	-1.102449e+02
2.780000e-06	-1.269011e-06	-1.790622e-09	-8.479867e+00	-1.180402e+02
2.790000e-06	-1.308221e-06	-1.905929e-09	-8.741876e+00	-1.258154e+02
2.800000e-06	-1.346984e-06	-2.029746e-09	-9.000903e+00	-1.335158e+02
2.810000e-06	-1.385044e-06	-2.149529e-09	-9.255230e+00	-1.410987e+02
2.820000e-06	-1.422254e-06	-2.258818e-09	-9.503878e+00	-1.485517e+02
2.830000e-06	-1.458672e-06	-2.363590e-09	-9.747228e+00	-1.558944e+02
2.840000e-06	-1.494501e-06	-2.474782e-09	-9.986650e+00	-1.631662e+02
2.850000e-06	-1.529960e-06	-2.590159e-09	-1.022359e+01	-1.704028e+02
2.860000e-06	-1.565085e-06	-2.700784e-09	-1.045831e+01	-1.776144e+02
2.870000e-06	-1.599707e-06	-2.805501e-09	-1.068966e+01	-1.847756e+02
2.880000e-06	-1.633734e-06	-2.911354e-09	-1.091704e+01	-1.918309e+02
2.890000e-06	-1.667206e-06	-3.020637e-09	-1.114071e+01	-1.987150e+02
2.900000e-06	-1.700087e-06	-3.125037e-09	-1.136043e+01	-2.053801e+02
2.910000e-06	-1.732395e-06	-3.220051e-09	-1.157632e+01	-2.118154e+02
2.920000e-06	-1.764194e-06	-3.309283e-09	-1.178881e+01	-2.180526e+02
2.930000e-06	-1.795547e-06	-3.400864e-09	-1.199832e+01	-2.241500e+02
2.940000e-06	-1.826320e-06	-3.495822e-09	-1.220395e+01	-2.301629e+02
