# Temperatura_=_20.0
# Concentracion g/m^3_=_10000.0
# C_Vs_to_Am_M_A/Vsm_=_65563218390.804596
# pendiente_HvsI_1/m_=_3716.3
# ordenada_HvsI_A/m_=_1297.0
# frecuencia_Hz_=_301415.5788185114

Tiempo_(s)	Campo_(V.s)	Magnetizacion_(V.s)	Campo_(kA/m)	Magnetizacion_(A/m)
0.000000e+00	-2.416702e-06	-5.263406e-09	-1.613464e+01	-3.451233e+02
1.000000e-08	-2.416418e-06	-5.267486e-09	-1.613274e+01	-3.455262e+02
2.000000e-08	-2.415575e-06	-5.273313e-09	-1.612712e+01	-3.457940e+02
3.000000e-08	-2.413848e-06	-5.276357e-09	-1.611559e+01	-3.459052e+02
4.000000e-08	-2.410938e-06	-5.276031e-09	-1.609616e+01	-3.458711e+02
5.000000e-08	-2.407036e-06	-5.273435e-09	-1.607010e+01	-3.457390e+02
6.000000e-08	-2.402522e-06	-5.265668e-09	-1.603997e+01	-3.455668e+02
7.000000e-08	-2.397364e-06	-5.242817e-09	-1.600553e+01	-3.453848e+02
8.000000e-08	-2.391318e-06	-5.274480e-09	-1.596517e+01	-3.451668e+02
9.000000e-08	-2.384195e-06	-5.362867e-09	-1.591761e+01	-3.448363e+02
1.000000e-07	-2.376132e-06	-5.316266e-09	-1.586378e+01	-3.443089e+02
1.100000e-07	-2.367593e-06	-5.113051e-09	-1.580677e+01	-3.435493e+02
1.200000e-07	-2.358519e-06	-5.137929e-09	-1.574619e+01	-3.426063e+02
1.300000e-07	-2.348268e-06	-5.340975e-09	-1.567775e+01	-3.416009e+02
1.400000e-07	-2.336674e-06	-5.265369e-09	-1.560035e+01	-3.406675e+02
1.500000e-07	-2.324270e-06	-5.082990e-09	-1.551754e+01	-3.398816e+02
1.600000e-07	-2.311128e-06	-5.165398e-09	-1.542979e+01	-3.392149e+02
1.700000e-07	-2.296842e-06	-5.290232e-09	-1.533442e+01	-3.385476e+02
1.800000e-07	-2.281616e-06	-5.085325e-09	-1.523277e+01	-3.377291e+02
1.900000e-07	-2.265770e-06	-5.102261e-09	-1.512697e+01	-3.366549e+02
2.000000e-07	-2.248873e-06	-5.257859e-09	-1.501416e+01	-3.353118e+02
2.100000e-07	-2.230791e-06	-5.019666e-09	-1.489344e+01	-3.337712e+02
2.200000e-07	-2.212169e-06	-4.922592e-09	-1.476912e+01	-3.321363e+02
2.300000e-07	-2.193011e-06	-5.171827e-09	-1.464121e+01	-3.304819e+02
2.400000e-07	-2.172957e-06	-5.134860e-09	-1.450733e+01	-3.288204e+02
2.500000e-07	-2.152210e-06	-4.851259e-09	-1.436881e+01	-3.271121e+02
2.600000e-07	-2.130899e-06	-4.916885e-09	-1.422653e+01	-3.253049e+02
2.700000e-07	-2.108913e-06	-5.022680e-09	-1.407975e+01	-3.233724e+02
2.800000e-07	-2.086152e-06	-4.908719e-09	-1.392779e+01	-3.213268e+02
2.900000e-07	-2.062556e-06	-4.845837e-09	-1.377025e+01	-3.192013e+02
3.000000e-07	-2.038316e-06	-4.840665e-09	-1.360842e+01	-3.170209e+02
3.100000e-07	-2.013601e-06	-4.764374e-09	-1.344341e+01	-3.147843e+02
3.200000e-07	-1.988243e-06	-4.806020e-09	-1.327412e+01	-3.124705e+02
3.300000e-07	-1.961783e-06	-4.782138e-09	-1.309746e+01	-3.100609e+02
3.400000e-07	-1.934165e-06	-4.651573e-09	-1.291307e+01	-3.075590e+02
3.500000e-07	-1.905912e-06	-4.615556e-09	-1.272445e+01	-3.049911e+02
3.600000e-07	-1.877241e-06	-4.606719e-09	-1.253303e+01	-3.023881e+02
3.700000e-07	-1.847995e-06	-4.607013e-09	-1.233778e+01	-2.997619e+02
3.800000e-07	-1.818069e-06	-4.572018e-09	-1.213798e+01	-2.970959e+02
3.900000e-07	-1.787465e-06	-4.461969e-09	-1.193366e+01	-2.943550e+02
4.000000e-07	-1.756192e-06	-4.374325e-09	-1.172487e+01	-2.915081e+02
4.100000e-07	-1.724378e-06	-4.453202e-09	-1.151247e+01	-2.885467e+02
4.200000e-07	-1.692200e-06	-4.404025e-09	-1.129764e+01	-2.854866e+02
4.300000e-07	-1.659627e-06	-4.263178e-09	-1.108018e+01	-2.823528e+02
4.400000e-07	-1.626362e-06	-4.218551e-09	-1.085809e+01	-2.791608e+02
4.500000e-07	-1.592217e-06	-4.212427e-09	-1.063013e+01	-2.759065e+02
4.600000e-07	-1.557202e-06	-4.190604e-09	-1.039636e+01	-2.725711e+02
4.700000e-07	-1.521426e-06	-4.123050e-09	-1.015750e+01	-2.691360e+02
4.800000e-07	-1.485219e-06	-4.030956e-09	-9.915777e+00	-2.655946e+02
4.900000e-07	-1.448773e-06	-3.950850e-09	-9.672449e+00	-2.619547e+02
5.000000e-07	-1.411913e-06	-3.957981e-09	-9.426364e+00	-2.582319e+02
5.100000e-07	-1.374409e-06	-3.916179e-09	-9.175973e+00	-2.544408e+02
5.200000e-07	-1.336314e-06	-3.817748e-09	-8.921641e+00	-2.505921e+02
5.300000e-07	-1.297833e-06	-3.725645e-09	-8.664731e+00	-2.466943e+02
5.400000e-07	-1.258980e-06	-3.691869e-09	-8.405336e+00	-2.427557e+02
5.500000e-07	-1.219595e-06	-3.675009e-09	-8.142387e+00	-2.387807e+02
5.600000e-07	-1.179707e-06	-3.601760e-09	-7.876082e+00	-2.347615e+02
5.700000e-07	-1.139563e-06	-3.500236e-09	-7.608067e+00	-2.306742e+02
5.800000e-07	-1.099275e-06	-3.418778e-09	-7.339095e+00	-2.264844e+02
5.900000e-07	-1.058788e-06	-3.396479e-09	-7.068789e+00	-2.221648e+02
6.000000e-07	-1.017895e-06	-3.345662e-09	-6.795779e+00	-2.177135e+02
6.100000e-07	-9.764480e-07	-3.256415e-09	-6.519064e+00	-2.131598e+02
6.200000e-07	-9.344465e-07	-3.156339e-09	-6.238649e+00	-2.085511e+02
6.300000e-07	-8.918747e-07	-3.097579e-09	-5.954427e+00	-2.039254e+02
6.400000e-07	-8.487585e-07	-3.062981e-09	-5.666570e+00	-1.992878e+02
6.500000e-07	-8.051839e-07	-2.992326e-09	-5.375653e+00	-1.946050e+02
6.600000e-07	-7.612901e-07	-2.887017e-09	-5.082605e+00	-1.898238e+02
6.700000e-07	-7.172251e-07	-2.793017e-09	-4.788413e+00	-1.849017e+02
6.800000e-07	-6.730009e-07	-2.747434e-09	-4.493159e+00	-1.798303e+02
6.900000e-07	-6.286122e-07	-2.687001e-09	-4.196807e+00	-1.746376e+02
7.000000e-07	-5.841083e-07	-2.592182e-09	-3.899685e+00	-1.693679e+02
7.100000e-07	-5.395227e-07	-2.484061e-09	-3.602018e+00	-1.640544e+02
7.200000e-07	-4.948177e-07	-2.409469e-09	-3.303554e+00	-1.587022e+02
7.300000e-07	-4.498841e-07	-2.353902e-09	-3.003563e+00	-1.532918e+02
7.400000e-07	-4.046910e-07	-2.272621e-09	-2.701840e+00	-1.477973e+02
7.500000e-07	-3.593571e-07	-2.165108e-09	-2.399178e+00	-1.422054e+02
7.600000e-07	-3.139734e-07	-2.062403e-09	-2.096182e+00	-1.365215e+02
7.700000e-07	-2.684069e-07	-1.994443e-09	-1.791966e+00	-1.307594e+02
7.800000e-07	-2.226508e-07	-1.924050e-09	-1.486485e+00	-1.249254e+02
7.900000e-07	-1.768448e-07	-1.828784e-09	-1.180670e+00	-1.190102e+02
8.000000e-07	-1.310240e-07	-1.713751e-09	-8.747558e-01	-1.129944e+02
8.100000e-07	-8.520574e-08	-1.618741e-09	-5.688595e-01	-1.068649e+02
8.200000e-07	-3.934365e-08	-1.543886e-09	-2.626702e-01	-1.006278e+02
8.300000e-07	6.620534e-09	-1.456084e-09	4.420070e-02	-9.430762e+01
8.400000e-07	5.258645e-08	-1.344219e-09	3.510831e-01	-8.793196e+01
8.500000e-07	9.846157e-08	-1.230585e-09	6.573595e-01	-8.151109e+01
8.600000e-07	1.443231e-07	-1.143796e-09	9.635451e-01	-7.502779e+01
8.700000e-07	1.901602e-07	-1.060029e-09	1.269567e+00	-6.844463e+01
8.800000e-07	2.359202e-07	-9.554901e-10	1.575075e+00	-6.172541e+01
8.900000e-07	2.815889e-07	-8.299756e-10	1.879973e+00	-5.485749e+01
9.000000e-07	3.270777e-07	-7.194031e-10	2.183671e+00	-4.786119e+01
9.100000e-07	3.723583e-07	-6.280284e-10	2.485978e+00	-4.078043e+01
9.200000e-07	4.175596e-07	-5.292522e-10	2.787755e+00	-3.366020e+01
9.300000e-07	4.626395e-07	-4.086540e-10	3.088723e+00	-2.652409e+01
9.400000e-07	5.074984e-07	-2.836310e-10	3.388214e+00	-1.936426e+01
9.500000e-07	5.521408e-07	-1.801513e-10	3.686260e+00	-1.214841e+01
9.600000e-07	5.966047e-07	-8.365341e-11	3.983115e+00	-4.839033e+00
9.700000e-07	6.409866e-07	2.756909e-11	4.279422e+00	2.586095e+00
9.800000e-07	6.852922e-07	1.579331e-10	4.575219e+00	1.012246e+01
9.900000e-07	7.295055e-07	2.785079e-10	4.870401e+00	1.774119e+01
1.000000e-06	7.736193e-07	3.836546e-10	5.164918e+00	2.540283e+01
1.010000e-06	8.175440e-07	4.905867e-10	5.458173e+00	3.307491e+01
1.020000e-06	8.610630e-07	6.139097e-10	5.748719e+00	4.074474e+01
1.030000e-06	9.040252e-07	7.452143e-10	6.035548e+00	4.842173e+01
1.040000e-06	9.463918e-07	8.606320e-10	6.318400e+00	5.612873e+01
1.050000e-06	9.880752e-07	9.666647e-10	6.596691e+00	6.388693e+01
1.060000e-06	1.029139e-06	1.082120e-09	6.870846e+00	7.170201e+01
1.070000e-06	1.069803e-06	1.213797e-09	7.142328e+00	7.955847e+01
1.080000e-06	1.110230e-06	1.340766e-09	7.412232e+00	8.742496e+01
1.090000e-06	1.150483e-06	1.452509e-09	7.680975e+00	9.526781e+01
1.100000e-06	1.190521e-06	1.562038e-09	7.948282e+00	1.030651e+02
1.110000e-06	1.230211e-06	1.685600e-09	8.213260e+00	1.108133e+02
1.120000e-06	1.269376e-06	1.816505e-09	8.474742e+00	1.185228e+02
1.130000e-06	1.308035e-06	1.936043e-09	8.732837e+00	1.262044e+02
1.140000e-06	1.346270e-06	2.044815e-09	8.988109e+00	1.338568e+02
1.150000e-06	1.384005e-06	2.155485e-09	9.240041e+00	1.414614e+02
1.160000e-06	1.421182e-06	2.275784e-09	9.488247e+00	1.489893e+02
1.170000e-06	1.457915e-06	2.393841e-09	9.733488e+00	1.564163e+02
1.180000e-06	1.494333e-06	2.501185e-09	9.976621e+00	1.637356e+02
1.190000e-06	1.530438e-06	2.604908e-09	1.021767e+01	1.709600e+02
1.200000e-06	1.566101e-06	2.718006e-09	1.045577e+01	1.781116e+02
1.210000e-06	1.601084e-06	2.838352e-09	1.068933e+01	1.852037e+02
1.220000e-06	1.635168e-06	2.950580e-09	1.091688e+01	1.922269e+02
1.230000e-06	1.668360e-06	3.048903e-09	1.113848e+01	1.991469e+02
1.240000e-06	1.700943e-06	3.143191e-09	1.135601e+01	2.059159e+02
1.250000e-06	1.733130e-06	3.246246e-09	1.157090e+01	2.124933e+02
1.260000e-06	1.764853e-06	3.350147e-09	1.178269e+01	2.188622e+02
1.270000e-06	1.795919e-06	3.443592e-09	1.199010e+01	2.250358e+02
1.280000e-06	1.826326e-06	3.529762e-09	1.219311e+01	2.310476e+02
1.290000e-06	1.856078e-06	3.622007e-09	1.239174e+01	2.369336e+02
1.300000e-06	1.885181e-06	3.719171e-09	1.258605e+01	2.427129e+02
1.310000e-06	1.913750e-06	3.809008e-09	1.277678e+01	2.483772e+02
1.320000e-06	1.941921e-06	3.888083e-09	1.296486e+01	2.538937e+02
1.330000e-06	1.969530e-06	3.961226e-09	1.314918e+01	2.592195e+02
1.340000e-06	1.996078e-06	4.038646e-09	1.332643e+01	2.643221e+02
1.350000e-06	2.021492e-06	4.118279e-09	1.349610e+01	2.691947e+02
1.360000e-06	2.046136e-06	4.189747e-09	1.366063e+01	2.738604e+02
1.370000e-06	2.070147e-06	4.251829e-09	1.382093e+01	2.783627e+02
1.380000e-06	2.093456e-06	4.315767e-09	1.397655e+01	2.827452e+02
1.390000e-06	2.116099e-06	4.385863e-09	1.412772e+01	2.870312e+02
1.400000e-06	2.138033e-06	4.454298e-09	1.427416e+01	2.912119e+02
1.410000e-06	2.159213e-06	4.513386e-09	1.441557e+01	2.952503e+02
1.420000e-06	2.179790e-06	4.566433e-09	1.455294e+01	2.990989e+02
1.430000e-06	2.199824e-06	4.621189e-09	1.468670e+01	3.027230e+02
1.440000e-06	2.219068e-06	4.676452e-09	1.481518e+01	3.061172e+02
1.450000e-06	2.237363e-06	4.725333e-09	1.493731e+01	3.093076e+02
1.460000e-06	2.254849e-06	4.765709e-09	1.505406e+01	3.123387e+02
1.470000e-06	2.271587e-06	4.806794e-09	1.516581e+01	3.152529e+02
1.480000e-06	2.287354e-06	4.853261e-09	1.527107e+01	3.180728e+02
1.490000e-06	2.302141e-06	4.898703e-09	1.536979e+01	3.207943e+02
1.500000e-06	2.316168e-06	4.936689e-09	1.546344e+01	3.233927e+02
1.510000e-06	2.329417e-06	4.969745e-09	1.555190e+01	3.258365e+02
1.520000e-06	2.341868e-06	5.004262e-09	1.563503e+01	3.281021e+02
1.530000e-06	2.353389e-06	5.038676e-09	1.571194e+01	3.301823e+02
1.540000e-06	2.363717e-06	5.066893e-09	1.578090e+01	3.320881e+02
1.550000e-06	2.372915e-06	5.088637e-09	1.584230e+01	3.338435e+02
1.560000e-06	2.381349e-06	5.112073e-09	1.589861e+01	3.354765e+02
1.570000e-06	2.389090e-06	5.138923e-09	1.595029e+01	3.370097e+02
1.580000e-06	2.395986e-06	5.163486e-09	1.599633e+01	3.384515e+02
1.590000e-06	2.402034e-06	5.182754e-09	1.603671e+01	3.397937e+02
1.600000e-06	2.407218e-06	5.198955e-09	1.607132e+01	3.410154e+02
1.610000e-06	2.411743e-06	5.215605e-09	1.610153e+01	3.420950e+02
1.620000e-06	2.415646e-06	5.233226e-09	1.612759e+01	3.430236e+02
1.630000e-06	2.418477e-06	5.246883e-09	1.614649e+01	3.438118e+02
1.640000e-06	2.420104e-06	5.254344e-09	1.615735e+01	3.444851e+02
1.650000e-06	2.420830e-06	5.260533e-09	1.616220e+01	3.450676e+02
1.660000e-06	2.420824e-06	5.269963e-09	1.616216e+01	3.455642e+02
1.670000e-06	2.420060e-06	5.277311e-09	1.615706e+01	3.459548e+02
1.680000e-06	2.418575e-06	5.279485e-09	1.614714e+01	3.462071e+02
1.690000e-06	2.416344e-06	5.279436e-09	1.613225e+01	3.463021e+02
1.700000e-06	2.413370e-06	5.278703e-09	1.611240e+01	3.462555e+02
1.710000e-06	2.409852e-06	5.279545e-09	1.608891e+01	3.461170e+02
1.720000e-06	2.405717e-06	5.296575e-09	1.606130e+01	3.459439e+02
1.730000e-06	2.400623e-06	5.307394e-09	1.602729e+01	3.457610e+02
1.740000e-06	2.394347e-06	5.206817e-09	1.598539e+01	3.455358e+02
1.750000e-06	2.386804e-06	5.128735e-09	1.593503e+01	3.451885e+02
1.760000e-06	2.377999e-06	5.320511e-09	1.587625e+01	3.446372e+02
1.770000e-06	2.368492e-06	5.351599e-09	1.581277e+01	3.438547e+02
1.780000e-06	2.358941e-06	5.212012e-09	1.574901e+01	3.428991e+02
1.790000e-06	2.348873e-06	5.094144e-09	1.568179e+01	3.418960e+02
1.800000e-06	2.337251e-06	5.241907e-09	1.560420e+01	3.409771e+02
1.810000e-06	2.324551e-06	5.251513e-09	1.551941e+01	3.402079e+02
1.820000e-06	2.311686e-06	5.065421e-09	1.543352e+01	3.395487e+02
1.830000e-06	2.297759e-06	5.180037e-09	1.534054e+01	3.388728e+02
1.840000e-06	2.282225e-06	5.232995e-09	1.523683e+01	3.380312e+02
1.850000e-06	2.266045e-06	5.032136e-09	1.512881e+01	3.369277e+02
1.860000e-06	2.249495e-06	5.032833e-09	1.501831e+01	3.355596e+02
1.870000e-06	2.231877e-06	5.307123e-09	1.490069e+01	3.340046e+02
1.880000e-06	2.213197e-06	5.072067e-09	1.477598e+01	3.323657e+02
1.890000e-06	2.193992e-06	4.808628e-09	1.464776e+01	3.307117e+02
1.900000e-06	2.174272e-06	5.087289e-09	1.451610e+01	3.290483e+02
1.910000e-06	2.153715e-06	5.154890e-09	1.437886e+01	3.273324e+02
1.920000e-06	2.132166e-06	4.847380e-09	1.423499e+01	3.255130e+02
1.930000e-06	2.109609e-06	4.885739e-09	1.408439e+01	3.235678e+02
1.940000e-06	2.086303e-06	4.960943e-09	1.392880e+01	3.215126e+02
1.950000e-06	2.062408e-06	4.852873e-09	1.376926e+01	3.193811e+02
1.960000e-06	2.037722e-06	4.865910e-09	1.360445e+01	3.171958e+02
1.970000e-06	2.012384e-06	4.808535e-09	1.343529e+01	3.149528e+02
1.980000e-06	1.986454e-06	4.679647e-09	1.326217e+01	3.126300e+02
1.990000e-06	1.959720e-06	4.748456e-09	1.308369e+01	3.102105e+02
2.000000e-06	1.932382e-06	4.754655e-09	1.290117e+01	3.077007e+02
2.010000e-06	1.904654e-06	4.629686e-09	1.271605e+01	3.051284e+02
2.020000e-06	1.876065e-06	4.630149e-09	1.252518e+01	3.025234e+02
2.030000e-06	1.846373e-06	4.532633e-09	1.232695e+01	2.998949e+02
2.040000e-06	1.815888e-06	4.493700e-09	1.212342e+01	2.972233e+02
2.050000e-06	1.784786e-06	4.589357e-09	1.191578e+01	2.944729e+02
2.060000e-06	1.753187e-06	4.446146e-09	1.170481e+01	2.916143e+02
2.070000e-06	1.721025e-06	4.303437e-09	1.149009e+01	2.886419e+02
2.080000e-06	1.688208e-06	4.387722e-09	1.127099e+01	2.855733e+02
2.090000e-06	1.654842e-06	4.367486e-09	1.104823e+01	2.824335e+02
2.100000e-06	1.620958e-06	4.247625e-09	1.082201e+01	2.792360e+02
2.110000e-06	1.586478e-06	4.199667e-09	1.059181e+01	2.759747e+02
2.120000e-06	1.551485e-06	4.123127e-09	1.035819e+01	2.726300e+02
2.130000e-06	1.516139e-06	4.109585e-09	1.012221e+01	2.691842e+02
2.140000e-06	1.480375e-06	4.102809e-09	9.883433e+00	2.656323e+02
2.150000e-06	1.444093e-06	3.987882e-09	9.641207e+00	2.619834e+02
2.160000e-06	1.407084e-06	3.904852e-09	9.394123e+00	2.582533e+02
2.170000e-06	1.369145e-06	3.873465e-09	9.140829e+00	2.544562e+02
2.180000e-06	1.330458e-06	3.848055e-09	8.882542e+00	2.506025e+02
2.190000e-06	1.291306e-06	3.785981e-09	8.621154e+00	2.467006e+02
2.200000e-06	1.251880e-06	3.685608e-09	8.357932e+00	2.427587e+02
2.210000e-06	1.212191e-06	3.606534e-09	8.092954e+00	2.387802e+02
2.220000e-06	1.172142e-06	3.587598e-09	7.825578e+00	2.347558e+02
2.230000e-06	1.131712e-06	3.550814e-09	7.555654e+00	2.306599e+02
2.240000e-06	1.090827e-06	3.461886e-09	7.282691e+00	2.264578e+02
2.250000e-06	1.049535e-06	3.361409e-09	7.007017e+00	2.221243e+02
2.260000e-06	1.007987e-06	3.301989e-09	6.729629e+00	2.176608e+02
2.270000e-06	9.661156e-07	3.274510e-09	6.450082e+00	2.130995e+02
2.280000e-06	9.238050e-07	3.199915e-09	6.167603e+00	2.084881e+02
2.290000e-06	8.810955e-07	3.097570e-09	5.882462e+00	2.038623e+02
2.300000e-06	8.380886e-07	3.004873e-09	5.595335e+00	1.992227e+02
2.310000e-06	7.948544e-07	2.960835e-09	5.306690e+00	1.945326e+02
2.320000e-06	7.514964e-07	2.923492e-09	5.017219e+00	1.897385e+02
2.330000e-06	7.080346e-07	2.827624e-09	4.727055e+00	1.848007e+02
2.340000e-06	6.644765e-07	2.716136e-09	4.436248e+00	1.797151e+02
2.350000e-06	6.208103e-07	2.643127e-09	4.144719e+00	1.745127e+02
2.360000e-06	5.769019e-07	2.593123e-09	3.851573e+00	1.692378e+02
2.370000e-06	5.327025e-07	2.518095e-09	3.556484e+00	1.639211e+02
2.380000e-06	4.883380e-07	2.411971e-09	3.260293e+00	1.585645e+02
2.390000e-06	4.438091e-07	2.309067e-09	2.963005e+00	1.531469e+02
2.400000e-06	3.990556e-07	2.246203e-09	2.664217e+00	1.476429e+02
2.410000e-06	3.541102e-07	2.185342e-09	2.364147e+00	1.420413e+02
2.420000e-06	3.089737e-07	2.091360e-09	2.062803e+00	1.363490e+02
2.430000e-06	2.636779e-07	1.976313e-09	1.760394e+00	1.305797e+02
2.440000e-06	2.183290e-07	1.878430e-09	1.457631e+00	1.247384e+02
2.450000e-06	1.728799e-07	1.814113e-09	1.154199e+00	1.188140e+02
2.460000e-06	1.273139e-07	1.736258e-09	8.499865e-01	1.127871e+02
2.470000e-06	8.175463e-08	1.626785e-09	5.458188e-01	1.066460e+02
2.480000e-06	3.617232e-08	1.509870e-09	2.414975e-01	1.003992e+02
2.490000e-06	-9.406421e-09	1.422527e-09	-6.280013e-02	9.407264e+01
2.500000e-06	-5.500083e-08	1.347997e-09	-3.672023e-01	8.769273e+01
2.510000e-06	-1.005816e-07	1.248110e-09	-6.715135e-01	8.126712e+01
2.520000e-06	-1.460326e-07	1.127426e-09	-9.749581e-01	7.477575e+01
2.530000e-06	-1.914261e-07	1.019565e-09	-1.278019e+00	6.818014e+01
2.540000e-06	-2.367935e-07	9.364909e-10	-1.580906e+00	6.144567e+01
2.550000e-06	-2.820776e-07	8.443846e-10	-1.883236e+00	5.456311e+01
2.560000e-06	-3.272230e-07	7.261584e-10	-2.184640e+00	4.755607e+01
2.570000e-06	-3.721672e-07	5.990733e-10	-2.484702e+00	4.046979e+01
2.580000e-06	-4.169355e-07	4.965644e-10	-2.783588e+00	3.334790e+01
2.590000e-06	-4.615351e-07	4.080626e-10	-3.081349e+00	2.621083e+01
2.600000e-06	-5.059087e-07	3.025147e-10	-3.377601e+00	1.904746e+01
2.610000e-06	-5.500272e-07	1.743362e-10	-3.672149e+00	1.182391e+01
2.620000e-06	-5.938604e-07	5.135462e-11	-3.964793e+00	4.503420e+00
2.630000e-06	-6.375247e-07	-4.821132e-11	-4.256309e+00	-2.933695e+00
2.640000e-06	-6.811174e-07	-1.499558e-10	-4.547347e+00	-1.047995e+01
2.650000e-06	-7.246134e-07	-2.732837e-10	-4.837740e+00	-1.810454e+01
2.660000e-06	-7.680272e-07	-4.069031e-10	-5.127583e+00	-2.576793e+01
2.670000e-06	-8.113225e-07	-5.233675e-10	-5.416636e+00	-3.343932e+01
2.680000e-06	-8.544224e-07	-6.258874e-10	-5.704385e+00	-4.110848e+01
2.690000e-06	-8.972170e-07	-7.367187e-10	-5.990094e+00	-4.878684e+01
2.700000e-06	-9.395938e-07	-8.662126e-10	-6.273014e+00	-5.649784e+01
2.710000e-06	-9.815391e-07	-9.937753e-10	-6.553054e+00	-6.426158e+01
2.720000e-06	-1.023172e-06	-1.104173e-09	-6.831007e+00	-7.208156e+01
2.730000e-06	-1.064561e-06	-1.213214e-09	-7.107336e+00	-7.994012e+01
2.740000e-06	-1.105613e-06	-1.335301e-09	-7.381408e+00	-8.780494e+01
2.750000e-06	-1.146198e-06	-1.467906e-09	-7.652370e+00	-9.564300e+01
2.760000e-06	-1.186302e-06	-1.588626e-09	-7.920113e+00	-1.034342e+02
2.770000e-06	-1.226027e-06	-1.694069e-09	-8.185333e+00	-1.111770e+02
2.780000e-06	-1.265525e-06	-1.802320e-09	-8.449033e+00	-1.188825e+02
2.790000e-06	-1.304822e-06	-1.924877e-09	-8.711391e+00	-1.265607e+02
2.800000e-06	-1.343692e-06	-2.049213e-09	-8.970900e+00	-1.342085e+02
2.810000e-06	-1.381910e-06	-2.161925e-09	-9.226052e+00	-1.418056e+02
2.820000e-06	-1.419345e-06	-2.269723e-09	-9.475980e+00	-1.493230e+02
2.830000e-06	-1.455935e-06	-2.384546e-09	-9.720263e+00	-1.567378e+02
2.840000e-06	-1.491856e-06	-2.505982e-09	-9.960086e+00	-1.640454e+02
2.850000e-06	-1.527402e-06	-2.616550e-09	-1.019740e+01	-1.712603e+02
2.860000e-06	-1.562669e-06	-2.713707e-09	-1.043285e+01	-1.784045e+02
2.870000e-06	-1.597478e-06	-2.812094e-09	-1.066525e+01	-1.854895e+02
2.880000e-06	-1.631663e-06	-2.923338e-09	-1.089348e+01	-1.925031e+02
2.890000e-06	-1.665281e-06	-3.037637e-09	-1.111792e+01	-1.994085e+02
2.900000e-06	-1.698305e-06	-3.139523e-09	-1.133840e+01	-2.061580e+02
2.910000e-06	-1.730695e-06	-3.232881e-09	-1.155465e+01	-2.127127e+02
2.920000e-06	-1.762565e-06	-3.329726e-09	-1.176742e+01	-2.190590e+02
2.930000e-06	-1.794000e-06	-3.430786e-09	-1.197729e+01	-2.252127e+02
2.940000e-06	-1.824862e-06	-3.523266e-09	-1.218334e+01	-2.312088e+02
