# Temperatura_=_20.0
# Concentracion g/m^3_=_10000.0
# C_Vs_to_Am_M_A/Vsm_=_65563218390.804596
# pendiente_HvsI_1/m_=_3716.3
# ordenada_HvsI_A/m_=_1297.0
# frecuencia_Hz_=_301993.7547506645

Tiempo_(s)	Campo_(V.s)	Magnetizacion_(V.s)	Campo_(kA/m)	Magnetizacion_(A/m)
0.000000e+00	-1.639767e-06	-2.968797e-09	-1.053118e+01	-1.938024e+02
1.000000e-08	-1.639489e-06	-2.970082e-09	-1.052939e+01	-1.939983e+02
2.000000e-08	-1.638814e-06	-2.969588e-09	-1.052506e+01	-1.940996e+02
3.000000e-08	-1.637629e-06	-2.971274e-09	-1.051745e+01	-1.941659e+02
4.000000e-08	-1.635771e-06	-2.971592e-09	-1.050551e+01	-1.942377e+02
5.000000e-08	-1.633103e-06	-2.981268e-09	-1.048838e+01	-1.943112e+02
6.000000e-08	-1.629627e-06	-3.015321e-09	-1.046605e+01	-1.943382e+02
7.000000e-08	-1.625489e-06	-2.992785e-09	-1.043948e+01	-1.942526e+02
8.000000e-08	-1.620828e-06	-2.906704e-09	-1.040954e+01	-1.940096e+02
9.000000e-08	-1.615742e-06	-2.927053e-09	-1.037688e+01	-1.936124e+02
1.000000e-07	-1.610175e-06	-3.020629e-09	-1.034113e+01	-1.931116e+02
1.100000e-07	-1.603979e-06	-2.994994e-09	-1.030133e+01	-1.925756e+02
1.200000e-07	-1.597166e-06	-2.881325e-09	-1.025758e+01	-1.920517e+02
1.300000e-07	-1.589839e-06	-2.886891e-09	-1.021052e+01	-1.915387e+02
1.400000e-07	-1.581991e-06	-2.987370e-09	-1.016012e+01	-1.909887e+02
1.500000e-07	-1.573707e-06	-2.949633e-09	-1.010691e+01	-1.903351e+02
1.600000e-07	-1.565105e-06	-2.856980e-09	-1.005167e+01	-1.895301e+02
1.700000e-07	-1.555951e-06	-2.880449e-09	-9.992880e+00	-1.885702e+02
1.800000e-07	-1.545892e-06	-2.908494e-09	-9.928275e+00	-1.874958e+02
1.900000e-07	-1.534810e-06	-2.831778e-09	-9.857104e+00	-1.863674e+02
2.000000e-07	-1.523021e-06	-2.824975e-09	-9.781392e+00	-1.852333e+02
2.100000e-07	-1.510783e-06	-2.887115e-09	-9.702791e+00	-1.841069e+02
2.200000e-07	-1.497921e-06	-2.810164e-09	-9.620188e+00	-1.829655e+02
2.300000e-07	-1.484387e-06	-2.705484e-09	-9.533269e+00	-1.817677e+02
2.400000e-07	-1.470384e-06	-2.771292e-09	-9.443336e+00	-1.804787e+02
2.500000e-07	-1.455986e-06	-2.834026e-09	-9.350867e+00	-1.790881e+02
2.600000e-07	-1.440914e-06	-2.705502e-09	-9.254070e+00	-1.776127e+02
2.700000e-07	-1.424980e-06	-2.624528e-09	-9.151733e+00	-1.760850e+02
2.800000e-07	-1.408305e-06	-2.697677e-09	-9.044644e+00	-1.745339e+02
2.900000e-07	-1.391046e-06	-2.713486e-09	-8.933801e+00	-1.729707e+02
3.000000e-07	-1.373342e-06	-2.614739e-09	-8.820101e+00	-1.713838e+02
3.100000e-07	-1.355327e-06	-2.574882e-09	-8.704401e+00	-1.697458e+02
3.200000e-07	-1.336900e-06	-2.578588e-09	-8.586057e+00	-1.680272e+02
3.300000e-07	-1.317989e-06	-2.549758e-09	-8.464599e+00	-1.662111e+02
3.400000e-07	-1.298644e-06	-2.535750e-09	-8.340358e+00	-1.643005e+02
3.500000e-07	-1.278843e-06	-2.516635e-09	-8.213192e+00	-1.623177e+02
3.600000e-07	-1.258671e-06	-2.444822e-09	-8.083641e+00	-1.602943e+02
3.700000e-07	-1.238210e-06	-2.400225e-09	-7.952234e+00	-1.582577e+02
3.800000e-07	-1.217468e-06	-2.426731e-09	-7.819022e+00	-1.562196e+02
3.900000e-07	-1.196359e-06	-2.404313e-09	-7.683448e+00	-1.541721e+02
4.000000e-07	-1.174778e-06	-2.318767e-09	-7.544849e+00	-1.520928e+02
4.100000e-07	-1.152755e-06	-2.263696e-09	-7.403412e+00	-1.499571e+02
4.200000e-07	-1.130397e-06	-2.274973e-09	-7.259817e+00	-1.477496e+02
4.300000e-07	-1.107730e-06	-2.270054e-09	-7.114244e+00	-1.454716e+02
4.400000e-07	-1.084620e-06	-2.205504e-09	-6.965821e+00	-1.431385e+02
4.500000e-07	-1.061041e-06	-2.132015e-09	-6.814390e+00	-1.407708e+02
4.600000e-07	-1.037091e-06	-2.110617e-09	-6.660572e+00	-1.383825e+02
4.700000e-07	-1.012863e-06	-2.109083e-09	-6.504969e+00	-1.359755e+02
4.800000e-07	-9.884577e-07	-2.063506e-09	-6.348232e+00	-1.335396e+02
4.900000e-07	-9.638222e-07	-1.999270e-09	-6.190014e+00	-1.310607e+02
5.000000e-07	-9.388638e-07	-1.950998e-09	-6.029722e+00	-1.285301e+02
5.100000e-07	-9.134440e-07	-1.929260e-09	-5.866467e+00	-1.259499e+02
5.200000e-07	-8.874821e-07	-1.912057e-09	-5.699730e+00	-1.233323e+02
5.300000e-07	-8.610192e-07	-1.869492e-09	-5.529776e+00	-1.206929e+02
5.400000e-07	-8.340771e-07	-1.795364e-09	-5.356744e+00	-1.180426e+02
5.500000e-07	-8.066910e-07	-1.747112e-09	-5.180861e+00	-1.153824e+02
5.600000e-07	-7.789591e-07	-1.740374e-09	-5.002757e+00	-1.127030e+02
5.700000e-07	-7.509402e-07	-1.710136e-09	-4.822809e+00	-1.099901e+02
5.800000e-07	-7.227034e-07	-1.640590e-09	-4.641462e+00	-1.072312e+02
5.900000e-07	-6.943561e-07	-1.579245e-09	-4.459405e+00	-1.044210e+02
6.000000e-07	-6.658945e-07	-1.553655e-09	-4.276615e+00	-1.015628e+02
6.100000e-07	-6.372904e-07	-1.530600e-09	-4.092909e+00	-9.866574e+01
6.200000e-07	-6.084764e-07	-1.481735e-09	-3.907855e+00	-9.574029e+01
6.300000e-07	-5.794159e-07	-1.412693e-09	-3.721218e+00	-9.279324e+01
6.400000e-07	-5.501703e-07	-1.360739e-09	-3.533392e+00	-8.982570e+01
6.500000e-07	-5.207603e-07	-1.336142e-09	-3.344511e+00	-8.683400e+01
6.600000e-07	-4.910752e-07	-1.302471e-09	-3.153863e+00	-8.381284e+01
6.700000e-07	-4.611172e-07	-1.241052e-09	-2.961461e+00	-8.075895e+01
6.800000e-07	-4.310292e-07	-1.175968e-09	-2.768225e+00	-7.767346e+01
6.900000e-07	-4.008330e-07	-1.136837e-09	-2.574294e+00	-7.456239e+01
7.000000e-07	-3.705087e-07	-1.107388e-09	-2.379541e+00	-7.143514e+01
7.100000e-07	-3.401023e-07	-1.058688e-09	-2.184259e+00	-6.830182e+01
7.200000e-07	-3.096177e-07	-9.901460e-10	-1.988477e+00	-6.517010e+01
7.300000e-07	-2.790410e-07	-9.340217e-10	-1.792102e+00	-6.204192e+01
7.400000e-07	-2.484379e-07	-9.017288e-10	-1.595558e+00	-5.891079e+01
7.500000e-07	-2.178014e-07	-8.671931e-10	-1.398799e+00	-5.576098e+01
7.600000e-07	-1.870645e-07	-8.103561e-10	-1.201396e+00	-5.257004e+01
7.700000e-07	-1.562330e-07	-7.430497e-10	-1.003385e+00	-4.931559e+01
7.800000e-07	-1.253255e-07	-6.930389e-10	-8.048856e-01	-4.598495e+01
7.900000e-07	-9.439340e-08	-6.568566e-10	-6.062285e-01	-4.258315e+01
8.000000e-07	-6.343428e-08	-6.076275e-10	-4.073978e-01	-3.913431e+01
8.100000e-07	-3.245982e-08	-5.373497e-10	-2.084687e-01	-3.567317e+01
8.200000e-07	-1.556968e-09	-4.734944e-10	-9.999408e-03	-3.222908e+01
8.300000e-07	2.929837e-08	-4.313035e-10	1.881647e-01	-2.880999e+01
8.400000e-07	6.019374e-08	-3.928132e-10	3.865860e-01	-2.539630e+01
8.500000e-07	9.111458e-08	-3.368902e-10	5.851707e-01	-2.194988e+01
8.600000e-07	1.219993e-07	-2.681301e-10	7.835235e-01	-1.843528e+01
8.700000e-07	1.528290e-07	-2.111841e-10	9.815231e-01	-1.484177e+01
8.800000e-07	1.835605e-07	-1.675173e-10	1.178892e+00	-1.119256e+01
8.900000e-07	2.142257e-07	-1.170876e-10	1.375835e+00	-7.534113e+00
9.000000e-07	2.448609e-07	-5.029389e-11	1.572585e+00	-3.910207e+00
9.100000e-07	2.754413e-07	1.605201e-11	1.768983e+00	-3.356244e-01
9.200000e-07	3.059664e-07	6.555436e-11	1.965027e+00	3.213890e+00
9.300000e-07	3.364280e-07	1.079563e-10	2.160662e+00	6.787955e+00
9.400000e-07	3.668260e-07	1.631335e-10	2.355889e+00	1.043123e+01
9.500000e-07	3.971507e-07	2.316317e-10	2.550645e+00	1.415457e+01
9.600000e-07	4.273886e-07	2.932668e-10	2.744844e+00	1.792580e+01
9.700000e-07	4.575024e-07	3.412796e-10	2.938245e+00	2.168666e+01
9.800000e-07	4.874216e-07	3.902441e-10	3.130397e+00	2.538617e+01
9.900000e-07	5.171326e-07	4.528931e-10	3.321212e+00	2.901028e+01
1.000000e-06	5.466623e-07	5.193742e-10	3.510862e+00	3.258953e+01
1.010000e-06	5.759809e-07	5.736807e-10	3.699157e+00	3.618015e+01
1.020000e-06	6.050585e-07	6.198227e-10	3.885904e+00	3.983027e+01
1.030000e-06	6.339200e-07	6.757442e-10	4.071263e+00	4.355187e+01
1.040000e-06	6.625684e-07	7.444217e-10	4.255253e+00	4.731489e+01
1.050000e-06	6.910664e-07	8.082271e-10	4.438278e+00	5.106601e+01
1.060000e-06	7.194839e-07	8.571891e-10	4.620786e+00	5.475961e+01
1.070000e-06	7.478084e-07	9.023606e-10	4.802696e+00	5.838206e+01
1.080000e-06	7.760168e-07	9.589303e-10	4.983860e+00	6.195594e+01
1.090000e-06	8.040180e-07	1.023804e-09	5.163694e+00	6.552352e+01
1.100000e-06	8.316975e-07	1.081713e-09	5.341462e+00	6.912109e+01
1.110000e-06	8.589474e-07	1.128901e-09	5.516470e+00	7.275949e+01
1.120000e-06	8.856078e-07	1.180817e-09	5.687693e+00	7.642060e+01
1.130000e-06	9.116311e-07	1.244029e-09	5.854824e+00	8.006941e+01
1.140000e-06	9.371100e-07	1.304687e-09	6.018459e+00	8.367283e+01
1.150000e-06	9.621724e-07	1.352697e-09	6.179419e+00	8.721439e+01
1.160000e-06	9.869033e-07	1.397834e-09	6.338249e+00	9.069849e+01
1.170000e-06	1.011355e-06	1.452838e-09	6.495287e+00	9.414413e+01
1.180000e-06	1.035579e-06	1.514959e-09	6.650861e+00	9.757300e+01
1.190000e-06	1.059557e-06	1.570716e-09	6.804861e+00	1.009980e+02
1.200000e-06	1.083186e-06	1.615608e-09	6.956609e+00	1.044169e+02
1.210000e-06	1.106385e-06	1.661355e-09	7.105604e+00	1.078121e+02
1.220000e-06	1.129160e-06	1.715799e-09	7.251873e+00	1.111580e+02
1.230000e-06	1.151604e-06	1.771749e-09	7.396014e+00	1.144318e+02
1.240000e-06	1.173686e-06	1.818720e-09	7.537834e+00	1.176247e+02
1.250000e-06	1.195300e-06	1.859597e-09	7.676646e+00	1.207484e+02
1.260000e-06	1.216442e-06	1.905539e-09	7.812431e+00	1.238310e+02
1.270000e-06	1.237222e-06	1.957806e-09	7.945883e+00	1.269033e+02
1.280000e-06	1.257757e-06	2.007395e-09	8.077768e+00	1.299805e+02
1.290000e-06	1.278015e-06	2.050037e-09	8.207871e+00	1.330493e+02
1.300000e-06	1.297943e-06	2.090479e-09	8.335857e+00	1.360693e+02
1.310000e-06	1.317406e-06	2.135777e-09	8.460857e+00	1.389899e+02
1.320000e-06	1.336322e-06	2.183743e-09	8.582340e+00	1.417763e+02
1.330000e-06	1.354713e-06	2.225037e-09	8.700453e+00	1.444286e+02
1.340000e-06	1.372629e-06	2.258835e-09	8.815522e+00	1.469841e+02
1.350000e-06	1.390154e-06	2.294257e-09	8.928069e+00	1.494986e+02
1.360000e-06	1.407302e-06	2.336174e-09	9.038201e+00	1.520169e+02
1.370000e-06	1.423893e-06	2.378201e-09	9.144755e+00	1.545491e+02
1.380000e-06	1.439798e-06	2.413218e-09	9.246900e+00	1.570659e+02
1.390000e-06	1.455045e-06	2.444318e-09	9.344827e+00	1.595150e+02
1.400000e-06	1.469710e-06	2.479325e-09	9.439006e+00	1.618498e+02
1.410000e-06	1.483848e-06	2.517996e-09	9.529808e+00	1.640535e+02
1.420000e-06	1.497452e-06	2.552017e-09	9.617179e+00	1.661453e+02
1.430000e-06	1.510543e-06	2.578321e-09	9.701253e+00	1.681661e+02
1.440000e-06	1.523120e-06	2.603428e-09	9.782028e+00	1.701536e+02
1.450000e-06	1.535151e-06	2.632732e-09	9.859293e+00	1.721202e+02
1.460000e-06	1.546507e-06	2.662618e-09	9.932226e+00	1.740468e+02
1.470000e-06	1.557044e-06	2.687161e-09	9.999900e+00	1.758930e+02
1.480000e-06	1.566721e-06	2.708644e-09	1.006205e+01	1.776188e+02
1.490000e-06	1.575744e-06	2.732085e-09	1.012000e+01	1.792050e+02
1.500000e-06	1.584327e-06	2.757817e-09	1.017512e+01	1.806629e+02
1.510000e-06	1.592476e-06	2.781208e-09	1.022745e+01	1.820284e+02
1.520000e-06	1.600123e-06	2.799091e-09	1.027657e+01	1.833451e+02
1.530000e-06	1.607224e-06	2.814673e-09	1.032218e+01	1.846428e+02
1.540000e-06	1.613807e-06	2.833073e-09	1.036445e+01	1.859238e+02
1.550000e-06	1.619816e-06	2.853442e-09	1.040304e+01	1.871607e+02
1.560000e-06	1.625185e-06	2.869892e-09	1.043752e+01	1.883096e+02
1.570000e-06	1.630046e-06	2.882202e-09	1.046874e+01	1.893316e+02
1.580000e-06	1.634535e-06	2.895039e-09	1.049757e+01	1.902128e+02
1.590000e-06	1.638605e-06	2.909252e-09	1.052371e+01	1.909731e+02
1.600000e-06	1.642073e-06	2.921068e-09	1.054599e+01	1.916565e+02
1.610000e-06	1.644762e-06	2.928515e-09	1.056326e+01	1.923082e+02
1.620000e-06	1.646601e-06	2.933814e-09	1.057507e+01	1.929488e+02
1.630000e-06	1.647709e-06	2.941554e-09	1.058218e+01	1.935616e+02
1.640000e-06	1.648354e-06	2.951151e-09	1.058632e+01	1.941007e+02
1.650000e-06	1.648576e-06	2.958132e-09	1.058775e+01	1.945172e+02
1.660000e-06	1.648250e-06	2.961008e-09	1.058565e+01	1.947898e+02
1.670000e-06	1.647374e-06	2.960941e-09	1.058003e+01	1.949396e+02
1.680000e-06	1.645985e-06	2.963843e-09	1.057111e+01	1.950203e+02
1.690000e-06	1.644088e-06	2.973080e-09	1.055893e+01	1.950876e+02
1.700000e-06	1.641650e-06	2.970016e-09	1.054327e+01	1.951649e+02
1.710000e-06	1.638662e-06	2.934322e-09	1.052408e+01	1.952277e+02
1.720000e-06	1.635197e-06	2.944295e-09	1.050183e+01	1.952156e+02
1.730000e-06	1.631081e-06	3.016574e-09	1.047539e+01	1.950669e+02
1.740000e-06	1.626264e-06	2.996482e-09	1.044445e+01	1.947557e+02
1.750000e-06	1.621041e-06	2.902086e-09	1.041091e+01	1.943073e+02
1.760000e-06	1.615262e-06	2.906779e-09	1.037379e+01	1.937848e+02
1.770000e-06	1.608681e-06	2.981595e-09	1.033153e+01	1.932521e+02
1.780000e-06	1.601489e-06	2.962418e-09	1.028534e+01	1.927375e+02
1.790000e-06	1.593919e-06	2.869621e-09	1.023672e+01	1.922179e+02
1.800000e-06	1.585870e-06	2.885167e-09	1.018503e+01	1.916328e+02
1.810000e-06	1.577157e-06	2.937213e-09	1.012907e+01	1.909192e+02
1.820000e-06	1.567883e-06	2.888566e-09	1.006951e+01	1.900467e+02
1.830000e-06	1.558194e-06	2.846130e-09	1.000729e+01	1.890323e+02
1.840000e-06	1.547961e-06	2.888654e-09	9.941565e+00	1.879288e+02
1.850000e-06	1.537037e-06	2.852520e-09	9.871406e+00	1.867952e+02
1.860000e-06	1.525570e-06	2.753161e-09	9.797761e+00	1.856664e+02
1.870000e-06	1.513624e-06	2.797018e-09	9.721038e+00	1.845394e+02
1.880000e-06	1.500847e-06	2.870723e-09	9.638983e+00	1.833804e+02
1.890000e-06	1.487011e-06	2.762684e-09	9.550119e+00	1.821480e+02
1.900000e-06	1.472431e-06	2.655128e-09	9.456485e+00	1.808164e+02
1.910000e-06	1.457406e-06	2.745458e-09	9.359989e+00	1.793875e+02
1.920000e-06	1.441966e-06	2.783563e-09	9.260828e+00	1.778869e+02
1.930000e-06	1.426132e-06	2.647882e-09	9.159136e+00	1.763478e+02
1.940000e-06	1.409885e-06	2.587747e-09	9.054792e+00	1.747929e+02
1.950000e-06	1.393152e-06	2.655756e-09	8.947327e+00	1.732235e+02
1.960000e-06	1.375942e-06	2.639500e-09	8.836797e+00	1.716199e+02
1.970000e-06	1.358296e-06	2.565273e-09	8.723469e+00	1.699519e+02
1.980000e-06	1.340185e-06	2.548360e-09	8.607149e+00	1.681940e+02
1.990000e-06	1.321555e-06	2.521490e-09	8.487504e+00	1.663371e+02
2.000000e-06	1.302477e-06	2.471861e-09	8.364976e+00	1.643934e+02
2.010000e-06	1.283104e-06	2.477021e-09	8.240555e+00	1.623907e+02
2.020000e-06	1.263463e-06	2.461320e-09	8.114418e+00	1.603604e+02
2.030000e-06	1.243456e-06	2.379046e-09	7.985923e+00	1.583242e+02
2.040000e-06	1.222888e-06	2.340787e-09	7.853828e+00	1.562855e+02
2.050000e-06	1.201640e-06	2.356033e-09	7.717368e+00	1.542289e+02
2.060000e-06	1.179720e-06	2.336061e-09	7.576585e+00	1.521296e+02
2.070000e-06	1.157174e-06	2.267307e-09	7.431788e+00	1.499654e+02
2.080000e-06	1.134177e-06	2.207820e-09	7.284092e+00	1.477280e+02
2.090000e-06	1.110883e-06	2.194329e-09	7.134492e+00	1.454254e+02
2.100000e-06	1.087352e-06	2.195774e-09	6.983368e+00	1.430764e+02
2.110000e-06	1.063556e-06	2.143569e-09	6.830538e+00	1.407002e+02
2.120000e-06	1.039430e-06	2.072019e-09	6.675595e+00	1.383059e+02
2.130000e-06	1.014896e-06	2.052916e-09	6.518026e+00	1.358895e+02
2.140000e-06	9.899466e-07	2.040949e-09	6.357794e+00	1.334382e+02
2.150000e-06	9.646915e-07	1.995596e-09	6.195597e+00	1.309391e+02
2.160000e-06	9.391845e-07	1.946898e-09	6.031782e+00	1.283876e+02
2.170000e-06	9.133728e-07	1.896617e-09	5.866010e+00	1.257909e+02
2.180000e-06	8.871619e-07	1.850097e-09	5.697674e+00	1.231635e+02
2.190000e-06	8.605406e-07	1.835943e-09	5.526702e+00	1.205200e+02
2.200000e-06	8.336208e-07	1.805926e-09	5.353814e+00	1.178674e+02
2.210000e-06	8.064995e-07	1.734137e-09	5.179631e+00	1.152019e+02
2.220000e-06	7.792087e-07	1.686524e-09	5.004360e+00	1.125114e+02
2.230000e-06	7.517649e-07	1.670280e-09	4.828106e+00	1.097813e+02
2.240000e-06	7.241706e-07	1.635327e-09	4.650885e+00	1.070020e+02
2.250000e-06	6.964152e-07	1.577020e-09	4.472630e+00	1.041718e+02
2.260000e-06	6.684756e-07	1.519324e-09	4.293191e+00	1.012970e+02
2.270000e-06	6.403282e-07	1.476688e-09	4.112419e+00	9.838800e+01
2.280000e-06	6.118868e-07	1.452881e-09	3.929758e+00	9.545417e+01
2.290000e-06	5.830059e-07	1.413490e-09	3.744274e+00	9.249992e+01
2.300000e-06	5.537190e-07	1.347438e-09	3.556183e+00	8.952404e+01
2.310000e-06	5.241422e-07	1.295130e-09	3.366230e+00	8.652172e+01
2.320000e-06	4.942982e-07	1.265698e-09	3.174562e+00	8.348809e+01
2.330000e-06	4.641525e-07	1.231194e-09	2.980955e+00	8.042161e+01
2.340000e-06	4.337198e-07	1.176092e-09	2.785505e+00	7.732556e+01
2.350000e-06	4.030879e-07	1.112685e-09	2.588776e+00	7.420768e+01
2.360000e-06	3.722831e-07	1.064148e-09	2.390937e+00	7.107805e+01
2.370000e-06	3.412889e-07	1.033050e-09	2.191880e+00	6.794612e+01
2.380000e-06	3.101425e-07	9.904913e-10	1.991847e+00	6.481751e+01
2.390000e-06	2.789328e-07	9.301705e-10	1.791407e+00	6.169080e+01
2.400000e-06	2.476763e-07	8.747784e-10	1.590666e+00	5.855548e+01
2.410000e-06	2.163830e-07	8.343822e-10	1.389690e+00	5.539237e+01
2.420000e-06	1.850420e-07	7.981647e-10	1.188406e+00	5.217801e+01
2.430000e-06	1.536499e-07	7.480316e-10	9.867952e-01	4.889295e+01
2.440000e-06	1.222531e-07	6.843085e-10	7.851533e-01	4.553140e+01
2.450000e-06	9.084750e-08	6.295182e-10	5.834554e-01	4.210694e+01
2.460000e-06	5.941284e-08	5.924953e-10	3.815707e-01	3.864987e+01
2.470000e-06	2.797548e-08	5.493395e-10	1.796686e-01	3.519478e+01
2.480000e-06	-3.433913e-09	4.877760e-10	-2.205383e-02	3.176344e+01
2.490000e-06	-3.483921e-08	4.262064e-10	-2.237500e-01	2.835191e+01
2.500000e-06	-6.625571e-08	3.804278e-10	-4.255181e-01	2.493066e+01
2.510000e-06	-9.767579e-08	3.407706e-10	-6.273092e-01	2.145973e+01
2.520000e-06	-1.290756e-07	2.870759e-10	-8.289700e-01	1.791204e+01
2.530000e-06	-1.604474e-07	2.210042e-10	-1.030451e+00	1.429137e+01
2.540000e-06	-1.918046e-07	1.614086e-10	-1.231838e+00	1.063337e+01
2.550000e-06	-2.231356e-07	1.153441e-10	-1.433057e+00	6.986959e+00
2.560000e-06	-2.544233e-07	6.773063e-11	-1.633998e+00	3.386076e+00
2.570000e-06	-2.856489e-07	8.651240e-12	-1.834541e+00	-1.713599e-01
2.580000e-06	-3.167442e-07	-5.408212e-11	-2.034245e+00	-3.723443e+00
2.590000e-06	-3.476954e-07	-1.071176e-10	-2.233026e+00	-7.321773e+00
2.600000e-06	-3.785221e-07	-1.520507e-10	-2.431005e+00	-1.099924e+01
2.610000e-06	-4.092358e-07	-2.057111e-10	-2.628260e+00	-1.474783e+01
2.620000e-06	-4.397688e-07	-2.701637e-10	-2.824354e+00	-1.852077e+01
2.630000e-06	-4.700182e-07	-3.307839e-10	-3.018626e+00	-2.225853e+01
2.640000e-06	-5.000417e-07	-3.801826e-10	-3.211448e+00	-2.592332e+01
2.650000e-06	-5.297381e-07	-4.287281e-10	-3.402169e+00	-2.952090e+01
2.660000e-06	-5.590058e-07	-4.864990e-10	-3.590137e+00	-3.309641e+01
2.670000e-06	-5.878994e-07	-5.486066e-10	-3.775702e+00	-3.670690e+01
2.680000e-06	-6.164240e-07	-6.033323e-10	-3.958897e+00	-4.038742e+01
2.690000e-06	-6.446145e-07	-6.514465e-10	-4.139947e+00	-4.413108e+01
2.700000e-06	-6.725258e-07	-7.048640e-10	-4.319204e+00	-4.789442e+01
2.710000e-06	-7.002136e-07	-7.678435e-10	-4.497024e+00	-5.162358e+01
2.720000e-06	-7.277840e-07	-8.304458e-10	-4.674091e+00	-5.528469e+01
2.730000e-06	-7.552804e-07	-8.827997e-10	-4.850683e+00	-5.888047e+01
2.740000e-06	-7.826494e-07	-9.297646e-10	-5.026457e+00	-6.244485e+01
2.750000e-06	-8.098676e-07	-9.829631e-10	-5.201262e+00	-6.602064e+01
2.760000e-06	-8.368604e-07	-1.043430e-09	-5.374620e+00	-6.963480e+01
2.770000e-06	-8.635564e-07	-1.100640e-09	-5.546071e+00	-7.328516e+01
2.780000e-06	-8.898704e-07	-1.150980e-09	-5.715069e+00	-7.694422e+01
2.790000e-06	-9.157981e-07	-1.203496e-09	-5.881586e+00	-8.057551e+01
2.800000e-06	-9.413850e-07	-1.262567e-09	-6.045914e+00	-8.415179e+01
2.810000e-06	-9.666754e-07	-1.320553e-09	-6.208338e+00	-8.766571e+01
2.820000e-06	-9.916748e-07	-1.370755e-09	-6.368893e+00	-9.112916e+01
2.830000e-06	-1.016312e-06	-1.416508e-09	-6.527121e+00	-9.456386e+01
2.840000e-06	-1.040525e-06	-1.467377e-09	-6.682626e+00	-9.798893e+01
2.850000e-06	-1.064364e-06	-1.525435e-09	-6.835728e+00	-1.014112e+02
2.860000e-06	-1.087988e-06	-1.581857e-09	-6.987449e+00	-1.048214e+02
2.870000e-06	-1.111424e-06	-1.631312e-09	-7.137968e+00	-1.081973e+02
2.880000e-06	-1.134578e-06	-1.679513e-09	-7.286667e+00	-1.115131e+02
2.890000e-06	-1.157268e-06	-1.732333e-09	-7.432394e+00	-1.147507e+02
2.900000e-06	-1.179399e-06	-1.785065e-09	-7.574526e+00	-1.179100e+02
2.910000e-06	-1.200930e-06	-1.831075e-09	-7.712807e+00	-1.210107e+02
2.920000e-06	-1.221762e-06	-1.872084e-09	-7.846599e+00	-1.240843e+02
2.930000e-06	-1.241967e-06	-1.915801e-09	-7.976361e+00	-1.271569e+02
2.940000e-06	-1.261774e-06	-1.966142e-09	-8.103567e+00	-1.302326e+02
