# Temperatura_=_20.0
# Concentracion g/m^3_=_10000.0
# C_Vs_to_Am_M_A/Vsm_=_65563218390.804596
# pendiente_HvsI_1/m_=_3716.3
# ordenada_HvsI_A/m_=_1297.0
# frecuencia_Hz_=_301988.83850152965

Tiempo_(s)	Campo_(V.s)	Magnetizacion_(V.s)	Campo_(kA/m)	Magnetizacion_(A/m)
0.000000e+00	-1.639370e-06	-2.965230e-09	-1.053452e+01	-1.941721e+02
1.000000e-08	-1.639063e-06	-2.968798e-09	-1.053255e+01	-1.943823e+02
2.000000e-08	-1.638380e-06	-2.972491e-09	-1.052816e+01	-1.945092e+02
3.000000e-08	-1.637119e-06	-2.973964e-09	-1.052006e+01	-1.945922e+02
4.000000e-08	-1.635111e-06	-2.968204e-09	-1.050715e+01	-1.946529e+02
5.000000e-08	-1.632251e-06	-2.970525e-09	-1.048877e+01	-1.946777e+02
6.000000e-08	-1.628565e-06	-2.990574e-09	-1.046509e+01	-1.946224e+02
7.000000e-08	-1.624271e-06	-3.012290e-09	-1.043750e+01	-1.944403e+02
8.000000e-08	-1.619531e-06	-2.972830e-09	-1.040703e+01	-1.941135e+02
9.000000e-08	-1.614378e-06	-2.902836e-09	-1.037392e+01	-1.936692e+02
1.000000e-07	-1.608750e-06	-2.950636e-09	-1.033776e+01	-1.931660e+02
1.100000e-07	-1.602547e-06	-2.994604e-09	-1.029790e+01	-1.926594e+02
1.200000e-07	-1.595702e-06	-2.965182e-09	-1.025391e+01	-1.921665e+02
1.300000e-07	-1.588281e-06	-2.891860e-09	-1.020623e+01	-1.916542e+02
1.400000e-07	-1.580433e-06	-2.914874e-09	-1.015579e+01	-1.910580e+02
1.500000e-07	-1.572148e-06	-2.959637e-09	-1.010255e+01	-1.903218e+02
1.600000e-07	-1.563451e-06	-2.907280e-09	-1.004666e+01	-1.894317e+02
1.700000e-07	-1.554248e-06	-2.871414e-09	-9.987529e+00	-1.884241e+02
1.800000e-07	-1.544151e-06	-2.875549e-09	-9.922646e+00	-1.873621e+02
1.900000e-07	-1.532961e-06	-2.862934e-09	-9.850737e+00	-1.862975e+02
2.000000e-07	-1.521032e-06	-2.809164e-09	-9.774087e+00	-1.852404e+02
2.100000e-07	-1.508731e-06	-2.845227e-09	-9.695036e+00	-1.841566e+02
2.200000e-07	-1.495873e-06	-2.851968e-09	-9.612411e+00	-1.829926e+02
2.300000e-07	-1.482277e-06	-2.761960e-09	-9.525045e+00	-1.817104e+02
2.400000e-07	-1.468176e-06	-2.707163e-09	-9.434433e+00	-1.803108e+02
2.500000e-07	-1.453641e-06	-2.770206e-09	-9.341034e+00	-1.788306e+02
2.600000e-07	-1.438346e-06	-2.770222e-09	-9.242750e+00	-1.773189e+02
2.700000e-07	-1.422123e-06	-2.662959e-09	-9.138500e+00	-1.758074e+02
2.800000e-07	-1.405280e-06	-2.631288e-09	-9.030269e+00	-1.742942e+02
2.900000e-07	-1.388000e-06	-2.675586e-09	-8.919224e+00	-1.727496e+02
3.000000e-07	-1.370310e-06	-2.662192e-09	-8.805554e+00	-1.711368e+02
3.100000e-07	-1.352309e-06	-2.589867e-09	-8.689880e+00	-1.694341e+02
3.200000e-07	-1.333900e-06	-2.558396e-09	-8.571584e+00	-1.676454e+02
3.300000e-07	-1.314924e-06	-2.535819e-09	-8.449641e+00	-1.657929e+02
3.400000e-07	-1.295393e-06	-2.519441e-09	-8.324138e+00	-1.639016e+02
3.500000e-07	-1.275515e-06	-2.509783e-09	-8.196401e+00	-1.619847e+02
3.600000e-07	-1.255384e-06	-2.470005e-09	-8.067044e+00	-1.600391e+02
3.700000e-07	-1.234962e-06	-2.402747e-09	-7.935813e+00	-1.580528e+02
3.800000e-07	-1.214212e-06	-2.385712e-09	-7.802475e+00	-1.560155e+02
3.900000e-07	-1.193086e-06	-2.395896e-09	-7.666715e+00	-1.539272e+02
4.000000e-07	-1.171508e-06	-2.350480e-09	-7.528059e+00	-1.517975e+02
4.100000e-07	-1.149482e-06	-2.280024e-09	-7.386523e+00	-1.496393e+02
4.200000e-07	-1.127070e-06	-2.240753e-09	-7.242501e+00	-1.474605e+02
4.300000e-07	-1.104304e-06	-2.244120e-09	-7.096209e+00	-1.452597e+02
4.400000e-07	-1.081143e-06	-2.224593e-09	-6.947375e+00	-1.430278e+02
4.500000e-07	-1.057557e-06	-2.164895e-09	-6.795816e+00	-1.407533e+02
4.600000e-07	-1.033585e-06	-2.102479e-09	-6.641774e+00	-1.384281e+02
4.700000e-07	-1.009386e-06	-2.083612e-09	-6.486267e+00	-1.360494e+02
4.800000e-07	-9.850481e-07	-2.071728e-09	-6.329875e+00	-1.336196e+02
4.900000e-07	-9.604388e-07	-2.022600e-09	-6.171737e+00	-1.311429e+02
5.000000e-07	-9.354390e-07	-1.961130e-09	-6.011089e+00	-1.286233e+02
5.100000e-07	-9.099452e-07	-1.917281e-09	-5.847268e+00	-1.260649e+02
5.200000e-07	-8.838420e-07	-1.900995e-09	-5.679530e+00	-1.234721e+02
5.300000e-07	-8.571548e-07	-1.876389e-09	-5.508039e+00	-1.208511e+02
5.400000e-07	-8.300057e-07	-1.822830e-09	-5.333580e+00	-1.182087e+02
5.500000e-07	-8.024788e-07	-1.754634e-09	-5.156694e+00	-1.155497e+02
5.600000e-07	-7.746621e-07	-1.720968e-09	-4.977944e+00	-1.128738e+02
5.700000e-07	-7.466425e-07	-1.706657e-09	-4.797892e+00	-1.101741e+02
5.800000e-07	-7.185000e-07	-1.665141e-09	-4.617049e+00	-1.074394e+02
5.900000e-07	-6.902838e-07	-1.601151e-09	-4.435733e+00	-1.046578e+02
6.000000e-07	-6.619019e-07	-1.549641e-09	-4.253352e+00	-1.018229e+02
6.100000e-07	-6.332732e-07	-1.524036e-09	-4.069386e+00	-9.893590e+01
6.200000e-07	-6.043892e-07	-1.493655e-09	-3.883778e+00	-9.600510e+01
6.300000e-07	-5.752163e-07	-1.439452e-09	-3.696314e+00	-9.304116e+01
6.400000e-07	-5.458531e-07	-1.372477e-09	-3.507628e+00	-9.005166e+01
6.500000e-07	-5.163469e-07	-1.329315e-09	-3.318023e+00	-8.703797e+01
6.600000e-07	-4.866114e-07	-1.304710e-09	-3.126943e+00	-8.399625e+01
6.700000e-07	-4.566878e-07	-1.262589e-09	-2.934656e+00	-8.092202e+01
6.800000e-07	-4.266548e-07	-1.196550e-09	-2.741665e+00	-7.781506e+01
6.900000e-07	-3.965182e-07	-1.136622e-09	-2.548009e+00	-7.468152e+01
7.000000e-07	-3.662749e-07	-1.102327e-09	-2.353666e+00	-7.153164e+01
7.100000e-07	-3.359455e-07	-1.067850e-09	-2.158771e+00	-6.837425e+01
7.200000e-07	-3.055019e-07	-1.011255e-09	-1.963141e+00	-6.521142e+01
7.300000e-07	-2.749784e-07	-9.440372e-10	-1.766999e+00	-6.203634e+01
7.400000e-07	-2.444432e-07	-8.957844e-10	-1.570781e+00	-5.883552e+01
7.500000e-07	-2.138286e-07	-8.633660e-10	-1.374053e+00	-5.559413e+01
7.600000e-07	-1.830394e-07	-8.200711e-10	-1.176203e+00	-5.230176e+01
7.700000e-07	-1.521639e-07	-7.552370e-10	-9.777982e-01	-4.895619e+01
7.800000e-07	-1.212471e-07	-6.895981e-10	-7.791286e-01	-4.556419e+01
7.900000e-07	-9.028113e-08	-6.446422e-10	-5.801426e-01	-4.213944e+01
8.000000e-07	-5.931254e-08	-6.058593e-10	-3.811398e-01	-3.869834e+01
8.100000e-07	-2.830039e-08	-5.505804e-10	-1.818570e-01	-3.525455e+01
8.200000e-07	2.713877e-09	-4.811799e-10	1.743926e-02	-3.181331e+01
8.300000e-07	3.366899e-08	-4.228829e-10	2.163554e-01	-2.836786e+01
8.400000e-07	6.460679e-08	-3.821084e-10	4.151604e-01	-2.490039e+01
8.500000e-07	9.550584e-08	-3.372191e-10	6.137163e-01	-2.138904e+01
8.600000e-07	1.263769e-07	-2.720493e-10	8.120926e-01	-1.781922e+01
8.700000e-07	1.572684e-07	-2.026617e-10	1.010600e+00	-1.419397e+01
8.800000e-07	1.880933e-07	-1.497555e-10	1.208679e+00	-1.053670e+01
8.900000e-07	2.188290e-07	-1.059551e-10	1.406185e+00	-6.882765e+00
9.000000e-07	2.494505e-07	-5.223951e-11	1.602958e+00	-3.262272e+00
9.100000e-07	2.799587e-07	1.523432e-11	1.799002e+00	3.167292e-01
9.200000e-07	3.103917e-07	7.702092e-11	1.994563e+00	3.874445e+00
9.300000e-07	3.407339e-07	1.229074e-10	2.189541e+00	7.449529e+00
9.400000e-07	3.710024e-07	1.690840e-10	2.384045e+00	1.107744e+01
9.500000e-07	4.011918e-07	2.322562e-10	2.578041e+00	1.476915e+01
9.600000e-07	4.312654e-07	3.034003e-10	2.771292e+00	1.850324e+01
9.700000e-07	4.612321e-07	3.618932e-10	2.963857e+00	2.223725e+01
9.800000e-07	4.911363e-07	4.083586e-10	3.156020e+00	2.593196e+01
9.900000e-07	5.209525e-07	4.600427e-10	3.347618e+00	2.957417e+01
1.000000e-06	5.505480e-07	5.252586e-10	3.537797e+00	3.318376e+01
1.010000e-06	5.798406e-07	5.891952e-10	3.726030e+00	3.680040e+01
1.020000e-06	6.088555e-07	6.405966e-10	3.912479e+00	4.045823e+01
1.030000e-06	6.376152e-07	6.908396e-10	4.097287e+00	4.416419e+01
1.040000e-06	6.661675e-07	7.544987e-10	4.280763e+00	4.789351e+01
1.050000e-06	6.945775e-07	8.233143e-10	4.463324e+00	5.160483e+01
1.060000e-06	7.228715e-07	8.783693e-10	4.645141e+00	5.526494e+01
1.070000e-06	7.510526e-07	9.221009e-10	4.826231e+00	5.886740e+01
1.080000e-06	7.791160e-07	9.727294e-10	5.006565e+00	6.243376e+01
1.090000e-06	8.070099e-07	1.035131e-09	5.185810e+00	6.599741e+01
1.100000e-06	8.346507e-07	1.096990e-09	5.363429e+00	6.958105e+01
1.110000e-06	8.619184e-07	1.147569e-09	5.538650e+00	7.318218e+01
1.120000e-06	8.886563e-07	1.195174e-09	5.710466e+00	7.677539e+01
1.130000e-06	9.147401e-07	1.252276e-09	5.878080e+00	8.032906e+01
1.140000e-06	9.401869e-07	1.312535e-09	6.041599e+00	8.382554e+01
1.150000e-06	9.651360e-07	1.364518e-09	6.201921e+00	8.727207e+01
1.160000e-06	9.897310e-07	1.409567e-09	6.359967e+00	9.069607e+01
1.170000e-06	1.014082e-06	1.459814e-09	6.516449e+00	9.412798e+01
1.180000e-06	1.038252e-06	1.519794e-09	6.671759e+00	9.758206e+01
1.190000e-06	1.062152e-06	1.579269e-09	6.825342e+00	1.010461e+02
1.200000e-06	1.085656e-06	1.628296e-09	6.976379e+00	1.044857e+02
1.210000e-06	1.108760e-06	1.671837e-09	7.124845e+00	1.078611e+02
1.220000e-06	1.131471e-06	1.721246e-09	7.270781e+00	1.111469e+02
1.230000e-06	1.153805e-06	1.775653e-09	7.414302e+00	1.143454e+02
1.240000e-06	1.175839e-06	1.824774e-09	7.555891e+00	1.174863e+02
1.250000e-06	1.197466e-06	1.866418e-09	7.694860e+00	1.206118e+02
1.260000e-06	1.218582e-06	1.908944e-09	7.830553e+00	1.237552e+02
1.270000e-06	1.239258e-06	1.960774e-09	7.963420e+00	1.269220e+02
1.280000e-06	1.259602e-06	2.015281e-09	8.094150e+00	1.300835e+02
1.290000e-06	1.279722e-06	2.061562e-09	8.223435e+00	1.331870e+02
1.300000e-06	1.299543e-06	2.099734e-09	8.350803e+00	1.361795e+02
1.310000e-06	1.318915e-06	2.140043e-09	8.475287e+00	1.390321e+02
1.320000e-06	1.337765e-06	2.186113e-09	8.596421e+00	1.417545e+02
1.330000e-06	1.356082e-06	2.228654e-09	8.714125e+00	1.443901e+02
1.340000e-06	1.373887e-06	2.263434e-09	8.828537e+00	1.469937e+02
1.350000e-06	1.391290e-06	2.297798e-09	8.940366e+00	1.496037e+02
1.360000e-06	1.408324e-06	2.339791e-09	9.049830e+00	1.522223e+02
1.370000e-06	1.424942e-06	2.384256e-09	9.156614e+00	1.548161e+02
1.380000e-06	1.440919e-06	2.421569e-09	9.259280e+00	1.573344e+02
1.390000e-06	1.456094e-06	2.451614e-09	9.356795e+00	1.597370e+02
1.400000e-06	1.470658e-06	2.483339e-09	9.450381e+00	1.620139e+02
1.410000e-06	1.484701e-06	2.520544e-09	9.540624e+00	1.641873e+02
1.420000e-06	1.498240e-06	2.556037e-09	9.627623e+00	1.662959e+02
1.430000e-06	1.511222e-06	2.583721e-09	9.711048e+00	1.683721e+02
1.440000e-06	1.523674e-06	2.608830e-09	9.791060e+00	1.704243e+02
1.450000e-06	1.535688e-06	2.638500e-09	9.868266e+00	1.724348e+02
1.460000e-06	1.547119e-06	2.670450e-09	9.941717e+00	1.743707e+02
1.470000e-06	1.557702e-06	2.698720e-09	1.000972e+01	1.762011e+02
1.480000e-06	1.567344e-06	2.721648e-09	1.007168e+01	1.779102e+02
1.490000e-06	1.576244e-06	2.743176e-09	1.012888e+01	1.795009e+02
1.500000e-06	1.584656e-06	2.765542e-09	1.018293e+01	1.809901e+02
1.510000e-06	1.592716e-06	2.787907e-09	1.023473e+01	1.824003e+02
1.520000e-06	1.600321e-06	2.807606e-09	1.028359e+01	1.837524e+02
1.530000e-06	1.607320e-06	2.825314e-09	1.032857e+01	1.850596e+02
1.540000e-06	1.613793e-06	2.844712e-09	1.037016e+01	1.863237e+02
1.550000e-06	1.619738e-06	2.864483e-09	1.040836e+01	1.875341e+02
1.560000e-06	1.625059e-06	2.881189e-09	1.044256e+01	1.886695e+02
1.570000e-06	1.629794e-06	2.893942e-09	1.047298e+01	1.897061e+02
1.580000e-06	1.634124e-06	2.905396e-09	1.050081e+01	1.906283e+02
1.590000e-06	1.638129e-06	2.918090e-09	1.052655e+01	1.914389e+02
1.600000e-06	1.641610e-06	2.930692e-09	1.054891e+01	1.921589e+02
1.610000e-06	1.644293e-06	2.939720e-09	1.056616e+01	1.928172e+02
1.620000e-06	1.646067e-06	2.947451e-09	1.057755e+01	1.934327e+02
1.630000e-06	1.647086e-06	2.956499e-09	1.058410e+01	1.940014e+02
1.640000e-06	1.647568e-06	2.965828e-09	1.058720e+01	1.944975e+02
1.650000e-06	1.647654e-06	2.972105e-09	1.058775e+01	1.948898e+02
1.660000e-06	1.647334e-06	2.973620e-09	1.058569e+01	1.951640e+02
1.670000e-06	1.646427e-06	2.973266e-09	1.057986e+01	1.953352e+02
1.680000e-06	1.644917e-06	2.976876e-09	1.057016e+01	1.954402e+02
1.690000e-06	1.642924e-06	2.987961e-09	1.055736e+01	1.955143e+02
1.700000e-06	1.640439e-06	2.987423e-09	1.054139e+01	1.955649e+02
1.710000e-06	1.637386e-06	2.967276e-09	1.052177e+01	1.955631e+02
1.720000e-06	1.633782e-06	2.939652e-09	1.049861e+01	1.954596e+02
1.730000e-06	1.629607e-06	2.963247e-09	1.047178e+01	1.952165e+02
1.740000e-06	1.624789e-06	3.015563e-09	1.044082e+01	1.948349e+02
1.750000e-06	1.619503e-06	2.961331e-09	1.040686e+01	1.943589e+02
1.760000e-06	1.613775e-06	2.909836e-09	1.037005e+01	1.938504e+02
1.770000e-06	1.607204e-06	2.921960e-09	1.032782e+01	1.933520e+02
1.780000e-06	1.599788e-06	2.969515e-09	1.028017e+01	1.928588e+02
1.790000e-06	1.592013e-06	2.930964e-09	1.023021e+01	1.923203e+02
1.800000e-06	1.583927e-06	2.874976e-09	1.017825e+01	1.916705e+02
1.810000e-06	1.575162e-06	2.893169e-09	1.012192e+01	1.908684e+02
1.820000e-06	1.565691e-06	2.897677e-09	1.006106e+01	1.899225e+02
1.830000e-06	1.555841e-06	2.863886e-09	9.997767e+00	1.888849e+02
1.840000e-06	1.545614e-06	2.848310e-09	9.932049e+00	1.878189e+02
1.850000e-06	1.534681e-06	2.866211e-09	9.861790e+00	1.867606e+02
1.860000e-06	1.523058e-06	2.798247e-09	9.787104e+00	1.856995e+02
1.870000e-06	1.510984e-06	2.754723e-09	9.709516e+00	1.845891e+02
1.880000e-06	1.498286e-06	2.803651e-09	9.627916e+00	1.833786e+02
1.890000e-06	1.484545e-06	2.816285e-09	9.539623e+00	1.820449e+02
1.900000e-06	1.469941e-06	2.707211e-09	9.445778e+00	1.806062e+02
1.910000e-06	1.454811e-06	2.667317e-09	9.348553e+00	1.791083e+02
1.920000e-06	1.439243e-06	2.731701e-09	9.248512e+00	1.775960e+02
1.930000e-06	1.423318e-06	2.711859e-09	9.146180e+00	1.760874e+02
1.940000e-06	1.407078e-06	2.607835e-09	9.041818e+00	1.745669e+02
1.950000e-06	1.390384e-06	2.586323e-09	8.934545e+00	1.729984e+02
1.960000e-06	1.373083e-06	2.617116e-09	8.823370e+00	1.713497e+02
1.970000e-06	1.355342e-06	2.583737e-09	8.709367e+00	1.696097e+02
1.980000e-06	1.337225e-06	2.537527e-09	8.592951e+00	1.677917e+02
1.990000e-06	1.318556e-06	2.511398e-09	8.472985e+00	1.659214e+02
2.000000e-06	1.299371e-06	2.471685e-09	8.349704e+00	1.640199e+02
2.010000e-06	1.279890e-06	2.443697e-09	8.224519e+00	1.620933e+02
2.020000e-06	1.260170e-06	2.443240e-09	8.097799e+00	1.601333e+02
2.030000e-06	1.240159e-06	2.399644e-09	7.969205e+00	1.581272e+02
2.040000e-06	1.219684e-06	2.333437e-09	7.837634e+00	1.560688e+02
2.050000e-06	1.198556e-06	2.313918e-09	7.701870e+00	1.539626e+02
2.060000e-06	1.176738e-06	2.312316e-09	7.561666e+00	1.518207e+02
2.070000e-06	1.154200e-06	2.279354e-09	7.416837e+00	1.496546e+02
2.080000e-06	1.131051e-06	2.221186e-09	7.268081e+00	1.474685e+02
2.090000e-06	1.107553e-06	2.174361e-09	7.117088e+00	1.452572e+02
2.100000e-06	1.083873e-06	2.159630e-09	6.964920e+00	1.430097e+02
2.110000e-06	1.060033e-06	2.148003e-09	6.811726e+00	1.407156e+02
2.120000e-06	1.035939e-06	2.094375e-09	6.656897e+00	1.383688e+02
2.130000e-06	1.011450e-06	2.036186e-09	6.499531e+00	1.359692e+02
2.140000e-06	9.864980e-07	2.015495e-09	6.339192e+00	1.335201e+02
2.150000e-06	9.611468e-07	1.993200e-09	6.176287e+00	1.310260e+02
2.160000e-06	9.355320e-07	1.950501e-09	6.011687e+00	1.284907e+02
2.170000e-06	9.096899e-07	1.899322e-09	5.845627e+00	1.259182e+02
2.180000e-06	8.834760e-07	1.848276e-09	5.677178e+00	1.233139e+02
2.190000e-06	8.568844e-07	1.814606e-09	5.506301e+00	1.206844e+02
2.200000e-06	8.300369e-07	1.796680e-09	5.333780e+00	1.180359e+02
2.210000e-06	8.029327e-07	1.749443e-09	5.159610e+00	1.153715e+02
2.220000e-06	7.755575e-07	1.686750e-09	4.983698e+00	1.126880e+02
2.230000e-06	7.479983e-07	1.650057e-09	4.806604e+00	1.099762e+02
2.240000e-06	7.203136e-07	1.623383e-09	4.628704e+00	1.072240e+02
2.250000e-06	6.925026e-07	1.582138e-09	4.449991e+00	1.044214e+02
2.260000e-06	6.645835e-07	1.527803e-09	4.270584e+00	1.015649e+02
2.270000e-06	6.364808e-07	1.473420e-09	4.089998e+00	9.865927e+01
2.280000e-06	6.080848e-07	1.434845e-09	3.907526e+00	9.571443e+01
2.290000e-06	5.793980e-07	1.407433e-09	3.723186e+00	9.274035e+01
2.300000e-06	5.503374e-07	1.358227e-09	3.536444e+00	8.974209e+01
2.310000e-06	5.208793e-07	1.295045e-09	3.347147e+00	8.671841e+01
2.320000e-06	4.910900e-07	1.248820e-09	3.155723e+00	8.366456e+01
2.330000e-06	4.610196e-07	1.215902e-09	2.962492e+00	8.057736e+01
2.340000e-06	4.306202e-07	1.173874e-09	2.767146e+00	7.745932e+01
2.350000e-06	4.000053e-07	1.116089e-09	2.570416e+00	7.431886e+01
2.360000e-06	3.692819e-07	1.059261e-09	2.372989e+00	7.116638e+01
2.370000e-06	3.383647e-07	1.019118e-09	2.174317e+00	6.800832e+01
2.380000e-06	3.072721e-07	9.845785e-10	1.974517e+00	6.484296e+01
2.390000e-06	2.760141e-07	9.330607e-10	1.773654e+00	6.166012e+01
2.400000e-06	2.446600e-07	8.721461e-10	1.572174e+00	5.844499e+01
2.410000e-06	2.132425e-07	8.212762e-10	1.370287e+00	5.518401e+01
2.420000e-06	1.817877e-07	7.818238e-10	1.168160e+00	5.186997e+01
2.430000e-06	1.502947e-07	7.387620e-10	9.657868e-01	4.850459e+01
2.440000e-06	1.187583e-07	6.800918e-10	7.631353e-01	4.509801e+01
2.450000e-06	8.722390e-08	6.185260e-10	5.604969e-01	4.166567e+01
2.460000e-06	5.568500e-08	5.723519e-10	3.578294e-01	3.822352e+01
2.470000e-06	2.413984e-08	5.337631e-10	1.551216e-01	3.478223e+01
2.480000e-06	-7.405441e-09	4.815413e-10	-4.758703e-02	3.134215e+01
2.490000e-06	-3.894716e-08	4.191131e-10	-2.502727e-01	2.789131e+01
2.500000e-06	-7.048457e-08	3.641633e-10	-4.529307e-01	2.440897e+01
2.510000e-06	-1.020012e-07	3.212650e-10	-6.554551e-01	2.087490e+01
2.520000e-06	-1.335091e-07	2.740869e-10	-8.579237e-01	1.728111e+01
2.530000e-06	-1.649978e-07	2.128403e-10	-1.060269e+00	1.363965e+01
2.540000e-06	-1.964403e-07	1.494816e-10	-1.262317e+00	9.980747e+00
2.550000e-06	-2.278447e-07	9.659443e-11	-1.464120e+00	6.339831e+00
2.560000e-06	-2.591660e-07	5.167461e-11	-1.665389e+00	2.739214e+00
2.570000e-06	-2.903725e-07	-6.569067e-13	-1.865921e+00	-8.253141e-01
2.580000e-06	-3.215037e-07	-6.206288e-11	-2.065969e+00	-4.383964e+00
2.590000e-06	-3.525139e-07	-1.205523e-10	-2.265239e+00	-7.976984e+00
2.600000e-06	-3.833306e-07	-1.692450e-10	-2.463266e+00	-1.163141e+01
2.610000e-06	-4.139180e-07	-2.174306e-10	-2.659819e+00	-1.534419e+01
2.620000e-06	-4.441937e-07	-2.755477e-10	-2.854369e+00	-1.908248e+01
2.630000e-06	-4.742309e-07	-3.380011e-10	-3.047387e+00	-2.280193e+01
2.640000e-06	-5.040225e-07	-3.944395e-10	-3.238826e+00	-2.647236e+01
2.650000e-06	-5.334892e-07	-4.441197e-10	-3.428178e+00	-3.009509e+01
2.660000e-06	-5.626243e-07	-4.972091e-10	-3.615399e+00	-3.370114e+01
2.670000e-06	-5.913429e-07	-5.559238e-10	-3.799943e+00	-3.733109e+01
2.680000e-06	-6.196957e-07	-6.123260e-10	-3.982137e+00	-4.100928e+01
2.690000e-06	-6.477980e-07	-6.622890e-10	-4.162721e+00	-4.472837e+01
2.700000e-06	-6.757154e-07	-7.122930e-10	-4.342117e+00	-4.845375e+01
2.710000e-06	-7.034869e-07	-7.698564e-10	-4.520576e+00	-5.214449e+01
2.720000e-06	-7.311513e-07	-8.315858e-10	-4.698346e+00	-5.577745e+01
2.730000e-06	-7.587153e-07	-8.887008e-10	-4.875471e+00	-5.935920e+01
2.740000e-06	-7.860950e-07	-9.387323e-10	-5.051412e+00	-6.291904e+01
2.750000e-06	-8.132077e-07	-9.901286e-10	-5.225636e+00	-6.648838e+01
2.760000e-06	-8.400202e-07	-1.047729e-09	-5.397933e+00	-7.008001e+01
2.770000e-06	-8.665363e-07	-1.105179e-09	-5.568324e+00	-7.368031e+01
2.780000e-06	-8.927495e-07	-1.156743e-09	-5.736769e+00	-7.725864e+01
2.790000e-06	-9.186520e-07	-1.207817e-09	-5.903217e+00	-8.078720e+01
2.800000e-06	-9.442489e-07	-1.263286e-09	-6.067701e+00	-8.425852e+01
2.810000e-06	-9.695275e-07	-1.319717e-09	-6.230141e+00	-8.768998e+01
2.820000e-06	-9.944402e-07	-1.372076e-09	-6.390229e+00	-9.111280e+01
2.830000e-06	-1.018917e-06	-1.420230e-09	-6.547518e+00	-9.455253e+01
2.840000e-06	-1.043023e-06	-1.470015e-09	-6.702422e+00	-9.801253e+01
2.850000e-06	-1.066901e-06	-1.524333e-09	-6.855860e+00	-1.014697e+02
2.860000e-06	-1.090590e-06	-1.579433e-09	-7.008082e+00	-1.048848e+02
2.870000e-06	-1.114067e-06	-1.629847e-09	-7.158945e+00	-1.082221e+02
2.880000e-06	-1.137175e-06	-1.676946e-09	-7.307436e+00	-1.114670e+02
2.890000e-06	-1.159719e-06	-1.725403e-09	-7.452303e+00	-1.146346e+02
2.900000e-06	-1.181634e-06	-1.776458e-09	-7.593126e+00	-1.177623e+02
2.910000e-06	-1.202877e-06	-1.826986e-09	-7.729635e+00	-1.208913e+02
2.920000e-06	-1.223502e-06	-1.872632e-09	-7.862167e+00	-1.240447e+02
2.930000e-06	-1.243644e-06	-1.916324e-09	-7.991599e+00	-1.272132e+02
2.940000e-06	-1.263449e-06	-1.964541e-09	-8.118869e+00	-1.303555e+02
