# Temperatura_=_20.0
# Concentracion g/m^3_=_10000.0
# C_Vs_to_Am_M_A/Vsm_=_65563218390.804596
# pendiente_HvsI_1/m_=_3716.3
# ordenada_HvsI_A/m_=_1297.0
# frecuencia_Hz_=_212869.84921545468

Tiempo_(s)	Campo_(V.s)	Magnetizacion_(V.s)	Campo_(kA/m)	Magnetizacion_(A/m)
0.000000e+00	-5.455745e-06	-9.793446e-09	-3.842813e+01	-6.391637e+02
1.000000e-08	-5.455013e-06	-9.793595e-09	-3.842297e+01	-6.391407e+02
2.000000e-08	-5.453204e-06	-9.793723e-09	-3.841023e+01	-6.390304e+02
3.000000e-08	-5.450155e-06	-9.791306e-09	-3.838876e+01	-6.388427e+02
4.000000e-08	-5.446156e-06	-9.785995e-09	-3.836059e+01	-6.385949e+02
5.000000e-08	-5.441462e-06	-9.781661e-09	-3.832752e+01	-6.383068e+02
6.000000e-08	-5.435937e-06	-9.777288e-09	-3.828861e+01	-6.379941e+02
7.000000e-08	-5.429458e-06	-9.766040e-09	-3.824297e+01	-6.376657e+02
8.000000e-08	-5.422006e-06	-9.762158e-09	-3.819048e+01	-6.373219e+02
9.000000e-08	-5.413502e-06	-9.778352e-09	-3.813059e+01	-6.369562e+02
1.000000e-07	-5.403734e-06	-9.789472e-09	-3.806178e+01	-6.365574e+02
1.100000e-07	-5.392585e-06	-9.754226e-09	-3.798325e+01	-6.361126e+02
1.200000e-07	-5.380436e-06	-9.686952e-09	-3.789768e+01	-6.356092e+02
1.300000e-07	-5.367612e-06	-9.688355e-09	-3.780735e+01	-6.350366e+02
1.400000e-07	-5.353927e-06	-9.746985e-09	-3.771097e+01	-6.343877e+02
1.500000e-07	-5.339286e-06	-9.706540e-09	-3.760784e+01	-6.336596e+02
1.600000e-07	-5.323601e-06	-9.643555e-09	-3.749736e+01	-6.328558e+02
1.700000e-07	-5.306636e-06	-9.679195e-09	-3.737786e+01	-6.319870e+02
1.800000e-07	-5.288656e-06	-9.672669e-09	-3.725122e+01	-6.310706e+02
1.900000e-07	-5.270062e-06	-9.620470e-09	-3.712025e+01	-6.301291e+02
2.000000e-07	-5.250724e-06	-9.642197e-09	-3.698404e+01	-6.291847e+02
2.100000e-07	-5.230468e-06	-9.639492e-09	-3.684136e+01	-6.282536e+02
2.200000e-07	-5.209395e-06	-9.573910e-09	-3.669294e+01	-6.273398e+02
2.300000e-07	-5.187462e-06	-9.600133e-09	-3.653845e+01	-6.264315e+02
2.400000e-07	-5.164604e-06	-9.622018e-09	-3.637745e+01	-6.255019e+02
2.500000e-07	-5.140879e-06	-9.542759e-09	-3.621034e+01	-6.245139e+02
2.600000e-07	-5.116279e-06	-9.511017e-09	-3.603706e+01	-6.234301e+02
2.700000e-07	-5.090695e-06	-9.530614e-09	-3.585686e+01	-6.222221e+02
2.800000e-07	-5.064033e-06	-9.521304e-09	-3.566906e+01	-6.208796e+02
2.900000e-07	-5.036327e-06	-9.476164e-09	-3.547391e+01	-6.194126e+02
3.000000e-07	-5.007684e-06	-9.440057e-09	-3.527217e+01	-6.178492e+02
3.100000e-07	-4.978224e-06	-9.434128e-09	-3.506466e+01	-6.162260e+02
3.200000e-07	-4.947945e-06	-9.417763e-09	-3.485138e+01	-6.145770e+02
3.300000e-07	-4.916788e-06	-9.377835e-09	-3.463193e+01	-6.129227e+02
3.400000e-07	-4.884821e-06	-9.341508e-09	-3.440676e+01	-6.112644e+02
3.500000e-07	-4.852205e-06	-9.315273e-09	-3.417703e+01	-6.095851e+02
3.600000e-07	-4.818803e-06	-9.294317e-09	-3.394176e+01	-6.078561e+02
3.700000e-07	-4.784220e-06	-9.280087e-09	-3.369817e+01	-6.060484e+02
3.800000e-07	-4.748461e-06	-9.241097e-09	-3.344630e+01	-6.041428e+02
3.900000e-07	-4.711887e-06	-9.191299e-09	-3.318868e+01	-6.021366e+02
4.000000e-07	-4.674594e-06	-9.174069e-09	-3.292601e+01	-6.000438e+02
4.100000e-07	-4.636497e-06	-9.154376e-09	-3.265767e+01	-5.978885e+02
4.200000e-07	-4.597551e-06	-9.111578e-09	-3.238334e+01	-5.956954e+02
4.300000e-07	-4.557790e-06	-9.064852e-09	-3.210329e+01	-5.934794e+02
4.400000e-07	-4.517437e-06	-9.028738e-09	-3.181905e+01	-5.912400e+02
4.500000e-07	-4.476492e-06	-9.005379e-09	-3.153066e+01	-5.889610e+02
4.600000e-07	-4.434568e-06	-8.968997e-09	-3.123536e+01	-5.866167e+02
4.700000e-07	-4.391454e-06	-8.922415e-09	-3.093168e+01	-5.841818e+02
4.800000e-07	-4.347434e-06	-8.885285e-09	-3.062162e+01	-5.816405e+02
4.900000e-07	-4.302860e-06	-8.856561e-09	-3.030766e+01	-5.789923e+02
5.000000e-07	-4.257630e-06	-8.818169e-09	-2.998908e+01	-5.762517e+02
5.100000e-07	-4.211624e-06	-8.762301e-09	-2.966503e+01	-5.734416e+02
5.200000e-07	-4.164922e-06	-8.710092e-09	-2.933608e+01	-5.705844e+02
5.300000e-07	-4.117517e-06	-8.664685e-09	-2.900218e+01	-5.676926e+02
5.400000e-07	-4.069489e-06	-8.623183e-09	-2.866389e+01	-5.647644e+02
5.500000e-07	-4.020851e-06	-8.579023e-09	-2.832130e+01	-5.617845e+02
5.600000e-07	-3.971304e-06	-8.525910e-09	-2.797231e+01	-5.587300e+02
5.700000e-07	-3.920631e-06	-8.481791e-09	-2.761539e+01	-5.555801e+02
5.800000e-07	-3.868979e-06	-8.441720e-09	-2.725157e+01	-5.523237e+02
5.900000e-07	-3.816531e-06	-8.392271e-09	-2.688215e+01	-5.489632e+02
6.000000e-07	-3.763308e-06	-8.330806e-09	-2.650727e+01	-5.455125e+02
6.100000e-07	-3.709348e-06	-8.268419e-09	-2.612719e+01	-5.419902e+02
6.200000e-07	-3.654733e-06	-8.218721e-09	-2.574250e+01	-5.384107e+02
6.300000e-07	-3.599463e-06	-8.166997e-09	-2.535321e+01	-5.347766e+02
6.400000e-07	-3.543638e-06	-8.103496e-09	-2.496000e+01	-5.310765e+02
6.500000e-07	-3.487362e-06	-8.036023e-09	-2.456361e+01	-5.272884e+02
6.600000e-07	-3.430574e-06	-7.979693e-09	-2.416362e+01	-5.233877e+02
6.700000e-07	-3.373107e-06	-7.930286e-09	-2.375884e+01	-5.193565e+02
6.800000e-07	-3.314814e-06	-7.867253e-09	-2.334825e+01	-5.151913e+02
6.900000e-07	-3.255651e-06	-7.796436e-09	-2.293153e+01	-5.109041e+02
7.000000e-07	-3.195744e-06	-7.726896e-09	-2.250957e+01	-5.065187e+02
7.100000e-07	-3.135347e-06	-7.658780e-09	-2.208416e+01	-5.020608e+02
7.200000e-07	-3.074530e-06	-7.585237e-09	-2.165579e+01	-4.975482e+02
7.300000e-07	-3.013185e-06	-7.503958e-09	-2.122370e+01	-4.929828e+02
7.400000e-07	-2.951303e-06	-7.427499e-09	-2.078782e+01	-4.883489e+02
7.500000e-07	-2.888935e-06	-7.360096e-09	-2.034853e+01	-4.836181e+02
7.600000e-07	-2.826086e-06	-7.294649e-09	-1.990584e+01	-4.787586e+02
7.700000e-07	-2.762729e-06	-7.219191e-09	-1.945958e+01	-4.737464e+02
7.800000e-07	-2.698863e-06	-7.135615e-09	-1.900973e+01	-4.685728e+02
7.900000e-07	-2.634640e-06	-7.053824e-09	-1.855737e+01	-4.632468e+02
8.000000e-07	-2.570109e-06	-6.971604e-09	-1.810284e+01	-4.577909e+02
8.100000e-07	-2.505256e-06	-6.883330e-09	-1.764604e+01	-4.522317e+02
8.200000e-07	-2.440003e-06	-6.789016e-09	-1.718642e+01	-4.465892e+02
8.300000e-07	-2.374209e-06	-6.698751e-09	-1.672300e+01	-4.408695e+02
8.400000e-07	-2.307785e-06	-6.616586e-09	-1.625513e+01	-4.350627e+02
8.500000e-07	-2.240747e-06	-6.532044e-09	-1.578294e+01	-4.291463e+02
8.600000e-07	-2.173249e-06	-6.437882e-09	-1.530752e+01	-4.230943e+02
8.700000e-07	-2.105453e-06	-6.338240e-09	-1.482999e+01	-4.168863e+02
8.800000e-07	-2.037422e-06	-6.242511e-09	-1.435080e+01	-4.105145e+02
8.900000e-07	-1.969154e-06	-6.145737e-09	-1.386995e+01	-4.039848e+02
9.000000e-07	-1.900667e-06	-6.037665e-09	-1.338755e+01	-3.973131e+02
9.100000e-07	-1.831944e-06	-5.925522e-09	-1.290350e+01	-3.905172e+02
9.200000e-07	-1.762950e-06	-5.816933e-09	-1.241753e+01	-3.836079e+02
9.300000e-07	-1.693630e-06	-5.712511e-09	-1.192926e+01	-3.765841e+02
9.400000e-07	-1.623952e-06	-5.603951e-09	-1.143848e+01	-3.694315e+02
9.500000e-07	-1.554007e-06	-5.490130e-09	-1.094581e+01	-3.621273e+02
9.600000e-07	-1.483854e-06	-5.379023e-09	-1.045169e+01	-3.546478e+02
9.700000e-07	-1.413394e-06	-5.268540e-09	-9.955395e+00	-3.469765e+02
9.800000e-07	-1.342643e-06	-5.152477e-09	-9.457050e+00	-3.391081e+02
9.900000e-07	-1.271593e-06	-5.024418e-09	-8.956603e+00	-3.310489e+02
1.000000e-06	-1.200259e-06	-4.889808e-09	-8.454151e+00	-3.228117e+02
1.010000e-06	-1.128714e-06	-4.756722e-09	-7.950218e+00	-3.144090e+02
1.020000e-06	-1.056936e-06	-4.624875e-09	-7.444645e+00	-3.058455e+02
1.030000e-06	-9.849959e-07	-4.490005e-09	-6.937925e+00	-2.971153e+02
1.040000e-06	-9.129611e-07	-4.352440e-09	-6.430540e+00	-2.882029e+02
1.050000e-06	-8.408281e-07	-4.217595e-09	-5.922464e+00	-2.790879e+02
1.060000e-06	-7.686111e-07	-4.081636e-09	-5.413795e+00	-2.697528e+02
1.070000e-06	-6.963383e-07	-3.936181e-09	-4.904734e+00	-2.601879e+02
1.080000e-06	-6.240160e-07	-3.779926e-09	-4.395324e+00	-2.503938e+02
1.090000e-06	-5.515773e-07	-3.617676e-09	-3.885094e+00	-2.403790e+02
1.100000e-06	-4.789752e-07	-3.456151e-09	-3.373714e+00	-2.301539e+02
1.110000e-06	-4.062199e-07	-3.294690e-09	-2.861254e+00	-2.197237e+02
1.120000e-06	-3.333646e-07	-3.129071e-09	-2.348089e+00	-2.090841e+02
1.130000e-06	-2.604800e-07	-2.962592e-09	-1.834719e+00	-1.982196e+02
1.140000e-06	-1.875974e-07	-2.797191e-09	-1.321363e+00	-1.871082e+02
1.150000e-06	-1.147238e-07	-2.627322e-09	-8.080696e-01	-1.757280e+02
1.160000e-06	-4.181361e-08	-2.448785e-09	-2.945186e-01	-1.640645e+02
1.170000e-06	3.110931e-08	-2.262613e-09	2.191218e-01	-1.521158e+02
1.180000e-06	1.039519e-07	-2.073194e-09	7.321961e-01	-1.398922e+02
1.190000e-06	1.767473e-07	-1.879785e-09	1.244939e+00	-1.274112e+02
1.200000e-06	2.494924e-07	-1.681055e-09	1.757327e+00	-1.146895e+02
1.210000e-06	3.221902e-07	-1.478748e-09	2.269381e+00	-1.017350e+02
1.220000e-06	3.948458e-07	-1.274744e-09	2.781139e+00	-8.854175e+01
1.230000e-06	4.673836e-07	-1.070503e-09	3.292067e+00	-7.509058e+01
1.240000e-06	5.397855e-07	-8.638928e-10	3.802037e+00	-6.135528e+01
1.250000e-06	6.120871e-07	-6.523959e-10	4.311302e+00	-4.731208e+01
1.260000e-06	6.843312e-07	-4.346292e-10	4.820161e+00	-3.294946e+01
1.270000e-06	7.564775e-07	-2.104997e-10	5.328331e+00	-1.827456e+01
1.280000e-06	8.285148e-07	1.901097e-11	5.835733e+00	-3.313941e+00
1.290000e-06	9.004769e-07	2.525318e-10	6.342606e+00	1.189147e+01
1.300000e-06	9.723491e-07	4.900326e-10	6.848846e+00	2.729544e+01
1.310000e-06	1.044060e-06	7.287487e-10	7.353946e+00	4.285612e+01
1.320000e-06	1.115576e-06	9.668320e-10	7.857683e+00	5.854280e+01
1.330000e-06	1.186921e-06	1.205178e-09	8.360207e+00	7.433743e+01
1.340000e-06	1.258102e-06	1.445347e-09	8.861577e+00	9.023029e+01
1.350000e-06	1.329003e-06	1.688304e-09	9.360975e+00	1.062117e+02
1.360000e-06	1.399586e-06	1.931012e-09	9.858133e+00	1.222629e+02
1.370000e-06	1.469968e-06	2.173157e-09	1.035388e+01	1.383490e+02
1.380000e-06	1.540178e-06	2.417068e-09	1.084841e+01	1.544177e+02
1.390000e-06	1.610158e-06	2.662355e-09	1.134133e+01	1.704033e+02
1.400000e-06	1.679818e-06	2.904551e-09	1.183198e+01	1.862348e+02
1.410000e-06	1.749203e-06	3.142263e-09	1.232070e+01	2.018462e+02
1.420000e-06	1.818265e-06	3.375640e-09	1.280714e+01	2.171845e+02
1.430000e-06	1.886975e-06	3.602739e-09	1.329112e+01	2.322140e+02
1.440000e-06	1.955466e-06	3.822785e-09	1.377354e+01	2.469150e+02
1.450000e-06	2.023740e-06	4.036918e-09	1.425443e+01	2.612789e+02
1.460000e-06	2.091760e-06	4.247324e-09	1.473354e+01	2.753009e+02
1.470000e-06	2.159495e-06	4.454344e-09	1.521064e+01	2.889737e+02
1.480000e-06	2.226917e-06	4.656522e-09	1.568553e+01	3.022841e+02
1.490000e-06	2.293857e-06	4.852564e-09	1.615703e+01	3.152137e+02
1.500000e-06	2.360205e-06	5.041102e-09	1.662436e+01	3.277426e+02
1.510000e-06	2.425901e-06	5.221434e-09	1.708709e+01	3.398553e+02
1.520000e-06	2.490926e-06	5.396468e-09	1.754511e+01	3.515456e+02
1.530000e-06	2.555460e-06	5.567048e-09	1.799966e+01	3.628185e+02
1.540000e-06	2.619665e-06	5.732783e-09	1.845189e+01	3.736892e+02
1.550000e-06	2.683552e-06	5.891647e-09	1.890189e+01	3.841794e+02
1.560000e-06	2.747026e-06	6.044178e-09	1.934897e+01	3.943109e+02
1.570000e-06	2.809998e-06	6.192703e-09	1.979252e+01	4.041007e+02
1.580000e-06	2.872463e-06	6.335967e-09	2.023250e+01	4.135573e+02
1.590000e-06	2.934498e-06	6.474552e-09	2.066945e+01	4.226812e+02
1.600000e-06	2.996077e-06	6.608419e-09	2.110319e+01	4.314668e+02
1.610000e-06	3.057099e-06	6.738429e-09	2.153301e+01	4.399074e+02
1.620000e-06	3.117611e-06	6.863289e-09	2.195923e+01	4.480001e+02
1.630000e-06	3.177736e-06	6.979121e-09	2.238273e+01	4.557490e+02
1.640000e-06	3.237411e-06	7.087856e-09	2.280306e+01	4.631667e+02
1.650000e-06	3.296423e-06	7.192685e-09	2.321871e+01	4.702731e+02
1.660000e-06	3.354612e-06	7.294596e-09	2.362857e+01	4.770918e+02
1.670000e-06	3.411927e-06	7.393084e-09	2.403228e+01	4.836469e+02
1.680000e-06	3.468504e-06	7.488428e-09	2.443078e+01	4.899586e+02
1.690000e-06	3.524568e-06	7.582032e-09	2.482567e+01	4.960420e+02
1.700000e-06	3.580136e-06	7.670619e-09	2.521707e+01	5.019066e+02
1.710000e-06	3.635100e-06	7.753491e-09	2.560422e+01	5.075582e+02
1.720000e-06	3.689447e-06	7.832269e-09	2.598702e+01	5.130019e+02
1.730000e-06	3.743179e-06	7.908885e-09	2.636549e+01	5.182446e+02
1.740000e-06	3.796236e-06	7.984624e-09	2.673920e+01	5.232973e+02
1.750000e-06	3.848589e-06	8.058020e-09	2.710795e+01	5.281749e+02
1.760000e-06	3.900190e-06	8.130080e-09	2.747141e+01	5.328951e+02
1.770000e-06	3.950875e-06	8.200951e-09	2.782841e+01	5.374757e+02
1.780000e-06	4.000576e-06	8.268927e-09	2.817849e+01	5.419312e+02
1.790000e-06	4.049376e-06	8.334010e-09	2.852222e+01	5.462703e+02
1.800000e-06	4.097477e-06	8.395823e-09	2.886102e+01	5.504953e+02
1.810000e-06	4.144979e-06	8.455044e-09	2.919561e+01	5.546024e+02
1.820000e-06	4.191800e-06	8.514370e-09	2.952539e+01	5.585845e+02
1.830000e-06	4.237904e-06	8.572683e-09	2.985014e+01	5.624349e+02
1.840000e-06	4.283268e-06	8.627767e-09	3.016966e+01	5.661498e+02
1.850000e-06	4.327950e-06	8.680524e-09	3.048438e+01	5.697307e+02
1.860000e-06	4.372111e-06	8.732290e-09	3.079544e+01	5.731838e+02
1.870000e-06	4.415626e-06	8.782536e-09	3.110194e+01	5.765183e+02
1.880000e-06	4.458143e-06	8.829193e-09	3.140141e+01	5.797427e+02
1.890000e-06	4.499531e-06	8.873591e-09	3.169293e+01	5.828612e+02
1.900000e-06	4.540046e-06	8.916140e-09	3.197831e+01	5.858726e+02
1.910000e-06	4.579875e-06	8.956619e-09	3.225884e+01	5.887698e+02
1.920000e-06	4.618896e-06	8.994526e-09	3.253369e+01	5.915436e+02
1.930000e-06	4.657110e-06	9.029726e-09	3.280286e+01	5.941861e+02
1.940000e-06	4.694562e-06	9.066243e-09	3.306665e+01	5.966957e+02
1.950000e-06	4.731297e-06	9.103481e-09	3.332540e+01	5.990798e+02
1.960000e-06	4.767376e-06	9.137850e-09	3.357953e+01	6.013540e+02
1.970000e-06	4.802605e-06	9.167123e-09	3.382767e+01	6.035390e+02
1.980000e-06	4.836688e-06	9.194515e-09	3.406773e+01	6.056547e+02
1.990000e-06	4.869659e-06	9.223511e-09	3.429997e+01	6.077144e+02
2.000000e-06	4.901796e-06	9.251032e-09	3.452633e+01	6.097206e+02
2.010000e-06	4.933199e-06	9.276179e-09	3.474752e+01	6.116641e+02
2.020000e-06	4.963828e-06	9.302693e-09	3.496326e+01	6.135283e+02
2.030000e-06	4.993630e-06	9.331708e-09	3.517317e+01	6.152950e+02
2.040000e-06	5.022623e-06	9.359640e-09	3.537739e+01	6.169522e+02
2.050000e-06	5.050961e-06	9.383820e-09	3.557699e+01	6.184997e+02
2.060000e-06	5.078545e-06	9.403372e-09	3.577128e+01	6.199507e+02
2.070000e-06	5.104949e-06	9.420955e-09	3.595726e+01	6.213286e+02
2.080000e-06	5.130143e-06	9.438582e-09	3.613472e+01	6.226600e+02
2.090000e-06	5.154405e-06	9.454555e-09	3.630561e+01	6.239661e+02
2.100000e-06	5.177813e-06	9.470990e-09	3.647048e+01	6.252555e+02
2.110000e-06	5.200317e-06	9.490432e-09	3.662900e+01	6.265213e+02
2.120000e-06	5.221964e-06	9.511508e-09	3.678147e+01	6.277437e+02
2.130000e-06	5.242803e-06	9.529902e-09	3.692825e+01	6.288966e+02
2.140000e-06	5.262922e-06	9.544563e-09	3.706996e+01	6.299577e+02
2.150000e-06	5.282301e-06	9.559950e-09	3.720645e+01	6.309163e+02
2.160000e-06	5.300689e-06	9.575511e-09	3.733598e+01	6.317781e+02
2.170000e-06	5.318024e-06	9.586388e-09	3.745807e+01	6.325631e+02
2.180000e-06	5.334452e-06	9.592708e-09	3.757379e+01	6.332999e+02
2.190000e-06	5.349951e-06	9.597735e-09	3.768296e+01	6.340156e+02
2.200000e-06	5.364399e-06	9.605126e-09	3.778472e+01	6.347265e+02
2.210000e-06	5.377829e-06	9.614922e-09	3.787932e+01	6.354332e+02
2.220000e-06	5.390402e-06	9.625655e-09	3.796788e+01	6.361204e+02
2.230000e-06	5.401940e-06	9.638691e-09	3.804914e+01	6.367627e+02
2.240000e-06	5.412120e-06	9.651884e-09	3.812085e+01	6.373336e+02
2.250000e-06	5.421130e-06	9.663555e-09	3.818431e+01	6.378153e+02
2.260000e-06	5.429205e-06	9.668607e-09	3.824119e+01	6.382045e+02
2.270000e-06	5.436389e-06	9.668999e-09	3.829180e+01	6.385139e+02
2.280000e-06	5.442617e-06	9.668816e-09	3.833566e+01	6.387671e+02
2.290000e-06	5.447886e-06	9.670610e-09	3.837277e+01	6.389907e+02
2.300000e-06	5.452362e-06	9.676680e-09	3.840430e+01	6.392053e+02
2.310000e-06	5.456023e-06	9.682912e-09	3.843009e+01	6.394185e+02
2.320000e-06	5.458581e-06	9.690180e-09	3.844811e+01	6.396231e+02
2.330000e-06	5.459934e-06	9.696499e-09	3.845763e+01	6.397999e+02
2.340000e-06	5.460270e-06	9.699676e-09	3.846000e+01	6.399243e+02
2.350000e-06	5.459695e-06	9.699421e-09	3.845595e+01	6.399745e+02
2.360000e-06	5.458194e-06	9.694309e-09	3.844538e+01	6.399383e+02
2.370000e-06	5.455815e-06	9.688772e-09	3.842862e+01	6.398156e+02
2.380000e-06	5.452685e-06	9.685586e-09	3.840658e+01	6.396177e+02
2.390000e-06	5.448871e-06	9.683014e-09	3.837971e+01	6.393627e+02
2.400000e-06	5.444127e-06	9.681353e-09	3.834630e+01	6.390701e+02
2.410000e-06	5.438261e-06	9.685558e-09	3.830498e+01	6.387548e+02
2.420000e-06	5.431344e-06	9.692776e-09	3.825626e+01	6.384243e+02
2.430000e-06	5.423522e-06	9.671324e-09	3.820116e+01	6.380778e+02
2.440000e-06	5.414680e-06	9.629217e-09	3.813888e+01	6.377080e+02
2.450000e-06	5.404443e-06	9.622429e-09	3.806677e+01	6.373032e+02
2.460000e-06	5.392988e-06	9.683472e-09	3.798609e+01	6.368504e+02
2.470000e-06	5.381018e-06	9.712877e-09	3.790178e+01	6.363374e+02
2.480000e-06	5.368640e-06	9.628753e-09	3.781460e+01	6.357538e+02
2.490000e-06	5.355040e-06	9.605516e-09	3.771880e+01	6.350931e+02
2.500000e-06	5.339977e-06	9.671730e-09	3.761271e+01	6.343533e+02
2.510000e-06	5.324167e-06	9.628984e-09	3.750135e+01	6.335390e+02
2.520000e-06	5.307583e-06	9.571142e-09	3.738454e+01	6.326618e+02
2.530000e-06	5.289853e-06	9.628263e-09	3.725965e+01	6.317403e+02
2.540000e-06	5.271270e-06	9.606900e-09	3.712876e+01	6.307970e+02
2.550000e-06	5.252049e-06	9.542531e-09	3.699337e+01	6.298539e+02
2.560000e-06	5.232115e-06	9.599924e-09	3.685296e+01	6.289255e+02
2.570000e-06	5.211275e-06	9.571563e-09	3.670618e+01	6.280138e+02
2.580000e-06	5.189209e-06	9.478633e-09	3.655075e+01	6.271044e+02
2.590000e-06	5.165924e-06	9.528335e-09	3.638674e+01	6.261686e+02
2.600000e-06	5.141843e-06	9.546908e-09	3.621713e+01	6.251686e+02
2.610000e-06	5.116916e-06	9.482406e-09	3.604155e+01	6.240677e+02
2.620000e-06	5.090876e-06	9.469425e-09	3.585814e+01	6.228398e+02
2.630000e-06	5.063981e-06	9.455771e-09	3.566870e+01	6.214775e+02
2.640000e-06	5.036390e-06	9.447792e-09	3.547436e+01	6.199940e+02
2.650000e-06	5.007963e-06	9.434152e-09	3.527413e+01	6.184193e+02
2.660000e-06	4.978449e-06	9.368889e-09	3.506625e+01	6.167903e+02
2.670000e-06	4.947668e-06	9.365688e-09	3.484944e+01	6.151397e+02
2.680000e-06	4.915931e-06	9.366432e-09	3.462589e+01	6.134853e+02
2.690000e-06	4.883461e-06	9.318993e-09	3.439718e+01	6.118254e+02
2.700000e-06	4.850117e-06	9.297303e-09	3.416232e+01	6.101407e+02
2.710000e-06	4.815956e-06	9.249821e-09	3.392170e+01	6.084017e+02
2.720000e-06	4.781073e-06	9.227250e-09	3.367600e+01	6.065802e+02
2.730000e-06	4.745471e-06	9.228874e-09	3.342524e+01	6.046593e+02
2.740000e-06	4.708993e-06	9.191595e-09	3.316830e+01	6.026389e+02
2.750000e-06	4.671342e-06	9.161505e-09	3.290310e+01	6.005351e+02
2.760000e-06	4.632615e-06	9.123206e-09	3.263032e+01	5.983728e+02
2.770000e-06	4.593106e-06	9.090431e-09	3.235204e+01	5.961757e+02
2.780000e-06	4.552966e-06	9.056666e-09	3.206931e+01	5.939568e+02
2.790000e-06	4.512153e-06	9.000012e-09	3.178184e+01	5.917129e+02
2.800000e-06	4.470535e-06	8.970910e-09	3.148870e+01	5.894259e+02
2.810000e-06	4.428150e-06	8.953383e-09	3.119015e+01	5.870695e+02
2.820000e-06	4.385084e-06	8.919849e-09	3.088681e+01	5.846193e+02
2.830000e-06	4.341456e-06	8.870676e-09	3.057952e+01	5.820617e+02
2.840000e-06	4.297208e-06	8.820418e-09	3.026785e+01	5.793985e+02
2.850000e-06	4.252129e-06	8.788716e-09	2.995033e+01	5.766460e+02
2.860000e-06	4.206211e-06	8.753926e-09	2.962690e+01	5.738276e+02
2.870000e-06	4.159604e-06	8.708290e-09	2.929862e+01	5.709648e+02
2.880000e-06	4.112384e-06	8.656795e-09	2.896602e+01	5.680681e+02
2.890000e-06	4.064465e-06	8.606457e-09	2.862850e+01	5.651335e+02
2.900000e-06	4.015700e-06	8.565387e-09	2.828501e+01	5.621439e+02
2.910000e-06	3.966126e-06	8.520581e-09	2.793583e+01	5.590764e+02
2.920000e-06	3.915885e-06	8.469816e-09	2.758196e+01	5.559110e+02
2.930000e-06	3.864986e-06	8.420311e-09	2.722345e+01	5.526385e+02
2.940000e-06	3.813403e-06	8.376790e-09	2.686011e+01	5.492634e+02
2.950000e-06	3.761032e-06	8.330249e-09	2.649124e+01	5.458009e+02
