# Temperatura_=_20.0
# Concentracion g/m^3_=_10000.0
# C_Vs_to_Am_M_A/Vsm_=_65563218390.804596
# pendiente_HvsI_1/m_=_3716.3
# ordenada_HvsI_A/m_=_1297.0
# frecuencia_Hz_=_212878.73241196605

Tiempo_(s)	Campo_(V.s)	Magnetizacion_(V.s)	Campo_(kA/m)	Magnetizacion_(A/m)
0.000000e+00	-5.424267e-06	-9.747356e-09	-3.842255e+01	-6.353368e+02
1.000000e-08	-5.423918e-06	-9.745915e-09	-3.842008e+01	-6.353200e+02
2.000000e-08	-5.422579e-06	-9.744462e-09	-3.841060e+01	-6.352536e+02
3.000000e-08	-5.420014e-06	-9.743767e-09	-3.839243e+01	-6.351310e+02
4.000000e-08	-5.416407e-06	-9.741152e-09	-3.836688e+01	-6.349495e+02
5.000000e-08	-5.412033e-06	-9.736643e-09	-3.833589e+01	-6.347108e+02
6.000000e-08	-5.406892e-06	-9.731295e-09	-3.829948e+01	-6.344210e+02
7.000000e-08	-5.400841e-06	-9.718661e-09	-3.825662e+01	-6.340878e+02
8.000000e-08	-5.393833e-06	-9.704386e-09	-3.820698e+01	-6.337183e+02
9.000000e-08	-5.385877e-06	-9.719966e-09	-3.815063e+01	-6.333163e+02
1.000000e-07	-5.376745e-06	-9.753458e-09	-3.808593e+01	-6.328823e+02
1.100000e-07	-5.366152e-06	-9.739236e-09	-3.801090e+01	-6.324136e+02
1.200000e-07	-5.354436e-06	-9.653077e-09	-3.792791e+01	-6.319065e+02
1.300000e-07	-5.341994e-06	-9.600377e-09	-3.783978e+01	-6.313581e+02
1.400000e-07	-5.328781e-06	-9.706253e-09	-3.774618e+01	-6.307675e+02
1.500000e-07	-5.314701e-06	-9.715473e-09	-3.764645e+01	-6.301360e+02
1.600000e-07	-5.299640e-06	-9.600658e-09	-3.753977e+01	-6.294661e+02
1.700000e-07	-5.283342e-06	-9.610286e-09	-3.742432e+01	-6.287601e+02
1.800000e-07	-5.265901e-06	-9.647809e-09	-3.730078e+01	-6.280190e+02
1.900000e-07	-5.247690e-06	-9.570495e-09	-3.717178e+01	-6.272423e+02
2.000000e-07	-5.228758e-06	-9.558404e-09	-3.703768e+01	-6.264288e+02
2.100000e-07	-5.209045e-06	-9.633782e-09	-3.689804e+01	-6.255770e+02
2.200000e-07	-5.188506e-06	-9.523010e-09	-3.675256e+01	-6.246861e+02
2.300000e-07	-5.167127e-06	-9.509923e-09	-3.660111e+01	-6.237557e+02
2.400000e-07	-5.144865e-06	-9.613340e-09	-3.644342e+01	-6.227843e+02
2.500000e-07	-5.121691e-06	-9.536177e-09	-3.627927e+01	-6.217677e+02
2.600000e-07	-5.097715e-06	-9.451699e-09	-3.610944e+01	-6.206981e+02
2.700000e-07	-5.072875e-06	-9.469276e-09	-3.593349e+01	-6.195645e+02
2.800000e-07	-5.046940e-06	-9.482399e-09	-3.574978e+01	-6.183545e+02
2.900000e-07	-5.019865e-06	-9.438676e-09	-3.555800e+01	-6.170580e+02
3.000000e-07	-4.991818e-06	-9.402395e-09	-3.535932e+01	-6.156705e+02
3.100000e-07	-4.962889e-06	-9.378460e-09	-3.515440e+01	-6.141954e+02
3.200000e-07	-4.933150e-06	-9.372168e-09	-3.494375e+01	-6.126437e+02
3.300000e-07	-4.902566e-06	-9.362657e-09	-3.472711e+01	-6.110308e+02
3.400000e-07	-4.871102e-06	-9.302850e-09	-3.450423e+01	-6.093717e+02
3.500000e-07	-4.838982e-06	-9.273031e-09	-3.427672e+01	-6.076760e+02
3.600000e-07	-4.806152e-06	-9.261800e-09	-3.404417e+01	-6.059444e+02
3.700000e-07	-4.772263e-06	-9.239777e-09	-3.380412e+01	-6.041685e+02
3.800000e-07	-4.737224e-06	-9.215799e-09	-3.355592e+01	-6.023345e+02
3.900000e-07	-4.701237e-06	-9.159635e-09	-3.330100e+01	-6.004281e+02
4.000000e-07	-4.664455e-06	-9.126012e-09	-3.304046e+01	-5.984401e+02
4.100000e-07	-4.626867e-06	-9.110121e-09	-3.277421e+01	-5.963704e+02
4.200000e-07	-4.588428e-06	-9.090445e-09	-3.250193e+01	-5.942277e+02
4.300000e-07	-4.549163e-06	-9.049091e-09	-3.222380e+01	-5.920258e+02
4.400000e-07	-4.509289e-06	-8.994412e-09	-3.194135e+01	-5.897777e+02
4.500000e-07	-4.468852e-06	-8.977714e-09	-3.165492e+01	-5.874900e+02
4.600000e-07	-4.427523e-06	-8.946648e-09	-3.136216e+01	-5.851597e+02
4.700000e-07	-4.385119e-06	-8.903469e-09	-3.106180e+01	-5.827745e+02
4.800000e-07	-4.341759e-06	-8.856160e-09	-3.075466e+01	-5.803177e+02
4.900000e-07	-4.297678e-06	-8.815052e-09	-3.044241e+01	-5.777744e+02
5.000000e-07	-4.252960e-06	-8.795365e-09	-3.012565e+01	-5.751375e+02
5.100000e-07	-4.207536e-06	-8.746931e-09	-2.980390e+01	-5.724106e+02
5.200000e-07	-4.161424e-06	-8.687837e-09	-2.947726e+01	-5.696063e+02
5.300000e-07	-4.114582e-06	-8.634428e-09	-2.914546e+01	-5.667410e+02
5.400000e-07	-4.067077e-06	-8.602718e-09	-2.880896e+01	-5.638276e+02
5.500000e-07	-4.019000e-06	-8.575089e-09	-2.846841e+01	-5.608700e+02
5.600000e-07	-3.970130e-06	-8.516099e-09	-2.812224e+01	-5.578605e+02
5.700000e-07	-3.920221e-06	-8.465803e-09	-2.776871e+01	-5.547826e+02
5.800000e-07	-3.869247e-06	-8.421399e-09	-2.740764e+01	-5.516169e+02
5.900000e-07	-3.817452e-06	-8.377218e-09	-2.704075e+01	-5.483493e+02
6.000000e-07	-3.764924e-06	-8.320192e-09	-2.666868e+01	-5.449755e+02
6.100000e-07	-3.711596e-06	-8.248950e-09	-2.629093e+01	-5.415034e+02
6.200000e-07	-3.657626e-06	-8.201720e-09	-2.590863e+01	-5.379482e+02
6.300000e-07	-3.603100e-06	-8.158912e-09	-2.552240e+01	-5.343255e+02
6.400000e-07	-3.547949e-06	-8.108206e-09	-2.513174e+01	-5.306436e+02
6.500000e-07	-3.492222e-06	-8.038613e-09	-2.473700e+01	-5.268980e+02
6.600000e-07	-3.435981e-06	-7.968487e-09	-2.433862e+01	-5.230716e+02
6.700000e-07	-3.379111e-06	-7.920476e-09	-2.393578e+01	-5.191407e+02
6.800000e-07	-3.321418e-06	-7.863598e-09	-2.352712e+01	-5.150835e+02
6.900000e-07	-3.262893e-06	-7.795893e-09	-2.311256e+01	-5.108896e+02
7.000000e-07	-3.203668e-06	-7.719319e-09	-2.269304e+01	-5.065643e+02
7.100000e-07	-3.143829e-06	-7.652407e-09	-2.226917e+01	-5.021277e+02
7.200000e-07	-3.083489e-06	-7.592159e-09	-2.184176e+01	-4.976073e+02
7.300000e-07	-3.022680e-06	-7.513007e-09	-2.141102e+01	-4.930271e+02
7.400000e-07	-2.961334e-06	-7.434387e-09	-2.097648e+01	-4.883976e+02
7.500000e-07	-2.899479e-06	-7.363494e-09	-2.053833e+01	-4.837106e+02
7.600000e-07	-2.837140e-06	-7.302732e-09	-2.009675e+01	-4.789408e+02
7.700000e-07	-2.774350e-06	-7.232678e-09	-1.965199e+01	-4.740542e+02
7.800000e-07	-2.711064e-06	-7.145015e-09	-1.920370e+01	-4.690201e+02
7.900000e-07	-2.647319e-06	-7.061477e-09	-1.875217e+01	-4.638220e+02
8.000000e-07	-2.583252e-06	-6.978148e-09	-1.829835e+01	-4.584632e+02
8.100000e-07	-2.518836e-06	-6.895617e-09	-1.784206e+01	-4.529649e+02
8.200000e-07	-2.454047e-06	-6.804326e-09	-1.738313e+01	-4.473572e+02
8.300000e-07	-2.388852e-06	-6.710973e-09	-1.692133e+01	-4.416669e+02
8.400000e-07	-2.323155e-06	-6.630410e-09	-1.645596e+01	-4.359062e+02
8.500000e-07	-2.256820e-06	-6.547714e-09	-1.598609e+01	-4.300682e+02
8.600000e-07	-2.189924e-06	-6.457155e-09	-1.551223e+01	-4.241285e+02
8.700000e-07	-2.122631e-06	-6.356667e-09	-1.503556e+01	-4.180557e+02
8.800000e-07	-2.054973e-06	-6.259226e-09	-1.455631e+01	-4.118229e+02
8.900000e-07	-1.987018e-06	-6.165991e-09	-1.407496e+01	-4.054184e+02
9.000000e-07	-1.918857e-06	-6.062132e-09	-1.359214e+01	-3.988497e+02
9.100000e-07	-1.850534e-06	-5.953514e-09	-1.310818e+01	-3.921394e+02
9.200000e-07	-1.781983e-06	-5.844637e-09	-1.262259e+01	-3.853147e+02
9.300000e-07	-1.713203e-06	-5.744037e-09	-1.213540e+01	-3.783944e+02
9.400000e-07	-1.644185e-06	-5.642770e-09	-1.164651e+01	-3.713794e+02
9.500000e-07	-1.574807e-06	-5.530324e-09	-1.115508e+01	-3.642497e+02
9.600000e-07	-1.505071e-06	-5.417713e-09	-1.066110e+01	-3.569703e+02
9.700000e-07	-1.435078e-06	-5.304946e-09	-1.016531e+01	-3.495030e+02
9.800000e-07	-1.364815e-06	-5.191341e-09	-9.667610e+00	-3.418201e+02
9.900000e-07	-1.294283e-06	-5.065932e-09	-9.167994e+00	-3.339139e+02
1.000000e-06	-1.223551e-06	-4.932296e-09	-8.666970e+00	-3.257987e+02
1.010000e-06	-1.152579e-06	-4.806710e-09	-8.164241e+00	-3.175042e+02
1.020000e-06	-1.081345e-06	-4.684120e-09	-7.659663e+00	-3.090619e+02
1.030000e-06	-1.009855e-06	-4.558193e-09	-7.153261e+00	-3.004911e+02
1.040000e-06	-9.381667e-07	-4.421676e-09	-6.645462e+00	-2.917898e+02
1.050000e-06	-8.663410e-07	-4.282343e-09	-6.136689e+00	-2.829334e+02
1.060000e-06	-7.943785e-07	-4.144688e-09	-5.626945e+00	-2.738824e+02
1.070000e-06	-7.223554e-07	-4.001239e-09	-5.116773e+00	-2.645965e+02
1.080000e-06	-6.502960e-07	-3.851287e-09	-4.606343e+00	-2.550489e+02
1.090000e-06	-5.781910e-07	-3.695164e-09	-4.095590e+00	-2.452347e+02
1.100000e-06	-5.060291e-07	-3.541528e-09	-3.584435e+00	-2.351711e+02
1.110000e-06	-4.337558e-07	-3.387521e-09	-3.072490e+00	-2.248885e+02
1.120000e-06	-3.614067e-07	-3.225285e-09	-2.560008e+00	-2.144160e+02
1.130000e-06	-2.889972e-07	-3.058308e-09	-2.047099e+00	-2.037673e+02
1.140000e-06	-2.165197e-07	-2.889639e-09	-1.533708e+00	-1.929332e+02
1.150000e-06	-1.440008e-07	-2.723346e-09	-1.020023e+00	-1.818830e+02
1.160000e-06	-7.150697e-08	-2.552430e-09	-5.065165e-01	-1.705748e+02
1.170000e-06	9.603216e-10	-2.371582e-09	6.802396e-03	-1.589710e+02
1.180000e-06	7.338968e-08	-2.185494e-09	5.198525e-01	-1.470522e+02
1.190000e-06	1.457930e-07	-1.995766e-09	1.032719e+00	-1.348235e+02
1.200000e-06	2.182027e-07	-1.803551e-09	1.545629e+00	-1.223120e+02
1.210000e-06	2.905760e-07	-1.605889e-09	2.058283e+00	-1.095544e+02
1.220000e-06	3.629249e-07	-1.406598e-09	2.570763e+00	-9.658156e+01
1.230000e-06	4.351696e-07	-1.207918e-09	3.082505e+00	-8.340417e+01
1.240000e-06	5.073120e-07	-1.006469e-09	3.593522e+00	-7.000767e+01
1.250000e-06	5.794222e-07	-8.003164e-10	4.104311e+00	-5.635710e+01
1.260000e-06	6.514183e-07	-5.852820e-10	4.614293e+00	-4.241114e+01
1.270000e-06	7.233190e-07	-3.660203e-10	5.123598e+00	-2.813983e+01
1.280000e-06	7.951646e-07	-1.427133e-10	5.632513e+00	-1.353914e+01
1.290000e-06	8.668729e-07	8.527151e-11	6.140456e+00	1.363246e+00
1.300000e-06	9.383819e-07	3.169728e-10	6.646987e+00	1.651333e+01
1.310000e-06	1.009707e-06	5.529090e-10	7.152216e+00	3.184530e+01
1.320000e-06	1.080850e-06	7.887079e-10	7.656155e+00	4.729942e+01
1.330000e-06	1.151804e-06	1.023590e-09	8.158756e+00	6.283643e+01
1.340000e-06	1.222580e-06	1.258930e-09	8.660095e+00	7.844259e+01
1.350000e-06	1.293135e-06	1.496562e-09	9.159862e+00	9.412351e+01
1.360000e-06	1.363465e-06	1.737119e-09	9.658044e+00	1.098892e+02
1.370000e-06	1.433582e-06	1.978274e-09	1.015472e+01	1.257360e+02
1.380000e-06	1.503465e-06	2.220912e-09	1.064972e+01	1.416337e+02
1.390000e-06	1.573061e-06	2.466138e-09	1.114271e+01	1.575211e+02
1.400000e-06	1.642375e-06	2.709054e-09	1.163369e+01	1.733147e+02
1.410000e-06	1.711428e-06	2.946552e-09	1.212282e+01	1.889252e+02
1.420000e-06	1.780211e-06	3.177429e-09	1.261004e+01	2.042765e+02
1.430000e-06	1.848742e-06	3.404355e-09	1.309548e+01	2.193207e+02
1.440000e-06	1.917017e-06	3.627126e-09	1.357911e+01	2.340422e+02
1.450000e-06	1.985053e-06	3.844244e-09	1.406104e+01	2.484505e+02
1.460000e-06	2.052885e-06	4.057201e-09	1.454152e+01	2.625641e+02
1.470000e-06	2.120469e-06	4.266135e-09	1.502025e+01	2.763930e+02
1.480000e-06	2.187673e-06	4.473091e-09	1.549629e+01	2.899255e+02
1.490000e-06	2.254304e-06	4.674486e-09	1.596826e+01	3.031256e+02
1.500000e-06	2.320331e-06	4.867150e-09	1.643596e+01	3.159415e+02
1.510000e-06	2.385767e-06	5.051325e-09	1.689948e+01	3.283220e+02
1.520000e-06	2.450574e-06	5.229582e-09	1.735853e+01	3.402345e+02
1.530000e-06	2.514918e-06	5.403715e-09	1.781431e+01	3.516769e+02
1.540000e-06	2.578944e-06	5.571122e-09	1.826784e+01	3.626795e+02
1.550000e-06	2.642663e-06	5.731695e-09	1.871918e+01	3.732945e+02
1.560000e-06	2.705960e-06	5.887242e-09	1.916755e+01	3.835782e+02
1.570000e-06	2.768772e-06	6.040724e-09	1.961248e+01	3.935725e+02
1.580000e-06	2.831121e-06	6.190881e-09	2.005412e+01	4.032917e+02
1.590000e-06	2.892962e-06	6.333192e-09	2.049217e+01	4.127197e+02
1.600000e-06	2.954348e-06	6.470468e-09	2.092699e+01	4.218196e+02
1.610000e-06	3.015283e-06	6.605415e-09	2.135862e+01	4.305503e+02
1.620000e-06	3.075741e-06	6.735508e-09	2.178688e+01	4.388843e+02
1.630000e-06	3.135769e-06	6.854003e-09	2.221208e+01	4.468202e+02
1.640000e-06	3.195285e-06	6.962503e-09	2.263366e+01	4.543853e+02
1.650000e-06	3.254164e-06	7.069622e-09	2.305073e+01	4.616272e+02
1.660000e-06	3.312242e-06	7.174690e-09	2.346212e+01	4.685985e+02
1.670000e-06	3.369420e-06	7.275904e-09	2.386714e+01	4.753407e+02
1.680000e-06	3.425865e-06	7.372828e-09	2.426697e+01	4.818733e+02
1.690000e-06	3.481821e-06	7.468331e-09	2.466332e+01	4.881922e+02
1.700000e-06	3.537333e-06	7.563627e-09	2.505654e+01	4.942780e+02
1.710000e-06	3.592293e-06	7.653324e-09	2.544585e+01	5.001095e+02
1.720000e-06	3.646619e-06	7.734779e-09	2.583066e+01	5.056790e+02
1.730000e-06	3.700317e-06	7.810341e-09	2.621104e+01	5.109998e+02
1.740000e-06	3.753404e-06	7.885813e-09	2.658707e+01	5.161072e+02
1.750000e-06	3.805827e-06	7.960802e-09	2.695841e+01	5.210486e+02
1.760000e-06	3.857456e-06	8.032379e-09	2.732412e+01	5.258695e+02
1.770000e-06	3.908207e-06	8.102717e-09	2.768361e+01	5.305997e+02
1.780000e-06	3.957960e-06	8.174179e-09	2.803604e+01	5.352452e+02
1.790000e-06	4.006739e-06	8.246502e-09	2.838156e+01	5.397883e+02
1.800000e-06	4.054760e-06	8.314393e-09	2.872171e+01	5.441974e+02
1.810000e-06	4.102169e-06	8.374769e-09	2.905753e+01	5.484403e+02
1.820000e-06	4.149004e-06	8.431560e-09	2.938928e+01	5.524973e+02
1.830000e-06	4.195167e-06	8.488755e-09	2.971628e+01	5.563696e+02
1.840000e-06	4.240638e-06	8.544921e-09	3.003837e+01	5.600783e+02
1.850000e-06	4.285416e-06	8.597407e-09	3.035555e+01	5.636566e+02
1.860000e-06	4.329568e-06	8.648062e-09	3.066831e+01	5.671378e+02
1.870000e-06	4.373094e-06	8.700442e-09	3.097662e+01	5.705430e+02
1.880000e-06	4.415806e-06	8.752446e-09	3.127917e+01	5.738752e+02
1.890000e-06	4.457441e-06	8.800265e-09	3.157409e+01	5.771193e+02
1.900000e-06	4.498007e-06	8.841762e-09	3.186143e+01	5.802499e+02
1.910000e-06	4.537831e-06	8.881018e-09	3.214352e+01	5.832424e+02
1.920000e-06	4.576993e-06	8.921106e-09	3.242093e+01	5.860826e+02
1.930000e-06	4.615393e-06	8.958491e-09	3.269293e+01	5.887729e+02
1.940000e-06	4.653009e-06	8.993945e-09	3.295938e+01	5.913311e+02
1.950000e-06	4.689813e-06	9.028962e-09	3.322008e+01	5.937836e+02
1.960000e-06	4.725912e-06	9.063286e-09	3.347579e+01	5.961560e+02
1.970000e-06	4.761314e-06	9.095748e-09	3.372656e+01	5.984645e+02
1.980000e-06	4.795724e-06	9.126178e-09	3.397030e+01	6.007111e+02
1.990000e-06	4.829018e-06	9.156351e-09	3.420614e+01	6.028849e+02
2.000000e-06	4.861316e-06	9.186532e-09	3.443491e+01	6.049678e+02
2.010000e-06	4.892843e-06	9.215054e-09	3.465823e+01	6.069429e+02
2.020000e-06	4.923614e-06	9.240484e-09	3.487620e+01	6.088012e+02
2.030000e-06	4.953539e-06	9.266151e-09	3.508817e+01	6.105462e+02
2.040000e-06	4.982694e-06	9.291500e-09	3.529469e+01	6.121918e+02
2.050000e-06	5.011108e-06	9.314236e-09	3.549596e+01	6.137584e+02
2.060000e-06	5.038812e-06	9.334658e-09	3.569220e+01	6.152656e+02
2.070000e-06	5.065643e-06	9.353385e-09	3.588226e+01	6.167271e+02
2.080000e-06	5.091222e-06	9.372568e-09	3.606345e+01	6.181473e+02
2.090000e-06	5.115615e-06	9.391851e-09	3.623624e+01	6.195224e+02
2.100000e-06	5.139175e-06	9.410886e-09	3.640312e+01	6.208436e+02
2.110000e-06	5.161913e-06	9.429420e-09	3.656418e+01	6.221017e+02
2.120000e-06	5.183797e-06	9.446865e-09	3.671920e+01	6.232910e+02
2.130000e-06	5.204893e-06	9.462864e-09	3.686863e+01	6.244110e+02
2.140000e-06	5.225244e-06	9.476016e-09	3.701278e+01	6.254652e+02
2.150000e-06	5.244839e-06	9.489266e-09	3.715158e+01	6.264595e+02
2.160000e-06	5.263527e-06	9.504303e-09	3.728396e+01	6.273993e+02
2.170000e-06	5.281223e-06	9.519853e-09	3.740931e+01	6.282878e+02
2.180000e-06	5.297917e-06	9.533638e-09	3.752756e+01	6.291258e+02
2.190000e-06	5.313641e-06	9.544552e-09	3.763894e+01	6.299130e+02
2.200000e-06	5.328346e-06	9.552947e-09	3.774311e+01	6.306498e+02
2.210000e-06	5.342060e-06	9.560417e-09	3.784025e+01	6.313377e+02
2.220000e-06	5.354893e-06	9.569370e-09	3.793115e+01	6.319797e+02
2.230000e-06	5.366723e-06	9.579302e-09	3.801495e+01	6.325788e+02
2.240000e-06	5.377405e-06	9.590268e-09	3.809061e+01	6.331360e+02
2.250000e-06	5.386897e-06	9.601172e-09	3.815785e+01	6.336498e+02
2.260000e-06	5.395305e-06	9.610058e-09	3.821740e+01	6.341152e+02
2.270000e-06	5.402828e-06	9.617275e-09	3.827070e+01	6.345261e+02
2.280000e-06	5.409448e-06	9.622815e-09	3.831759e+01	6.348771e+02
2.290000e-06	5.415103e-06	9.626351e-09	3.835765e+01	6.351662e+02
2.300000e-06	5.419909e-06	9.628928e-09	3.839169e+01	6.353957e+02
2.310000e-06	5.423972e-06	9.631478e-09	3.842047e+01	6.355720e+02
2.320000e-06	5.427081e-06	9.634858e-09	3.844249e+01	6.357033e+02
2.330000e-06	5.428907e-06	9.638595e-09	3.845542e+01	6.357964e+02
2.340000e-06	5.429553e-06	9.641184e-09	3.846000e+01	6.358545e+02
2.350000e-06	5.429333e-06	9.642707e-09	3.845844e+01	6.358758e+02
2.360000e-06	5.428332e-06	9.643321e-09	3.845135e+01	6.358544e+02
2.370000e-06	5.426484e-06	9.641743e-09	3.843826e+01	6.357827e+02
2.380000e-06	5.423740e-06	9.638432e-09	3.841882e+01	6.356543e+02
2.390000e-06	5.420155e-06	9.634984e-09	3.839343e+01	6.354669e+02
2.400000e-06	5.415843e-06	9.631072e-09	3.836288e+01	6.352228e+02
2.410000e-06	5.410626e-06	9.629768e-09	3.832593e+01	6.349283e+02
2.420000e-06	5.404230e-06	9.643104e-09	3.828062e+01	6.345913e+02
2.430000e-06	5.396818e-06	9.630041e-09	3.822813e+01	6.342184e+02
2.440000e-06	5.388476e-06	9.581891e-09	3.816903e+01	6.338133e+02
2.450000e-06	5.378849e-06	9.542347e-09	3.810084e+01	6.333760e+02
2.460000e-06	5.367847e-06	9.607875e-09	3.802291e+01	6.329036e+02
2.470000e-06	5.356024e-06	9.686019e-09	3.793916e+01	6.323925e+02
2.480000e-06	5.343893e-06	9.590571e-09	3.785323e+01	6.318399e+02
2.490000e-06	5.330938e-06	9.504809e-09	3.776147e+01	6.312451e+02
2.500000e-06	5.316471e-06	9.580269e-09	3.765899e+01	6.306097e+02
2.510000e-06	5.300925e-06	9.608201e-09	3.754887e+01	6.299361e+02
2.520000e-06	5.284723e-06	9.507909e-09	3.743411e+01	6.292266e+02
2.530000e-06	5.267530e-06	9.573266e-09	3.731232e+01	6.284820e+02
2.540000e-06	5.249338e-06	9.610953e-09	3.718345e+01	6.277017e+02
2.550000e-06	5.230437e-06	9.471928e-09	3.704957e+01	6.268844e+02
2.560000e-06	5.210817e-06	9.512242e-09	3.691059e+01	6.260288e+02
2.570000e-06	5.190468e-06	9.562218e-09	3.676645e+01	6.251340e+02
2.580000e-06	5.169127e-06	9.415352e-09	3.661528e+01	6.241996e+02
2.590000e-06	5.146461e-06	9.411587e-09	3.645473e+01	6.232239e+02
2.600000e-06	5.122786e-06	9.528830e-09	3.628703e+01	6.222025e+02
2.610000e-06	5.098350e-06	9.454513e-09	3.611394e+01	6.211271e+02
2.620000e-06	5.072936e-06	9.406960e-09	3.593392e+01	6.199864e+02
2.630000e-06	5.046549e-06	9.408481e-09	3.574701e+01	6.187681e+02
2.640000e-06	5.019450e-06	9.377645e-09	3.555506e+01	6.174626e+02
2.650000e-06	4.991628e-06	9.406256e-09	3.535798e+01	6.160661e+02
2.660000e-06	4.962827e-06	9.337505e-09	3.515397e+01	6.145828e+02
2.670000e-06	4.932782e-06	9.298269e-09	3.494114e+01	6.130242e+02
2.680000e-06	4.901596e-06	9.333509e-09	3.472024e+01	6.114061e+02
2.690000e-06	4.869582e-06	9.289661e-09	3.449347e+01	6.097431e+02
2.700000e-06	4.836742e-06	9.260116e-09	3.426085e+01	6.080439e+02
2.710000e-06	4.803075e-06	9.216345e-09	3.402237e+01	6.063084e+02
2.720000e-06	4.768642e-06	9.189121e-09	3.377846e+01	6.045274e+02
2.730000e-06	4.733454e-06	9.178800e-09	3.352921e+01	6.026868e+02
2.740000e-06	4.697572e-06	9.150639e-09	3.327504e+01	6.007725e+02
2.750000e-06	4.660830e-06	9.140021e-09	3.301478e+01	5.987762e+02
2.760000e-06	4.622968e-06	9.083616e-09	3.274659e+01	5.966987e+02
2.770000e-06	4.584050e-06	9.051859e-09	3.247091e+01	5.945495e+02
2.780000e-06	4.544342e-06	9.028163e-09	3.218964e+01	5.923424e+02
2.790000e-06	4.503948e-06	8.974830e-09	3.190352e+01	5.900902e+02
2.800000e-06	4.462833e-06	8.939827e-09	3.161228e+01	5.877986e+02
2.810000e-06	4.420995e-06	8.908131e-09	3.131592e+01	5.854635e+02
2.820000e-06	4.378446e-06	8.896586e-09	3.101453e+01	5.830720e+02
2.830000e-06	4.335217e-06	8.857613e-09	3.070832e+01	5.806071e+02
2.840000e-06	4.291433e-06	8.796036e-09	3.039818e+01	5.780546e+02
2.850000e-06	4.247026e-06	8.753849e-09	3.008362e+01	5.754084e+02
2.860000e-06	4.201788e-06	8.727105e-09	2.976318e+01	5.726730e+02
2.870000e-06	4.155769e-06	8.704323e-09	2.943721e+01	5.698619e+02
2.880000e-06	4.109025e-06	8.639747e-09	2.910610e+01	5.669914e+02
2.890000e-06	4.061589e-06	8.586768e-09	2.877009e+01	5.640736e+02
2.900000e-06	4.013355e-06	8.552319e-09	2.842843e+01	5.611114e+02
2.910000e-06	3.964290e-06	8.507944e-09	2.808087e+01	5.580959e+02
2.920000e-06	3.914598e-06	8.461013e-09	2.772888e+01	5.550100e+02
2.930000e-06	3.864266e-06	8.397860e-09	2.737236e+01	5.518347e+02
2.940000e-06	3.813241e-06	8.360111e-09	2.701092e+01	5.485564e+02
2.950000e-06	3.761501e-06	8.322897e-09	2.664442e+01	5.451724e+02
