# Temperatura_=_20.0
# Concentracion g/m^3_=_10000.0
# C_Vs_to_Am_M_A/Vsm_=_65563218390.804596
# pendiente_HvsI_1/m_=_3716.3
# ordenada_HvsI_A/m_=_1297.0
# frecuencia_Hz_=_212855.7873222488

Tiempo_(s)	Campo_(V.s)	Magnetizacion_(V.s)	Campo_(kA/m)	Magnetizacion_(A/m)
0.000000e+00	-5.425941e-06	-1.084381e-10	-3.844185e+01	-4.713724e+00
1.000000e-08	-5.425115e-06	-1.097720e-10	-3.843600e+01	-4.707611e+00
2.000000e-08	-5.423109e-06	-1.113912e-10	-3.842178e+01	-4.660211e+00
3.000000e-08	-5.419829e-06	-1.103391e-10	-3.839854e+01	-4.583249e+00
4.000000e-08	-5.415716e-06	-1.080907e-10	-3.836940e+01	-4.499618e+00
5.000000e-08	-5.410888e-06	-1.069279e-10	-3.833520e+01	-4.435867e+00
6.000000e-08	-5.405174e-06	-1.025392e-10	-3.829472e+01	-4.412919e+00
7.000000e-08	-5.398529e-06	-8.634924e-11	-3.824764e+01	-4.438443e+00
8.000000e-08	-5.390953e-06	-1.109480e-10	-3.819396e+01	-4.503801e+00
9.000000e-08	-5.382345e-06	-1.640726e-10	-3.813298e+01	-4.586828e+00
1.000000e-07	-5.372337e-06	-1.753397e-10	-3.806208e+01	-4.659552e+00
1.100000e-07	-5.360980e-06	-7.639467e-11	-3.798161e+01	-4.698101e+00
1.200000e-07	-5.348837e-06	-4.676214e-13	-3.789558e+01	-4.691192e+00
1.300000e-07	-5.335946e-06	-1.415526e-10	-3.780425e+01	-4.644151e+00
1.400000e-07	-5.322167e-06	-2.120596e-10	-3.770663e+01	-4.577050e+00
1.500000e-07	-5.307624e-06	-3.104997e-11	-3.760359e+01	-4.517750e+00
1.600000e-07	-5.292014e-06	-2.865389e-11	-3.749300e+01	-4.492463e+00
1.700000e-07	-5.274979e-06	-1.582576e-10	-3.737231e+01	-4.517288e+00
1.800000e-07	-5.256948e-06	-2.878318e-11	-3.724457e+01	-4.593639e+00
1.900000e-07	-5.238253e-06	-2.002077e-11	-3.711211e+01	-4.708948e+00
2.000000e-07	-5.218767e-06	-1.329142e-10	-3.697406e+01	-4.841953e+00
2.100000e-07	-5.198513e-06	-2.766259e-12	-3.683056e+01	-4.970250e+00
2.200000e-07	-5.177495e-06	3.911323e-12	-3.668165e+01	-5.077111e+00
2.300000e-07	-5.155583e-06	-1.408866e-10	-3.652641e+01	-5.155118e+00
2.400000e-07	-5.132716e-06	-6.698122e-11	-3.636440e+01	-5.205642e+00
2.500000e-07	-5.108987e-06	-2.806002e-12	-3.619629e+01	-5.234981e+00
2.600000e-07	-5.084397e-06	-6.765891e-11	-3.602207e+01	-5.249280e+00
2.700000e-07	-5.058859e-06	-5.053390e-11	-3.584113e+01	-5.250705e+00
2.800000e-07	-5.032222e-06	-4.721764e-11	-3.565242e+01	-5.236595e+00
2.900000e-07	-5.004518e-06	-3.914976e-11	-3.545614e+01	-5.201841e+00
3.000000e-07	-4.975908e-06	-1.081710e-12	-3.525344e+01	-5.143214e+00
3.100000e-07	-4.946450e-06	-6.438626e-11	-3.504474e+01	-5.063402e+00
3.200000e-07	-4.916151e-06	-7.651187e-11	-3.483008e+01	-4.972617e+00
3.300000e-07	-4.884965e-06	-2.199993e-11	-3.460913e+01	-4.886673e+00
3.400000e-07	-4.853037e-06	-2.269074e-11	-3.438292e+01	-4.822050e+00
3.500000e-07	-4.820488e-06	-2.008606e-11	-3.415232e+01	-4.789858e+00
3.600000e-07	-4.787081e-06	-2.660445e-11	-3.391563e+01	-4.791242e+00
3.700000e-07	-4.752465e-06	-4.672404e-11	-3.367039e+01	-4.816317e+00
3.800000e-07	-4.716774e-06	-3.075096e-11	-3.341752e+01	-4.847329e+00
3.900000e-07	-4.680349e-06	-1.396686e-11	-3.315946e+01	-4.865001e+00
4.000000e-07	-4.643227e-06	-4.555305e-11	-3.289645e+01	-4.855634e+00
4.100000e-07	-4.605254e-06	-6.209585e-11	-3.262742e+01	-4.816172e+00
4.200000e-07	-4.566357e-06	-1.879046e-11	-3.235184e+01	-4.755143e+00
4.300000e-07	-4.526712e-06	-7.587884e-12	-3.207097e+01	-4.689062e+00
4.400000e-07	-4.486554e-06	-3.039470e-11	-3.178645e+01	-4.635689e+00
4.500000e-07	-4.445734e-06	-3.906429e-11	-3.149725e+01	-4.606853e+00
4.600000e-07	-4.403886e-06	-3.616642e-11	-3.120077e+01	-4.603739e+00
4.700000e-07	-4.360937e-06	-2.138175e-11	-3.089648e+01	-4.616571e+00
4.800000e-07	-4.317138e-06	-2.678464e-11	-3.058617e+01	-4.628793e+00
4.900000e-07	-4.272743e-06	-4.204359e-11	-3.027164e+01	-4.624043e+00
5.000000e-07	-4.227689e-06	-4.011717e-11	-2.995244e+01	-4.592996e+00
5.100000e-07	-4.181869e-06	-2.810278e-11	-2.962781e+01	-4.537237e+00
5.200000e-07	-4.135325e-06	-2.236285e-11	-2.929806e+01	-4.468499e+00
5.300000e-07	-4.088093e-06	-3.159315e-11	-2.896343e+01	-4.403558e+00
5.400000e-07	-4.040250e-06	-3.429738e-11	-2.862447e+01	-4.356899e+00
5.500000e-07	-3.991761e-06	-2.773544e-11	-2.828093e+01	-4.334224e+00
5.600000e-07	-3.942279e-06	-2.053827e-11	-2.793036e+01	-4.329611e+00
5.700000e-07	-3.891701e-06	-2.706474e-11	-2.757202e+01	-4.327633e+00
5.800000e-07	-3.840205e-06	-4.511180e-11	-2.720719e+01	-4.309691e+00
5.900000e-07	-3.787901e-06	-4.113777e-11	-2.683662e+01	-4.262033e+00
6.000000e-07	-3.734901e-06	-2.634406e-11	-2.646112e+01	-4.182133e+00
6.100000e-07	-3.681225e-06	-2.262007e-11	-2.608084e+01	-4.080673e+00
6.200000e-07	-3.626898e-06	-2.861832e-11	-2.569594e+01	-3.978125e+00
6.300000e-07	-3.571963e-06	-2.876984e-11	-2.530673e+01	-3.897096e+00
6.400000e-07	-3.516390e-06	-1.584978e-11	-2.491301e+01	-3.853393e+00
6.500000e-07	-3.460285e-06	-1.417906e-11	-2.451552e+01	-3.849377e+00
6.600000e-07	-3.403678e-06	-2.510481e-11	-2.411447e+01	-3.872359e+00
6.700000e-07	-3.346375e-06	-3.424880e-11	-2.370848e+01	-3.898847e+00
6.800000e-07	-3.288192e-06	-3.033677e-11	-2.329627e+01	-3.903108e+00
6.900000e-07	-3.229128e-06	-2.115942e-11	-2.287781e+01	-3.866802e+00
7.000000e-07	-3.169388e-06	-2.314550e-11	-2.245456e+01	-3.785905e+00
7.100000e-07	-3.109208e-06	-2.448079e-11	-2.202820e+01	-3.672187e+00
7.200000e-07	-3.048591e-06	-1.962534e-11	-2.159874e+01	-3.548605e+00
7.300000e-07	-2.987430e-06	-9.160832e-12	-2.116542e+01	-3.440355e+00
7.400000e-07	-2.925788e-06	-4.427946e-12	-2.072870e+01	-3.365048e+00
7.500000e-07	-2.863654e-06	-1.186243e-11	-2.028849e+01	-3.325856e+00
7.600000e-07	-2.801012e-06	-1.490869e-11	-1.984468e+01	-3.310299e+00
7.700000e-07	-2.737925e-06	-1.207188e-11	-1.939772e+01	-3.295172e+00
7.800000e-07	-2.674359e-06	-8.541668e-12	-1.894737e+01	-3.255697e+00
7.900000e-07	-2.610344e-06	-9.590378e-12	-1.849383e+01	-3.175341e+00
8.000000e-07	-2.546035e-06	-1.031692e-11	-1.803822e+01	-3.052487e+00
8.100000e-07	-2.481382e-06	5.223128e-14	-1.758016e+01	-2.901387e+00
8.200000e-07	-2.416194e-06	1.104925e-11	-1.711831e+01	-2.747050e+00
8.300000e-07	-2.350450e-06	1.245820e-11	-1.665253e+01	-2.616062e+00
8.400000e-07	-2.284154e-06	4.511728e-12	-1.618283e+01	-2.526885e+00
8.500000e-07	-2.217413e-06	-1.148846e-12	-1.570999e+01	-2.483327e+00
8.600000e-07	-2.150242e-06	-3.521877e-13	-1.523409e+01	-2.473591e+00
8.700000e-07	-2.082640e-06	-1.160689e-12	-1.475514e+01	-2.475141e+00
8.800000e-07	-2.014746e-06	-1.764108e-12	-1.427413e+01	-2.463393e+00
8.900000e-07	-1.946639e-06	1.421917e-12	-1.379160e+01	-2.420833e+00
9.000000e-07	-1.878348e-06	1.043770e-11	-1.330777e+01	-2.343129e+00
9.100000e-07	-1.809818e-06	1.562846e-11	-1.282225e+01	-2.240059e+00
9.200000e-07	-1.741010e-06	1.084624e-11	-1.233475e+01	-2.131137e+00
9.300000e-07	-1.671931e-06	4.838317e-12	-1.184534e+01	-2.037820e+00
9.400000e-07	-1.602580e-06	2.707043e-12	-1.135400e+01	-1.975405e+00
9.500000e-07	-1.532931e-06	5.259394e-12	-1.086055e+01	-1.947631e+00
9.600000e-07	-1.462923e-06	4.043910e-12	-1.036455e+01	-1.945819e+00
9.700000e-07	-1.392625e-06	-1.928079e-13	-9.866507e+00	-1.952527e+00
9.800000e-07	-1.322182e-06	1.263489e-12	-9.367428e+00	-1.948012e+00
9.900000e-07	-1.251503e-06	5.875585e-12	-8.866678e+00	-1.916850e+00
1.000000e-06	-1.180472e-06	7.774507e-12	-8.363438e+00	-1.852275e+00
1.010000e-06	-1.109181e-06	2.884345e-12	-7.858357e+00	-1.756939e+00
1.020000e-06	-1.037754e-06	-6.246011e-13	-7.352308e+00	-1.640316e+00
1.030000e-06	-9.662135e-07	3.113962e-12	-6.845455e+00	-1.514284e+00
1.040000e-06	-8.945259e-07	5.528074e-12	-6.337560e+00	-1.388936e+00
1.050000e-06	-8.226494e-07	5.891345e-12	-5.828328e+00	-1.270261e+00
1.060000e-06	-7.506389e-07	4.300261e-12	-5.318146e+00	-1.160271e+00
1.070000e-06	-6.785665e-07	6.688756e-12	-4.807526e+00	-1.058914e+00
1.080000e-06	-6.063913e-07	1.384833e-11	-4.296177e+00	-9.663529e-01
1.090000e-06	-5.341306e-07	1.692341e-11	-3.784223e+00	-8.841355e-01
1.100000e-06	-4.617957e-07	1.708116e-11	-3.271742e+00	-8.145365e-01
1.110000e-06	-3.894028e-07	1.870566e-11	-2.758851e+00	-7.584276e-01
1.120000e-06	-3.170068e-07	2.163234e-11	-2.245938e+00	-7.129704e-01
1.130000e-06	-2.445489e-07	1.943575e-11	-1.732587e+00	-6.706873e-01
1.140000e-06	-1.720063e-07	1.326146e-11	-1.218635e+00	-6.209204e-01
1.150000e-06	-9.944817e-08	9.651463e-12	-7.045730e-01	-5.535429e-01
1.160000e-06	-2.693894e-08	1.152105e-11	-1.908577e-01	-4.635572e-01
1.170000e-06	4.554062e-08	1.764492e-11	3.226474e-01	-3.545041e-01
1.180000e-06	1.179667e-07	2.223064e-11	8.357734e-01	-2.388051e-01
1.190000e-06	1.903602e-07	2.545926e-11	1.348669e+00	-1.342744e-01
1.200000e-06	2.627286e-07	2.866667e-11	1.861386e+00	-5.765789e-02
1.210000e-06	3.350003e-07	2.714693e-11	2.373419e+00	-1.749760e-02
1.220000e-06	4.072686e-07	2.059426e-11	2.885427e+00	-9.233970e-03
1.230000e-06	4.795148e-07	1.300114e-11	3.397279e+00	-1.488676e-02
1.240000e-06	5.516273e-07	1.147616e-11	3.908183e+00	-8.032473e-03
1.250000e-06	6.236129e-07	1.599217e-11	4.418189e+00	3.728869e-02
1.260000e-06	6.955456e-07	2.184716e-11	4.927819e+00	1.368219e-01
1.270000e-06	7.674263e-07	2.709427e-11	5.437082e+00	2.892062e-01
1.280000e-06	8.391369e-07	3.153304e-11	5.945139e+00	4.748308e-01
1.290000e-06	9.106271e-07	3.469785e-11	6.451635e+00	6.613115e-01
1.300000e-06	9.819444e-07	3.387773e-11	6.956905e+00	8.139753e-01
1.310000e-06	1.053177e-06	2.886628e-11	7.461573e+00	9.077385e-01
1.320000e-06	1.124309e-06	2.608168e-11	7.965534e+00	9.360623e-01
1.330000e-06	1.195206e-06	2.741740e-11	8.467829e+00	9.135878e-01
1.340000e-06	1.265832e-06	3.012332e-11	8.968202e+00	8.713053e-01
1.350000e-06	1.336240e-06	3.076650e-11	9.467029e+00	8.458666e-01
1.360000e-06	1.406451e-06	3.054826e-11	9.964462e+00	8.668605e-01
1.370000e-06	1.476427e-06	3.234700e-11	1.046023e+01	9.466813e-01
1.380000e-06	1.546168e-06	3.398456e-11	1.095433e+01	1.076690e+00
1.390000e-06	1.615699e-06	3.476518e-11	1.144695e+01	1.231030e+00
1.400000e-06	1.684919e-06	3.350021e-11	1.193736e+01	1.376610e+00
1.410000e-06	1.753789e-06	3.433371e-11	1.242529e+01	1.485447e+00
1.420000e-06	1.822408e-06	3.666104e-11	1.291144e+01	1.544736e+00
1.430000e-06	1.890850e-06	3.659343e-11	1.339634e+01	1.560919e+00
1.440000e-06	1.959071e-06	3.461495e-11	1.387968e+01	1.556346e+00
1.450000e-06	2.027040e-06	3.422757e-11	1.436122e+01	1.559980e+00
1.460000e-06	2.094713e-06	3.884065e-11	1.484068e+01	1.595837e+00
1.470000e-06	2.161960e-06	4.404409e-11	1.531711e+01	1.673663e+00
1.480000e-06	2.228741e-06	4.636601e-11	1.579024e+01	1.785429e+00
1.490000e-06	2.294950e-06	4.532505e-11	1.625932e+01	1.908882e+00
1.500000e-06	2.360505e-06	4.292408e-11	1.672377e+01	2.016685e+00
1.510000e-06	2.425533e-06	4.200657e-11	1.718448e+01	2.087487e+00
1.520000e-06	2.490175e-06	4.045359e-11	1.764246e+01	2.114579e+00
1.530000e-06	2.554495e-06	3.930658e-11	1.809815e+01	2.108789e+00
1.540000e-06	2.618421e-06	4.062387e-11	1.855106e+01	2.094512e+00
1.550000e-06	2.681887e-06	4.335868e-11	1.900070e+01	2.100452e+00
1.560000e-06	2.744883e-06	4.545490e-11	1.944702e+01	2.148670e+00
1.570000e-06	2.807398e-06	4.517139e-11	1.988993e+01	2.246129e+00
1.580000e-06	2.869456e-06	4.521868e-11	2.032960e+01	2.381904e+00
1.590000e-06	2.931054e-06	4.718037e-11	2.076601e+01	2.531063e+00
1.600000e-06	2.992090e-06	4.994548e-11	2.119844e+01	2.663627e+00
1.610000e-06	3.052621e-06	5.103884e-11	2.162729e+01	2.755225e+00
1.620000e-06	3.112821e-06	5.026412e-11	2.205379e+01	2.795458e+00
1.630000e-06	3.172637e-06	5.004767e-11	2.247758e+01	2.791012e+00
1.640000e-06	3.231842e-06	4.959236e-11	2.289704e+01	2.762620e+00
1.650000e-06	3.290138e-06	4.774236e-11	2.331006e+01	2.737259e+00
1.660000e-06	3.347467e-06	4.583941e-11	2.371622e+01	2.738666e+00
1.670000e-06	3.404114e-06	4.565741e-11	2.411756e+01	2.779705e+00
1.680000e-06	3.460279e-06	4.748515e-11	2.451548e+01	2.859176e+00
1.690000e-06	3.515929e-06	4.851732e-11	2.490975e+01	2.963846e+00
1.700000e-06	3.571030e-06	4.738092e-11	2.530012e+01	3.074473e+00
1.710000e-06	3.625578e-06	4.581621e-11	2.568659e+01	3.173211e+00
1.720000e-06	3.679523e-06	4.582208e-11	2.606878e+01	3.249488e+00
1.730000e-06	3.732819e-06	4.734802e-11	2.644637e+01	3.302334e+00
1.740000e-06	3.785443e-06	4.821520e-11	2.681921e+01	3.338699e+00
1.750000e-06	3.837335e-06	4.847107e-11	2.718685e+01	3.368934e+00
1.760000e-06	3.888374e-06	5.027313e-11	2.754845e+01	3.401627e+00
1.770000e-06	3.938424e-06	5.273430e-11	2.790305e+01	3.440025e+00
1.780000e-06	3.987464e-06	5.179645e-11	2.825049e+01	3.481394e+00
1.790000e-06	4.035734e-06	4.982785e-11	2.859247e+01	3.519297e+00
1.800000e-06	4.083459e-06	4.989231e-11	2.893060e+01	3.547508e+00
1.810000e-06	4.130555e-06	5.099284e-11	2.926426e+01	3.563641e+00
1.820000e-06	4.176941e-06	5.222130e-11	2.959290e+01	3.570824e+00
1.830000e-06	4.222635e-06	5.143979e-11	2.991663e+01	3.576668e+00
1.840000e-06	4.267614e-06	4.896752e-11	3.023530e+01	3.590041e+00
1.850000e-06	4.311995e-06	4.864664e-11	3.054973e+01	3.617115e+00
1.860000e-06	4.355865e-06	4.994291e-11	3.086055e+01	3.658442e+00
1.870000e-06	4.398957e-06	5.182535e-11	3.116584e+01	3.708359e+00
1.880000e-06	4.440930e-06	5.441946e-11	3.146322e+01	3.757010e+00
1.890000e-06	4.481846e-06	5.731771e-11	3.175310e+01	3.794121e+00
1.900000e-06	4.521964e-06	5.886065e-11	3.203733e+01	3.812982e+00
1.910000e-06	4.561386e-06	5.757903e-11	3.231663e+01	3.812990e+00
1.920000e-06	4.600034e-06	5.356096e-11	3.259044e+01	3.799758e+00
1.930000e-06	4.637828e-06	4.987335e-11	3.285821e+01	3.782824e+00
1.940000e-06	4.674823e-06	5.049954e-11	3.312031e+01	3.771960e+00
1.950000e-06	4.711181e-06	5.217988e-11	3.337790e+01	3.773601e+00
1.960000e-06	4.746860e-06	5.228761e-11	3.363068e+01	3.788806e+00
1.970000e-06	4.781571e-06	5.235430e-11	3.387660e+01	3.813440e+00
1.980000e-06	4.815130e-06	5.398478e-11	3.411436e+01	3.840324e+00
1.990000e-06	4.847695e-06	5.509313e-11	3.434508e+01	3.862319e+00
2.000000e-06	4.879476e-06	5.373893e-11	3.457024e+01	3.875018e+00
2.010000e-06	4.910473e-06	5.169277e-11	3.478985e+01	3.878010e+00
2.020000e-06	4.940654e-06	5.111716e-11	3.500368e+01	3.874366e+00
2.030000e-06	4.970016e-06	5.349638e-11	3.521170e+01	3.868837e+00
2.040000e-06	4.998661e-06	5.569592e-11	3.541464e+01	3.865722e+00
2.050000e-06	5.026699e-06	5.621889e-11	3.561329e+01	3.867439e+00
2.060000e-06	5.053923e-06	5.528473e-11	3.580616e+01	3.874347e+00
2.070000e-06	5.079864e-06	5.528380e-11	3.598995e+01	3.885716e+00
2.080000e-06	5.104626e-06	5.620776e-11	3.616538e+01	3.901115e+00
2.090000e-06	5.128621e-06	5.538308e-11	3.633538e+01	3.921335e+00
2.100000e-06	5.151809e-06	5.601018e-11	3.649967e+01	3.948194e+00
2.110000e-06	5.174116e-06	5.866683e-11	3.665771e+01	3.983237e+00
2.120000e-06	5.195530e-06	6.074390e-11	3.680943e+01	4.025988e+00
2.130000e-06	5.216160e-06	5.930557e-11	3.695558e+01	4.072765e+00
2.140000e-06	5.236119e-06	5.578140e-11	3.709700e+01	4.116937e+00
2.150000e-06	5.255193e-06	5.552962e-11	3.723213e+01	4.150854e+00
2.160000e-06	5.273209e-06	5.839523e-11	3.735977e+01	4.168871e+00
2.170000e-06	5.290329e-06	6.084072e-11	3.748106e+01	4.170231e+00
2.180000e-06	5.306559e-06	6.061828e-11	3.759605e+01	4.160419e+00
2.190000e-06	5.321744e-06	5.923921e-11	3.770363e+01	4.150104e+00
2.200000e-06	5.335931e-06	5.817970e-11	3.780414e+01	4.151760e+00
2.210000e-06	5.349185e-06	5.608162e-11	3.789805e+01	4.175073e+00
2.220000e-06	5.361482e-06	5.389181e-11	3.798517e+01	4.222939e+00
2.230000e-06	5.372615e-06	5.309076e-11	3.806404e+01	4.289764e+00
2.240000e-06	5.382409e-06	5.478235e-11	3.813343e+01	4.363013e+00
2.250000e-06	5.391127e-06	5.769398e-11	3.819520e+01	4.427623e+00
2.260000e-06	5.398981e-06	6.075726e-11	3.825084e+01	4.471719e+00
2.270000e-06	5.405938e-06	6.285162e-11	3.830013e+01	4.491362e+00
2.280000e-06	5.411942e-06	6.293171e-11	3.834267e+01	4.492318e+00
2.290000e-06	5.417014e-06	6.232845e-11	3.837860e+01	4.487921e+00
2.300000e-06	5.421360e-06	6.036812e-11	3.840939e+01	4.493662e+00
2.310000e-06	5.424930e-06	5.713076e-11	3.843469e+01	4.520521e+00
2.320000e-06	5.427288e-06	5.510497e-11	3.845139e+01	4.569727e+00
2.330000e-06	5.428372e-06	5.498818e-11	3.845907e+01	4.631195e+00
2.340000e-06	5.428503e-06	5.695707e-11	3.846000e+01	4.686553e+00
2.350000e-06	5.427789e-06	6.055097e-11	3.845494e+01	4.715853e+00
2.360000e-06	5.426196e-06	6.229143e-11	3.844366e+01	4.705517e+00
2.370000e-06	5.423743e-06	6.197594e-11	3.842627e+01	4.654434e+00
2.380000e-06	5.420509e-06	5.905554e-11	3.840336e+01	4.575672e+00
2.390000e-06	5.416554e-06	5.407245e-11	3.837535e+01	4.492881e+00
2.400000e-06	5.411717e-06	5.107445e-11	3.834107e+01	4.432466e+00
2.410000e-06	5.405762e-06	6.408050e-11	3.829888e+01	4.414311e+00
2.420000e-06	5.398762e-06	6.975715e-11	3.824929e+01	4.444499e+00
2.430000e-06	5.390893e-06	1.121709e-11	3.819354e+01	4.512817e+00
2.440000e-06	5.381939e-06	-2.996090e-11	3.813010e+01	4.596110e+00
2.450000e-06	5.371495e-06	5.225023e-11	3.805611e+01	4.666366e+00
2.460000e-06	5.359940e-06	1.803675e-10	3.797425e+01	4.700643e+00
2.470000e-06	5.348100e-06	1.037519e-10	3.789036e+01	4.689231e+00
2.480000e-06	5.335740e-06	-6.725165e-11	3.780279e+01	4.639112e+00
2.490000e-06	5.321914e-06	7.942041e-11	3.770483e+01	4.571515e+00
2.500000e-06	5.306717e-06	1.521470e-10	3.759717e+01	4.514572e+00
2.510000e-06	5.290827e-06	-4.056514e-11	3.748459e+01	4.493823e+00
2.520000e-06	5.274101e-06	5.492357e-11	3.736609e+01	4.524017e+00
2.530000e-06	5.256306e-06	1.833345e-10	3.724002e+01	4.605054e+00
2.540000e-06	5.237806e-06	2.079645e-11	3.710895e+01	4.723197e+00
2.550000e-06	5.218574e-06	7.354772e-11	3.697269e+01	4.856718e+00
2.560000e-06	5.198532e-06	1.934242e-10	3.683070e+01	4.983513e+00
2.570000e-06	5.177711e-06	3.362015e-12	3.668318e+01	5.087687e+00
2.580000e-06	5.155629e-06	3.449366e-11	3.652674e+01	5.162791e+00
2.590000e-06	5.132301e-06	1.542642e-10	3.636146e+01	5.210903e+00
2.600000e-06	5.108176e-06	4.532971e-11	3.619054e+01	5.238532e+00
2.610000e-06	5.083124e-06	8.768102e-11	3.601305e+01	5.251558e+00
2.620000e-06	5.057025e-06	9.845739e-11	3.582814e+01	5.251645e+00
2.630000e-06	5.030135e-06	5.602113e-11	3.563763e+01	5.235733e+00
2.640000e-06	5.002539e-06	1.565524e-10	3.544212e+01	5.198693e+00
2.650000e-06	4.974200e-06	8.702140e-11	3.524135e+01	5.137731e+00
2.660000e-06	4.944751e-06	2.273587e-11	3.503270e+01	5.056270e+00
2.670000e-06	4.913940e-06	1.118978e-10	3.481441e+01	4.965227e+00
2.680000e-06	4.882204e-06	8.802568e-11	3.458956e+01	4.880742e+00
2.690000e-06	4.849738e-06	8.288677e-11	3.435955e+01	4.819027e+00
2.700000e-06	4.816437e-06	9.868597e-11	3.412362e+01	4.790356e+00
2.710000e-06	4.782321e-06	4.940430e-11	3.388192e+01	4.794749e+00
2.720000e-06	4.747430e-06	8.318827e-11	3.363471e+01	4.821325e+00
2.730000e-06	4.711863e-06	9.988763e-11	3.338273e+01	4.851859e+00
2.740000e-06	4.675526e-06	7.057917e-11	3.312529e+01	4.867323e+00
2.750000e-06	4.638124e-06	7.506949e-11	3.286030e+01	4.854912e+00
2.760000e-06	4.599624e-06	8.500057e-11	3.258754e+01	4.812763e+00
2.770000e-06	4.560260e-06	1.120530e-10	3.230865e+01	4.750433e+00
2.780000e-06	4.520242e-06	7.623037e-11	3.202513e+01	4.684896e+00
2.790000e-06	4.479526e-06	4.873930e-11	3.173667e+01	4.633623e+00
2.800000e-06	4.438027e-06	7.603814e-11	3.144265e+01	4.607527e+00
2.810000e-06	4.395780e-06	7.369256e-11	3.114334e+01	4.606633e+00
2.820000e-06	4.352842e-06	8.575928e-11	3.083913e+01	4.620231e+00
2.830000e-06	4.309286e-06	7.003897e-11	3.053055e+01	4.631451e+00
2.840000e-06	4.265155e-06	6.888810e-11	3.021788e+01	4.624355e+00
2.850000e-06	4.220282e-06	9.603915e-11	2.989997e+01	4.590603e+00
2.860000e-06	4.174525e-06	7.367688e-11	2.957579e+01	4.532910e+00
2.870000e-06	4.128029e-06	6.996767e-11	2.924637e+01	4.463801e+00
2.880000e-06	4.080967e-06	5.938196e-11	2.891294e+01	4.400166e+00
2.890000e-06	4.033200e-06	5.729030e-11	2.857452e+01	4.355861e+00
2.900000e-06	3.984535e-06	7.807812e-11	2.822974e+01	4.335476e+00
2.910000e-06	3.935120e-06	6.867332e-11	2.787964e+01	4.331960e+00
2.920000e-06	3.885015e-06	6.256346e-11	2.752465e+01	4.329233e+00
2.930000e-06	3.834190e-06	5.566829e-11	2.716457e+01	4.308818e+00
2.940000e-06	3.782677e-06	6.764225e-11	2.679961e+01	4.257857e+00
2.950000e-06	3.730448e-06	7.083168e-11	2.642958e+01	4.175141e+00
