# Temperatura_=_20.0
# Concentracion g/m^3_=_10000.0
# C_Vs_to_Am_M_A/Vsm_=_65563218390.804596
# pendiente_HvsI_1/m_=_3716.3
# ordenada_HvsI_A/m_=_1297.0
# frecuencia_Hz_=_212873.1339083477

Tiempo_(s)	Campo_(V.s)	Magnetizacion_(V.s)	Campo_(kA/m)	Magnetizacion_(A/m)
0.000000e+00	-5.451550e-06	-9.743308e-09	-3.842482e+01	-6.349191e+02
1.000000e-08	-5.451244e-06	-9.742564e-09	-3.842267e+01	-6.349411e+02
2.000000e-08	-5.450085e-06	-9.745949e-09	-3.841450e+01	-6.348912e+02
3.000000e-08	-5.447659e-06	-9.748029e-09	-3.839740e+01	-6.347588e+02
4.000000e-08	-5.444076e-06	-9.744161e-09	-3.837214e+01	-6.345468e+02
5.000000e-08	-5.439722e-06	-9.738051e-09	-3.834146e+01	-6.342709e+02
6.000000e-08	-5.434585e-06	-9.730723e-09	-3.830525e+01	-6.339522e+02
7.000000e-08	-5.428561e-06	-9.711766e-09	-3.826278e+01	-6.336082e+02
8.000000e-08	-5.421591e-06	-9.679599e-09	-3.821366e+01	-6.332458e+02
9.000000e-08	-5.413701e-06	-9.719190e-09	-3.815805e+01	-6.328584e+02
1.000000e-07	-5.404715e-06	-9.795577e-09	-3.809471e+01	-6.324319e+02
1.100000e-07	-5.394246e-06	-9.803327e-09	-3.802092e+01	-6.319534e+02
1.200000e-07	-5.382602e-06	-9.639949e-09	-3.793885e+01	-6.314230e+02
1.300000e-07	-5.370239e-06	-9.525535e-09	-3.785171e+01	-6.308602e+02
1.400000e-07	-5.357031e-06	-9.746589e-09	-3.775861e+01	-6.303025e+02
1.500000e-07	-5.342770e-06	-9.794128e-09	-3.765810e+01	-6.297953e+02
1.600000e-07	-5.327648e-06	-9.520906e-09	-3.755151e+01	-6.293764e+02
1.700000e-07	-5.311435e-06	-9.609584e-09	-3.743723e+01	-6.290599e+02
1.800000e-07	-5.293976e-06	-9.786161e-09	-3.731417e+01	-6.288263e+02
1.900000e-07	-5.275746e-06	-9.547209e-09	-3.718568e+01	-6.286237e+02
2.000000e-07	-5.256813e-06	-9.582521e-09	-3.705223e+01	-6.283796e+02
2.100000e-07	-5.237032e-06	-9.743648e-09	-3.691281e+01	-6.280203e+02
2.200000e-07	-5.216444e-06	-9.506774e-09	-3.676770e+01	-6.274918e+02
2.300000e-07	-5.195054e-06	-9.537646e-09	-3.661693e+01	-6.267734e+02
2.400000e-07	-5.172747e-06	-9.717331e-09	-3.645970e+01	-6.258812e+02
2.500000e-07	-5.149494e-06	-9.546532e-09	-3.629580e+01	-6.248578e+02
2.600000e-07	-5.125427e-06	-9.478940e-09	-3.612617e+01	-6.237551e+02
2.700000e-07	-5.100447e-06	-9.539537e-09	-3.595010e+01	-6.226140e+02
2.800000e-07	-5.074353e-06	-9.483265e-09	-3.576618e+01	-6.214508e+02
2.900000e-07	-5.047158e-06	-9.500184e-09	-3.557449e+01	-6.202534e+02
3.000000e-07	-5.019015e-06	-9.465828e-09	-3.537613e+01	-6.189897e+02
3.100000e-07	-4.990026e-06	-9.383720e-09	-3.517181e+01	-6.176233e+02
3.200000e-07	-4.960154e-06	-9.456366e-09	-3.496125e+01	-6.161309e+02
3.300000e-07	-4.929420e-06	-9.431190e-09	-3.474463e+01	-6.145131e+02
3.400000e-07	-4.897930e-06	-9.319487e-09	-3.452268e+01	-6.127955e+02
3.500000e-07	-4.865791e-06	-9.313174e-09	-3.429615e+01	-6.110192e+02
3.600000e-07	-4.832899e-06	-9.300412e-09	-3.406431e+01	-6.092238e+02
3.700000e-07	-4.798874e-06	-9.283250e-09	-3.382449e+01	-6.074323e+02
3.800000e-07	-4.763630e-06	-9.270052e-09	-3.357607e+01	-6.056410e+02
3.900000e-07	-4.727508e-06	-9.212773e-09	-3.332147e+01	-6.038214e+02
4.000000e-07	-4.690659e-06	-9.163285e-09	-3.306174e+01	-6.019311e+02
4.100000e-07	-4.653049e-06	-9.163766e-09	-3.279665e+01	-5.999309e+02
4.200000e-07	-4.614549e-06	-9.154661e-09	-3.252528e+01	-5.977999e+02
4.300000e-07	-4.575125e-06	-9.078482e-09	-3.224741e+01	-5.955438e+02
4.400000e-07	-4.535090e-06	-9.033802e-09	-3.196523e+01	-5.931917e+02
4.500000e-07	-4.494561e-06	-9.019250e-09	-3.167956e+01	-5.907848e+02
4.600000e-07	-4.453171e-06	-8.983470e-09	-3.138783e+01	-5.883589e+02
4.700000e-07	-4.410615e-06	-8.946562e-09	-3.108788e+01	-5.859308e+02
4.800000e-07	-4.367077e-06	-8.890421e-09	-3.078100e+01	-5.834914e+02
4.900000e-07	-4.322893e-06	-8.860096e-09	-3.046957e+01	-5.810104e+02
5.000000e-07	-4.278045e-06	-8.845573e-09	-3.015346e+01	-5.784486e+02
5.100000e-07	-4.232455e-06	-8.799903e-09	-2.983213e+01	-5.757737e+02
5.200000e-07	-4.186178e-06	-8.736928e-09	-2.950595e+01	-5.729733e+02
5.300000e-07	-4.139190e-06	-8.674434e-09	-2.917476e+01	-5.700589e+02
5.400000e-07	-4.091531e-06	-8.641014e-09	-2.883884e+01	-5.670604e+02
5.500000e-07	-4.043245e-06	-8.608775e-09	-2.849850e+01	-5.640134e+02
5.600000e-07	-3.994180e-06	-8.557331e-09	-2.815267e+01	-5.609441e+02
5.700000e-07	-3.944099e-06	-8.502686e-09	-2.779967e+01	-5.578589e+02
5.800000e-07	-3.892964e-06	-8.459329e-09	-2.743925e+01	-5.547423e+02
5.900000e-07	-3.840924e-06	-8.428524e-09	-2.707245e+01	-5.515634e+02
6.000000e-07	-3.788099e-06	-8.365620e-09	-2.670012e+01	-5.482892e+02
6.100000e-07	-3.734543e-06	-8.291731e-09	-2.632263e+01	-5.448977e+02
6.200000e-07	-3.680304e-06	-8.241880e-09	-2.594034e+01	-5.413851e+02
6.300000e-07	-3.625452e-06	-8.202120e-09	-2.555371e+01	-5.377660e+02
6.400000e-07	-3.569989e-06	-8.153030e-09	-2.516279e+01	-5.340640e+02
6.500000e-07	-3.514013e-06	-8.080153e-09	-2.476824e+01	-5.302993e+02
6.600000e-07	-3.457623e-06	-8.013751e-09	-2.437078e+01	-5.264778e+02
6.700000e-07	-3.400596e-06	-7.963504e-09	-2.396883e+01	-5.225866e+02
6.800000e-07	-3.342662e-06	-7.912525e-09	-2.356049e+01	-5.185987e+02
6.900000e-07	-3.283778e-06	-7.846194e-09	-2.314545e+01	-5.144842e+02
7.000000e-07	-3.224199e-06	-7.767042e-09	-2.272551e+01	-5.102239e+02
7.100000e-07	-3.164155e-06	-7.703623e-09	-2.230230e+01	-5.058185e+02
7.200000e-07	-3.103637e-06	-7.643173e-09	-2.187574e+01	-5.012900e+02
7.300000e-07	-3.042608e-06	-7.568877e-09	-2.144559e+01	-4.966732e+02
7.400000e-07	-2.981026e-06	-7.485236e-09	-2.101153e+01	-4.920014e+02
7.500000e-07	-2.918907e-06	-7.408486e-09	-2.057369e+01	-4.872913e+02
7.600000e-07	-2.856243e-06	-7.348604e-09	-2.013201e+01	-4.825340e+02
7.700000e-07	-2.793097e-06	-7.279328e-09	-1.968692e+01	-4.776965e+02
7.800000e-07	-2.729599e-06	-7.195629e-09	-1.923936e+01	-4.727324e+02
7.900000e-07	-2.665711e-06	-7.109485e-09	-1.878905e+01	-4.675990e+02
8.000000e-07	-2.601423e-06	-7.030850e-09	-1.833593e+01	-4.622740e+02
8.100000e-07	-2.536798e-06	-6.953748e-09	-1.788042e+01	-4.567637e+02
8.200000e-07	-2.471765e-06	-6.860122e-09	-1.742204e+01	-4.511010e+02
8.300000e-07	-2.406201e-06	-6.763989e-09	-1.695992e+01	-4.453324e+02
8.400000e-07	-2.339974e-06	-6.676779e-09	-1.649312e+01	-4.394993e+02
8.500000e-07	-2.273118e-06	-6.595765e-09	-1.602189e+01	-4.336217e+02
8.600000e-07	-2.205828e-06	-6.509318e-09	-1.554761e+01	-4.276898e+02
8.700000e-07	-2.138213e-06	-6.410471e-09	-1.507102e+01	-4.216673e+02
8.800000e-07	-2.070365e-06	-6.313682e-09	-1.459281e+01	-4.155059e+02
8.900000e-07	-2.002327e-06	-6.220593e-09	-1.411325e+01	-4.091634e+02
9.000000e-07	-1.934095e-06	-6.121645e-09	-1.363232e+01	-4.026200e+02
9.100000e-07	-1.865604e-06	-6.008656e-09	-1.314956e+01	-3.958847e+02
9.200000e-07	-1.796738e-06	-5.892695e-09	-1.266417e+01	-3.889900e+02
9.300000e-07	-1.727564e-06	-5.790762e-09	-1.217660e+01	-3.819766e+02
9.400000e-07	-1.658150e-06	-5.691184e-09	-1.168734e+01	-3.748746e+02
9.500000e-07	-1.588385e-06	-5.581679e-09	-1.119561e+01	-3.676890e+02
9.600000e-07	-1.518301e-06	-5.465197e-09	-1.070163e+01	-3.603947e+02
9.700000e-07	-1.447966e-06	-5.352178e-09	-1.020588e+01	-3.529449e+02
9.800000e-07	-1.377353e-06	-5.240440e-09	-9.708163e+00	-3.452878e+02
9.900000e-07	-1.306461e-06	-5.116302e-09	-9.208488e+00	-3.373863e+02
1.000000e-06	-1.235329e-06	-4.983033e-09	-8.707123e+00	-3.292316e+02
1.010000e-06	-1.164001e-06	-4.850945e-09	-8.204371e+00	-3.208462e+02
1.020000e-06	-1.092483e-06	-4.726410e-09	-7.700278e+00	-3.122743e+02
1.030000e-06	-1.020772e-06	-4.600308e-09	-7.194831e+00	-3.035630e+02
1.040000e-06	-9.489506e-07	-4.461961e-09	-6.688604e+00	-2.947427e+02
1.050000e-06	-8.770102e-07	-4.321297e-09	-6.181538e+00	-2.858135e+02
1.060000e-06	-8.048865e-07	-4.183603e-09	-5.673180e+00	-2.767436e+02
1.070000e-06	-7.326661e-07	-4.045577e-09	-5.164140e+00	-2.674801e+02
1.080000e-06	-6.603949e-07	-3.896688e-09	-4.654742e+00	-2.579679e+02
1.090000e-06	-5.879565e-07	-3.737437e-09	-4.144165e+00	-2.481691e+02
1.100000e-06	-5.153995e-07	-3.580722e-09	-3.632753e+00	-2.380750e+02
1.110000e-06	-4.428334e-07	-3.423771e-09	-3.121276e+00	-2.277066e+02
1.120000e-06	-3.701811e-07	-3.261865e-09	-2.609193e+00	-2.171028e+02
1.130000e-06	-2.974735e-07	-3.094231e-09	-2.096719e+00	-2.063023e+02
1.140000e-06	-2.246384e-07	-2.927288e-09	-1.583346e+00	-1.953257e+02
1.150000e-06	-1.516848e-07	-2.762282e-09	-1.069139e+00	-1.841656e+02
1.160000e-06	-7.878175e-08	-2.588731e-09	-5.552870e-01	-1.727888e+02
1.170000e-06	-5.928276e-09	-2.404457e-09	-4.178499e-02	-1.611486e+02
1.180000e-06	6.690302e-08	-2.215294e-09	4.715607e-01	-1.492035e+02
1.190000e-06	1.397452e-07	-2.027592e-09	9.849828e-01	-1.369327e+02
1.200000e-06	2.125283e-07	-1.836836e-09	1.497989e+00	-1.243434e+02
1.210000e-06	2.852116e-07	-1.638672e-09	2.010292e+00	-1.114663e+02
1.220000e-06	3.578681e-07	-1.436469e-09	2.522405e+00	-9.834125e+01
1.230000e-06	4.304585e-07	-1.232956e-09	3.034053e+00	-8.499894e+01
1.240000e-06	5.029097e-07	-1.028668e-09	3.544720e+00	-7.144741e+01
1.250000e-06	5.751978e-07	-8.175559e-10	4.054237e+00	-5.766779e+01
1.260000e-06	6.473821e-07	-6.000523e-10	4.563022e+00	-4.362231e+01
1.270000e-06	7.194707e-07	-3.800273e-10	5.071133e+00	-2.927121e+01
1.280000e-06	7.914616e-07	-1.564279e-10	5.578555e+00	-1.459172e+01
1.290000e-06	8.633886e-07	7.206880e-11	6.085527e+00	4.083816e-01
1.300000e-06	9.352137e-07	3.079268e-10	6.591780e+00	1.568825e+01
1.310000e-06	1.006912e-06	5.478762e-10	7.097141e+00	3.118358e+01
1.320000e-06	1.078473e-06	7.868546e-10	7.601533e+00	4.682436e+01
1.330000e-06	1.149878e-06	1.024213e-09	8.104825e+00	6.255366e+01
1.340000e-06	1.221061e-06	1.261135e-09	8.606551e+00	7.833976e+01
1.350000e-06	1.291972e-06	1.500953e-09	9.106361e+00	9.417672e+01
1.360000e-06	1.362667e-06	1.742713e-09	9.604649e+00	1.100732e+02
1.370000e-06	1.433228e-06	1.986091e-09	1.010200e+01	1.260343e+02
1.380000e-06	1.503546e-06	2.232883e-09	1.059762e+01	1.420435e+02
1.390000e-06	1.573517e-06	2.479115e-09	1.109081e+01	1.580528e+02
1.400000e-06	1.643222e-06	2.722120e-09	1.158212e+01	1.739851e+02
1.410000e-06	1.712662e-06	2.959044e-09	1.207156e+01	1.897478e+02
1.420000e-06	1.781811e-06	3.190176e-09	1.255896e+01	2.052532e+02
1.430000e-06	1.850678e-06	3.418472e-09	1.304436e+01	2.204370e+02
1.440000e-06	1.919280e-06	3.642078e-09	1.352790e+01	2.352682e+02
1.450000e-06	1.987639e-06	3.860699e-09	1.400972e+01	2.497471e+02
1.460000e-06	2.055721e-06	4.075841e-09	1.448959e+01	2.638914e+02
1.470000e-06	2.123518e-06	4.288495e-09	1.496745e+01	2.777183e+02
1.480000e-06	2.191041e-06	4.497217e-09	1.544338e+01	2.912282e+02
1.490000e-06	2.258137e-06	4.695902e-09	1.591630e+01	3.043976e+02
1.500000e-06	2.324661e-06	4.884231e-09	1.638519e+01	3.171842e+02
1.510000e-06	2.390619e-06	5.065400e-09	1.685009e+01	3.295417e+02
1.520000e-06	2.455952e-06	5.242633e-09	1.731059e+01	3.414379e+02
1.530000e-06	2.520682e-06	5.415956e-09	1.776683e+01	3.528683e+02
1.540000e-06	2.585005e-06	5.583830e-09	1.822021e+01	3.638600e+02
1.550000e-06	2.649018e-06	5.746325e-09	1.867140e+01	3.744630e+02
1.560000e-06	2.712634e-06	5.904745e-09	1.911979e+01	3.847327e+02
1.570000e-06	2.775806e-06	6.058466e-09	1.956505e+01	3.947104e+02
1.580000e-06	2.838498e-06	6.205646e-09	2.000693e+01	4.044089e+02
1.590000e-06	2.900698e-06	6.346894e-09	2.044535e+01	4.138100e+02
1.600000e-06	2.962427e-06	6.483836e-09	2.088043e+01	4.228742e+02
1.610000e-06	3.023686e-06	6.617317e-09	2.131221e+01	4.315582e+02
1.620000e-06	3.084430e-06	6.744679e-09	2.174036e+01	4.398352e+02
1.630000e-06	3.144690e-06	6.864000e-09	2.216510e+01	4.477076e+02
1.640000e-06	3.204570e-06	6.975131e-09	2.258716e+01	4.552092e+02
1.650000e-06	3.263883e-06	7.082189e-09	2.300523e+01	4.623947e+02
1.660000e-06	3.322405e-06	7.185779e-09	2.341771e+01	4.693222e+02
1.670000e-06	3.380085e-06	7.286202e-09	2.382426e+01	4.760348e+02
1.680000e-06	3.436956e-06	7.383623e-09	2.422512e+01	4.825484e+02
1.690000e-06	3.493192e-06	7.478596e-09	2.462149e+01	4.888523e+02
1.700000e-06	3.548932e-06	7.571783e-09	2.501437e+01	4.949192e+02
1.710000e-06	3.604146e-06	7.658347e-09	2.540354e+01	5.007231e+02
1.720000e-06	3.658784e-06	7.739871e-09	2.578865e+01	5.062554e+02
1.730000e-06	3.712819e-06	7.817152e-09	2.616951e+01	5.115344e+02
1.740000e-06	3.766253e-06	7.892254e-09	2.654614e+01	5.166027e+02
1.750000e-06	3.819056e-06	7.966243e-09	2.691832e+01	5.215146e+02
1.760000e-06	3.871164e-06	8.037093e-09	2.728560e+01	5.263185e+02
1.770000e-06	3.922395e-06	8.107768e-09	2.764670e+01	5.310405e+02
1.780000e-06	3.972544e-06	8.177650e-09	2.800016e+01	5.356770e+02
1.790000e-06	4.021660e-06	8.246846e-09	2.834635e+01	5.401983e+02
1.800000e-06	4.070023e-06	8.313361e-09	2.868724e+01	5.445623e+02
1.810000e-06	4.117780e-06	8.374657e-09	2.902385e+01	5.487324e+02
1.820000e-06	4.164875e-06	8.432005e-09	2.935579e+01	5.526936e+02
1.830000e-06	4.211256e-06	8.486635e-09	2.968271e+01	5.564590e+02
1.840000e-06	4.256933e-06	8.538207e-09	3.000466e+01	5.600662e+02
1.850000e-06	4.301879e-06	8.587659e-09	3.032145e+01	5.635637e+02
1.860000e-06	4.346163e-06	8.637617e-09	3.063359e+01	5.669939e+02
1.870000e-06	4.389982e-06	8.688167e-09	3.094245e+01	5.703784e+02
1.880000e-06	4.433079e-06	8.738225e-09	3.124621e+01	5.737122e+02
1.890000e-06	4.475049e-06	8.786376e-09	3.154203e+01	5.769673e+02
1.900000e-06	4.516012e-06	8.830880e-09	3.183075e+01	5.801051e+02
1.910000e-06	4.556210e-06	8.873538e-09	3.211409e+01	5.830920e+02
1.920000e-06	4.595711e-06	8.913824e-09	3.239251e+01	5.859118e+02
1.930000e-06	4.634460e-06	8.948456e-09	3.266562e+01	5.885710e+02
1.940000e-06	4.672316e-06	8.981708e-09	3.293245e+01	5.910948e+02
1.950000e-06	4.709352e-06	9.015708e-09	3.319350e+01	5.935164e+02
1.960000e-06	4.745702e-06	9.049614e-09	3.344971e+01	5.958645e+02
1.970000e-06	4.781370e-06	9.082463e-09	3.370111e+01	5.981537e+02
1.980000e-06	4.816122e-06	9.114034e-09	3.394606e+01	6.003812e+02
1.990000e-06	4.849696e-06	9.146202e-09	3.418270e+01	6.025310e+02
2.000000e-06	4.882237e-06	9.176958e-09	3.441207e+01	6.045832e+02
2.010000e-06	4.913954e-06	9.205403e-09	3.463562e+01	6.065236e+02
2.020000e-06	4.944890e-06	9.230658e-09	3.485367e+01	6.083504e+02
2.030000e-06	4.975065e-06	9.253651e-09	3.506635e+01	6.100747e+02
2.040000e-06	5.004450e-06	9.276378e-09	3.527347e+01	6.117157e+02
2.050000e-06	5.033070e-06	9.297413e-09	3.547520e+01	6.132930e+02
2.060000e-06	5.061018e-06	9.316683e-09	3.567219e+01	6.148187e+02
2.070000e-06	5.088075e-06	9.336862e-09	3.586290e+01	6.162946e+02
2.080000e-06	5.113902e-06	9.359718e-09	3.604494e+01	6.177135e+02
2.090000e-06	5.138599e-06	9.381959e-09	3.621901e+01	6.190650e+02
2.100000e-06	5.162421e-06	9.401605e-09	3.638692e+01	6.203420e+02
2.110000e-06	5.185375e-06	9.419421e-09	3.654871e+01	6.215455e+02
2.120000e-06	5.207449e-06	9.435558e-09	3.670430e+01	6.226852e+02
2.130000e-06	5.228647e-06	9.449617e-09	3.685371e+01	6.237754e+02
2.140000e-06	5.249094e-06	9.462104e-09	3.699783e+01	6.248287e+02
2.150000e-06	5.268922e-06	9.475392e-09	3.713758e+01	6.258500e+02
2.160000e-06	5.287882e-06	9.490256e-09	3.727122e+01	6.268343e+02
2.170000e-06	5.305768e-06	9.506128e-09	3.739729e+01	6.277687e+02
2.180000e-06	5.322690e-06	9.521372e-09	3.751657e+01	6.286381e+02
2.190000e-06	5.338647e-06	9.533459e-09	3.762904e+01	6.294325e+02
2.200000e-06	5.353587e-06	9.544032e-09	3.773434e+01	6.301516e+02
2.210000e-06	5.367586e-06	9.553310e-09	3.783301e+01	6.308058e+02
2.220000e-06	5.380582e-06	9.560869e-09	3.792461e+01	6.314117e+02
2.230000e-06	5.392621e-06	9.568277e-09	3.800947e+01	6.319856e+02
2.240000e-06	5.403580e-06	9.576380e-09	3.808671e+01	6.325360e+02
2.250000e-06	5.413199e-06	9.585386e-09	3.815451e+01	6.330602e+02
2.260000e-06	5.421685e-06	9.594272e-09	3.821432e+01	6.335454e+02
2.270000e-06	5.429290e-06	9.603390e-09	3.826792e+01	6.339747e+02
2.280000e-06	5.436015e-06	9.612367e-09	3.831532e+01	6.343345e+02
2.290000e-06	5.441811e-06	9.619579e-09	3.835618e+01	6.346211e+02
2.300000e-06	5.446681e-06	9.623139e-09	3.839051e+01	6.348427e+02
2.310000e-06	5.450771e-06	9.622608e-09	3.841933e+01	6.350160e+02
2.320000e-06	5.453930e-06	9.620874e-09	3.844160e+01	6.351591e+02
2.330000e-06	5.455798e-06	9.621243e-09	3.845477e+01	6.352832e+02
2.340000e-06	5.456541e-06	9.624144e-09	3.846000e+01	6.353871e+02
2.350000e-06	5.456449e-06	9.628192e-09	3.845935e+01	6.354572e+02
2.360000e-06	5.455483e-06	9.632380e-09	3.845255e+01	6.354729e+02
2.370000e-06	5.453628e-06	9.632253e-09	3.843947e+01	6.354151e+02
2.380000e-06	5.450908e-06	9.629553e-09	3.842030e+01	6.352744e+02
2.390000e-06	5.447424e-06	9.625557e-09	3.839574e+01	6.350553e+02
2.400000e-06	5.443276e-06	9.618389e-09	3.836651e+01	6.347742e+02
2.410000e-06	5.438196e-06	9.615737e-09	3.833070e+01	6.344523e+02
2.420000e-06	5.431881e-06	9.644615e-09	3.828619e+01	6.341065e+02
2.430000e-06	5.424508e-06	9.638739e-09	3.823422e+01	6.337421e+02
2.440000e-06	5.416245e-06	9.531249e-09	3.817598e+01	6.333516e+02
2.450000e-06	5.406761e-06	9.459964e-09	3.810913e+01	6.329203e+02
2.460000e-06	5.395815e-06	9.580460e-09	3.803198e+01	6.324364e+02
2.470000e-06	5.383918e-06	9.753688e-09	3.794812e+01	6.319017e+02
2.480000e-06	5.371804e-06	9.582695e-09	3.786274e+01	6.313375e+02
2.490000e-06	5.358986e-06	9.371878e-09	3.777239e+01	6.307828e+02
2.500000e-06	5.344555e-06	9.636981e-09	3.767068e+01	6.302831e+02
2.510000e-06	5.328955e-06	9.662016e-09	3.756072e+01	6.298744e+02
2.520000e-06	5.312789e-06	9.373656e-09	3.744677e+01	6.295677e+02
2.530000e-06	5.295643e-06	9.585377e-09	3.732593e+01	6.293401e+02
2.540000e-06	5.277441e-06	9.696738e-09	3.719763e+01	6.291369e+02
2.550000e-06	5.258610e-06	9.408631e-09	3.706490e+01	6.288844e+02
2.560000e-06	5.238975e-06	9.566575e-09	3.692650e+01	6.285102e+02
2.570000e-06	5.218552e-06	9.689256e-09	3.678256e+01	6.279631e+02
2.580000e-06	5.197283e-06	9.381242e-09	3.663264e+01	6.272262e+02
2.590000e-06	5.174625e-06	9.484437e-09	3.647294e+01	6.263186e+02
2.600000e-06	5.150878e-06	9.600585e-09	3.630556e+01	6.252850e+02
2.610000e-06	5.126447e-06	9.446875e-09	3.613336e+01	6.241770e+02
2.620000e-06	5.100997e-06	9.534480e-09	3.595397e+01	6.230336e+02
2.630000e-06	5.074512e-06	9.446810e-09	3.576730e+01	6.218680e+02
2.640000e-06	5.047313e-06	9.390385e-09	3.557559e+01	6.206657e+02
2.650000e-06	5.019401e-06	9.541775e-09	3.537886e+01	6.193933e+02
2.660000e-06	4.990569e-06	9.351379e-09	3.517563e+01	6.180151e+02
2.670000e-06	4.960444e-06	9.306756e-09	3.496330e+01	6.165097e+02
2.680000e-06	4.929161e-06	9.441300e-09	3.474281e+01	6.148805e+02
2.690000e-06	4.897186e-06	9.343426e-09	3.451743e+01	6.131552e+02
2.700000e-06	4.864384e-06	9.326042e-09	3.428623e+01	6.113754e+02
2.710000e-06	4.830627e-06	9.288433e-09	3.404830e+01	6.095798e+02
2.720000e-06	4.796030e-06	9.214504e-09	3.380444e+01	6.077890e+02
2.730000e-06	4.760694e-06	9.245361e-09	3.355538e+01	6.059965e+02
2.740000e-06	4.724741e-06	9.213916e-09	3.330196e+01	6.041719e+02
2.750000e-06	4.687828e-06	9.185432e-09	3.304179e+01	6.022723e+02
2.760000e-06	4.649642e-06	9.145247e-09	3.277264e+01	6.002596e+02
2.770000e-06	4.610504e-06	9.111034e-09	3.249677e+01	5.981155e+02
2.780000e-06	4.570728e-06	9.109265e-09	3.221642e+01	5.958481e+02
2.790000e-06	4.530318e-06	9.026398e-09	3.193159e+01	5.934888e+02
2.800000e-06	4.489145e-06	8.996951e-09	3.164139e+01	5.910787e+02
2.810000e-06	4.447212e-06	8.980461e-09	3.134582e+01	5.886523e+02
2.820000e-06	4.404510e-06	8.942016e-09	3.104484e+01	5.862239e+02
2.830000e-06	4.361124e-06	8.927624e-09	3.073904e+01	5.837820e+02
2.840000e-06	4.317266e-06	8.840529e-09	3.042991e+01	5.812948e+02
2.850000e-06	4.272756e-06	8.802069e-09	3.011619e+01	5.787230e+02
2.860000e-06	4.227311e-06	8.791235e-09	2.979587e+01	5.760358e+02
2.870000e-06	4.180994e-06	8.747239e-09	2.946941e+01	5.732231e+02
2.880000e-06	4.134051e-06	8.716982e-09	2.913854e+01	5.702988e+02
2.890000e-06	4.086496e-06	8.643170e-09	2.880335e+01	5.672939e+02
2.900000e-06	4.038105e-06	8.602501e-09	2.846227e+01	5.642438e+02
2.910000e-06	3.988873e-06	8.569975e-09	2.811526e+01	5.611731e+02
2.920000e-06	3.938992e-06	8.507742e-09	2.776367e+01	5.580859e+02
2.930000e-06	3.888443e-06	8.456642e-09	2.740738e+01	5.549646e+02
2.940000e-06	3.837209e-06	8.408703e-09	2.704626e+01	5.517777e+02
