# Temperatura_=_20.0
# Concentracion g/m^3_=_10000.0
# C_Vs_to_Am_M_A/Vsm_=_65563218390.804596
# pendiente_HvsI_1/m_=_3716.3
# ordenada_HvsI_A/m_=_1297.0
# frecuencia_Hz_=_212876.05495791184

Tiempo_(s)	Campo_(V.s)	Magnetizacion_(V.s)	Campo_(kA/m)	Magnetizacion_(A/m)
0.000000e+00	-5.469800e-06	-9.749730e-09	-3.843468e+01	-6.354288e+02
1.000000e-08	-5.469569e-06	-9.751065e-09	-3.843305e+01	-6.354014e+02
2.000000e-08	-5.468373e-06	-9.754554e-09	-3.842465e+01	-6.352599e+02
3.000000e-08	-5.465838e-06	-9.753418e-09	-3.840684e+01	-6.350309e+02
4.000000e-08	-5.462246e-06	-9.747453e-09	-3.838160e+01	-6.347584e+02
5.000000e-08	-5.457933e-06	-9.741969e-09	-3.835129e+01	-6.344863e+02
6.000000e-08	-5.452803e-06	-9.734992e-09	-3.831524e+01	-6.342395e+02
7.000000e-08	-5.446774e-06	-9.715869e-09	-3.827288e+01	-6.340133e+02
8.000000e-08	-5.439822e-06	-9.679061e-09	-3.822403e+01	-6.337740e+02
9.000000e-08	-5.431955e-06	-9.724062e-09	-3.816875e+01	-6.334723e+02
1.000000e-07	-5.422991e-06	-9.811981e-09	-3.810576e+01	-6.330656e+02
1.100000e-07	-5.412442e-06	-9.821175e-09	-3.803164e+01	-6.325389e+02
1.200000e-07	-5.400669e-06	-9.642248e-09	-3.794891e+01	-6.319177e+02
1.300000e-07	-5.388250e-06	-9.505754e-09	-3.786165e+01	-6.312660e+02
1.400000e-07	-5.375026e-06	-9.758820e-09	-3.776873e+01	-6.306698e+02
1.500000e-07	-5.360769e-06	-9.832978e-09	-3.766855e+01	-6.302104e+02
1.600000e-07	-5.345559e-06	-9.493432e-09	-3.756167e+01	-6.299369e+02
1.700000e-07	-5.329262e-06	-9.604406e-09	-3.744716e+01	-6.298483e+02
1.800000e-07	-5.311695e-06	-9.852546e-09	-3.732372e+01	-6.298902e+02
1.900000e-07	-5.293355e-06	-9.561241e-09	-3.719485e+01	-6.299692e+02
2.000000e-07	-5.274394e-06	-9.598942e-09	-3.706161e+01	-6.299787e+02
2.100000e-07	-5.254565e-06	-9.808037e-09	-3.692228e+01	-6.298278e+02
2.200000e-07	-5.233947e-06	-9.514440e-09	-3.677740e+01	-6.294633e+02
2.300000e-07	-5.212514e-06	-9.533558e-09	-3.662681e+01	-6.288787e+02
2.400000e-07	-5.190074e-06	-9.768021e-09	-3.646912e+01	-6.281061e+02
2.500000e-07	-5.166674e-06	-9.560716e-09	-3.630470e+01	-6.271970e+02
2.600000e-07	-5.142473e-06	-9.485532e-09	-3.613465e+01	-6.261996e+02
2.700000e-07	-5.117345e-06	-9.585873e-09	-3.595808e+01	-6.251401e+02
2.800000e-07	-5.091170e-06	-9.501769e-09	-3.577416e+01	-6.240165e+02
2.900000e-07	-5.063957e-06	-9.521988e-09	-3.558294e+01	-6.228047e+02
3.000000e-07	-5.035747e-06	-9.505775e-09	-3.538471e+01	-6.214748e+02
3.100000e-07	-5.006673e-06	-9.397144e-09	-3.518042e+01	-6.200085e+02
3.200000e-07	-4.976825e-06	-9.480531e-09	-3.497069e+01	-6.184120e+02
3.300000e-07	-4.946107e-06	-9.476844e-09	-3.475484e+01	-6.167170e+02
3.400000e-07	-4.914511e-06	-9.347422e-09	-3.453283e+01	-6.149712e+02
3.500000e-07	-4.882239e-06	-9.330784e-09	-3.430606e+01	-6.132205e+02
3.600000e-07	-4.849240e-06	-9.329381e-09	-3.407418e+01	-6.114919e+02
3.700000e-07	-4.815132e-06	-9.309607e-09	-3.383452e+01	-6.097826e+02
3.800000e-07	-4.779826e-06	-9.294223e-09	-3.358643e+01	-6.080616e+02
3.900000e-07	-4.743655e-06	-9.252690e-09	-3.333227e+01	-6.062810e+02
4.000000e-07	-4.706734e-06	-9.196061e-09	-3.307284e+01	-6.043946e+02
4.100000e-07	-4.668993e-06	-9.193040e-09	-3.280764e+01	-6.023755e+02
4.200000e-07	-4.630385e-06	-9.197335e-09	-3.253636e+01	-6.002257e+02
4.300000e-07	-4.590976e-06	-9.112237e-09	-3.225944e+01	-5.979740e+02
4.400000e-07	-4.550971e-06	-9.060845e-09	-3.197834e+01	-5.956638e+02
4.500000e-07	-4.510333e-06	-9.053025e-09	-3.169279e+01	-5.933350e+02
4.600000e-07	-4.468715e-06	-9.022633e-09	-3.140035e+01	-5.910076e+02
4.700000e-07	-4.425927e-06	-8.990791e-09	-3.109969e+01	-5.886737e+02
4.800000e-07	-4.382239e-06	-8.933824e-09	-3.079271e+01	-5.863006e+02
4.900000e-07	-4.337949e-06	-8.898233e-09	-3.048149e+01	-5.838436e+02
5.000000e-07	-4.293002e-06	-8.885297e-09	-3.016566e+01	-5.812637e+02
5.100000e-07	-4.247295e-06	-8.846683e-09	-2.984449e+01	-5.785432e+02
5.200000e-07	-4.200844e-06	-8.779322e-09	-2.951810e+01	-5.756919e+02
5.300000e-07	-4.153687e-06	-8.710087e-09	-2.918674e+01	-5.727430e+02
5.400000e-07	-4.105914e-06	-8.679487e-09	-2.885105e+01	-5.697403e+02
5.500000e-07	-4.057495e-06	-8.650790e-09	-2.851082e+01	-5.667203e+02
5.600000e-07	-4.008175e-06	-8.601186e-09	-2.816427e+01	-5.636986e+02
5.700000e-07	-3.957869e-06	-8.543763e-09	-2.781078e+01	-5.606640e+02
5.800000e-07	-3.906558e-06	-8.499014e-09	-2.745024e+01	-5.575833e+02
5.900000e-07	-3.854324e-06	-8.475805e-09	-2.708320e+01	-5.544143e+02
6.000000e-07	-3.801333e-06	-8.417516e-09	-2.671085e+01	-5.511216e+02
6.100000e-07	-3.747698e-06	-8.337721e-09	-2.633398e+01	-5.476891e+02
6.200000e-07	-3.693355e-06	-8.282852e-09	-2.595212e+01	-5.441244e+02
6.300000e-07	-3.638336e-06	-8.245929e-09	-2.556552e+01	-5.404530e+02
6.400000e-07	-3.582804e-06	-8.197531e-09	-2.517531e+01	-5.367065e+02
6.500000e-07	-3.526736e-06	-8.121913e-09	-2.478134e+01	-5.329082e+02
6.600000e-07	-3.470098e-06	-8.053962e-09	-2.438336e+01	-5.290632e+02
6.700000e-07	-3.412711e-06	-8.003249e-09	-2.398012e+01	-5.251559e+02
6.800000e-07	-3.354425e-06	-7.955839e-09	-2.357056e+01	-5.211570e+02
6.900000e-07	-3.295379e-06	-7.891656e-09	-2.315566e+01	-5.170352e+02
7.000000e-07	-3.235722e-06	-7.811330e-09	-2.273647e+01	-5.127702e+02
7.100000e-07	-3.175537e-06	-7.745904e-09	-2.231357e+01	-5.083606e+02
7.200000e-07	-3.114892e-06	-7.684351e-09	-2.188743e+01	-5.038238e+02
7.300000e-07	-3.053765e-06	-7.609799e-09	-2.145791e+01	-4.991881e+02
7.400000e-07	-2.992135e-06	-7.522285e-09	-2.102485e+01	-4.944810e+02
7.500000e-07	-2.929904e-06	-7.442349e-09	-2.058757e+01	-4.897170e+02
7.600000e-07	-2.867096e-06	-7.383810e-09	-2.014624e+01	-4.848916e+02
7.700000e-07	-2.803889e-06	-7.318085e-09	-1.970211e+01	-4.799829e+02
7.800000e-07	-2.740338e-06	-7.235341e-09	-1.925555e+01	-4.749603e+02
7.900000e-07	-2.676345e-06	-7.145849e-09	-1.880589e+01	-4.697962e+02
8.000000e-07	-2.611900e-06	-7.065863e-09	-1.835305e+01	-4.644767e+02
8.100000e-07	-2.547013e-06	-6.989071e-09	-1.789711e+01	-4.590063e+02
8.200000e-07	-2.481668e-06	-6.894301e-09	-1.743795e+01	-4.534047e+02
8.300000e-07	-2.415797e-06	-6.796143e-09	-1.697510e+01	-4.476981e+02
8.400000e-07	-2.349264e-06	-6.708987e-09	-1.650759e+01	-4.419075e+02
8.500000e-07	-2.282231e-06	-6.630677e-09	-1.603656e+01	-4.360399e+02
8.600000e-07	-2.214881e-06	-6.543562e-09	-1.556332e+01	-4.300850e+02
8.700000e-07	-2.147186e-06	-6.442615e-09	-1.508765e+01	-4.240194e+02
8.800000e-07	-2.079195e-06	-6.346463e-09	-1.460989e+01	-4.178159e+02
8.900000e-07	-2.010975e-06	-6.255441e-09	-1.413053e+01	-4.114540e+02
9.000000e-07	-1.942461e-06	-6.158534e-09	-1.364911e+01	-4.049273e+02
9.100000e-07	-1.873652e-06	-6.046832e-09	-1.316560e+01	-3.982445e+02
9.200000e-07	-1.804551e-06	-5.933208e-09	-1.268005e+01	-3.914240e+02
9.300000e-07	-1.735206e-06	-5.830846e-09	-1.219278e+01	-3.844840e+02
9.400000e-07	-1.665599e-06	-5.728967e-09	-1.170367e+01	-3.774330e+02
9.500000e-07	-1.595660e-06	-5.618742e-09	-1.121223e+01	-3.702640e+02
9.600000e-07	-1.525391e-06	-5.501211e-09	-1.071848e+01	-3.629551e+02
9.700000e-07	-1.454840e-06	-5.389753e-09	-1.022273e+01	-3.554764e+02
9.800000e-07	-1.384022e-06	-5.281122e-09	-9.725114e+00	-3.478009e+02
9.900000e-07	-1.312907e-06	-5.160668e-09	-9.225409e+00	-3.399131e+02
1.000000e-06	-1.241574e-06	-5.029105e-09	-8.724176e+00	-3.318146e+02
1.010000e-06	-1.170107e-06	-4.895572e-09	-8.221997e+00	-3.235216e+02
1.020000e-06	-1.098511e-06	-4.769870e-09	-7.718911e+00	-3.150577e+02
1.030000e-06	-1.026732e-06	-4.642399e-09	-7.214544e+00	-3.064431e+02
1.040000e-06	-9.547838e-07	-4.504173e-09	-6.708985e+00	-2.976855e+02
1.050000e-06	-8.826677e-07	-4.363492e-09	-6.202246e+00	-2.887767e+02
1.060000e-06	-8.103922e-07	-4.225266e-09	-5.694388e+00	-2.796942e+02
1.070000e-06	-7.379588e-07	-4.088840e-09	-5.185420e+00	-2.704092e+02
1.080000e-06	-6.653375e-07	-3.942447e-09	-4.675131e+00	-2.608964e+02
1.090000e-06	-5.925957e-07	-3.785531e-09	-4.163996e+00	-2.511413e+02
1.100000e-06	-5.197583e-07	-3.630152e-09	-3.652189e+00	-2.411434e+02
1.110000e-06	-4.467536e-07	-3.475335e-09	-3.139206e+00	-2.309128e+02
1.120000e-06	-3.736043e-07	-3.314941e-09	-2.625207e+00	-2.204629e+02
1.130000e-06	-3.003460e-07	-3.145146e-09	-2.110443e+00	-2.098019e+02
1.140000e-06	-2.270012e-07	-2.974939e-09	-1.595071e+00	-1.989271e+02
1.150000e-06	-1.536481e-07	-2.808854e-09	-1.079640e+00	-1.878236e+02
1.160000e-06	-8.034645e-08	-2.639557e-09	-5.645709e-01	-1.764689e+02
1.170000e-06	-7.060830e-09	-2.461189e-09	-4.961437e-02	-1.648406e+02
1.180000e-06	6.627327e-08	-2.274280e-09	4.656828e-01	-1.529241e+02
1.190000e-06	1.396141e-07	-2.086200e-09	9.810273e-01	-1.407170e+02
1.200000e-06	2.127751e-07	-1.895721e-09	1.495108e+00	-1.282287e+02
1.210000e-06	2.858260e-07	-1.698524e-09	2.008415e+00	-1.154749e+02
1.220000e-06	3.588789e-07	-1.496389e-09	2.521737e+00	-1.024696e+02
1.230000e-06	4.317975e-07	-1.291946e-09	3.034114e+00	-8.921845e+01
1.240000e-06	5.045498e-07	-1.088792e-09	3.545323e+00	-7.571572e+01
1.250000e-06	5.771873e-07	-8.816164e-10	4.055725e+00	-6.194657e+01
1.260000e-06	6.497167e-07	-6.668751e-10	4.565368e+00	-4.789379e+01
1.270000e-06	7.220715e-07	-4.481461e-10	5.073784e+00	-3.354637e+01
1.280000e-06	7.942790e-07	-2.259927e-10	5.581165e+00	-1.890636e+01
1.290000e-06	8.663372e-07	-9.498978e-14	6.087497e+00	-3.991593e+00
1.300000e-06	9.382579e-07	2.335393e-10	6.592863e+00	1.116689e+01
1.310000e-06	1.010080e-06	4.727268e-10	7.097533e+00	2.653128e+01
1.320000e-06	1.081776e-06	7.107830e-10	7.601325e+00	4.206471e+01
1.330000e-06	1.153284e-06	9.479904e-10	8.103787e+00	5.773688e+01
1.340000e-06	1.224581e-06	1.186880e-09	8.604768e+00	7.352548e+01
1.350000e-06	1.295732e-06	1.429301e-09	9.104725e+00	8.941282e+01
1.360000e-06	1.366714e-06	1.671164e-09	9.603499e+00	1.053793e+02
1.370000e-06	1.437460e-06	1.911748e-09	1.010061e+01	1.213966e+02
1.380000e-06	1.507924e-06	2.154716e-09	1.059574e+01	1.374235e+02
1.390000e-06	1.578163e-06	2.399532e-09	1.108929e+01	1.534061e+02
1.400000e-06	1.648144e-06	2.644349e-09	1.158102e+01	1.692832e+02
1.410000e-06	1.717773e-06	2.884102e-09	1.207028e+01	1.849933e+02
1.420000e-06	1.787117e-06	3.119153e-09	1.255754e+01	2.004826e+02
1.430000e-06	1.856218e-06	3.350326e-09	1.304309e+01	2.157098e+02
1.440000e-06	1.925040e-06	3.575455e-09	1.352669e+01	2.306458e+02
1.450000e-06	1.993600e-06	3.793701e-09	1.400844e+01	2.452713e+02
1.460000e-06	2.061878e-06	4.006298e-09	1.448821e+01	2.595701e+02
1.470000e-06	2.129829e-06	4.217786e-09	1.496568e+01	2.735250e+02
1.480000e-06	2.197441e-06	4.427553e-09	1.544077e+01	2.871155e+02
1.490000e-06	2.264643e-06	4.630298e-09	1.591298e+01	3.003192e+02
1.500000e-06	2.331396e-06	4.823434e-09	1.638203e+01	3.131166e+02
1.510000e-06	2.397684e-06	5.007590e-09	1.684782e+01	3.254963e+02
1.520000e-06	2.463390e-06	5.186135e-09	1.730952e+01	3.374586e+02
1.530000e-06	2.528488e-06	5.360021e-09	1.776694e+01	3.490157e+02
1.540000e-06	2.593095e-06	5.528255e-09	1.822091e+01	3.601878e+02
1.550000e-06	2.657261e-06	5.690195e-09	1.867179e+01	3.709968e+02
1.560000e-06	2.721006e-06	5.847629e-09	1.911971e+01	3.814597e+02
1.570000e-06	2.784341e-06	6.003102e-09	1.956474e+01	3.915843e+02
1.580000e-06	2.847210e-06	6.154034e-09	2.000651e+01	4.013686e+02
1.590000e-06	2.909581e-06	6.297981e-09	2.044477e+01	4.108041e+02
1.600000e-06	2.971427e-06	6.436657e-09	2.087934e+01	4.198814e+02
1.610000e-06	3.032772e-06	6.572412e-09	2.131039e+01	4.285959e+02
1.620000e-06	3.093611e-06	6.702642e-09	2.173790e+01	4.369515e+02
1.630000e-06	3.153992e-06	6.822728e-09	2.216218e+01	4.449609e+02
1.640000e-06	3.213975e-06	6.934824e-09	2.258366e+01	4.526427e+02
1.650000e-06	3.273453e-06	7.042920e-09	2.300159e+01	4.600171e+02
1.660000e-06	3.332216e-06	7.148177e-09	2.341450e+01	4.671018e+02
1.670000e-06	3.390158e-06	7.250364e-09	2.382164e+01	4.739101e+02
1.680000e-06	3.447302e-06	7.348394e-09	2.422318e+01	4.804515e+02
1.690000e-06	3.503746e-06	7.444227e-09	2.461979e+01	4.867342e+02
1.700000e-06	3.559635e-06	7.537164e-09	2.501251e+01	4.927692e+02
1.710000e-06	3.615033e-06	7.624366e-09	2.540177e+01	4.985715e+02
1.720000e-06	3.669860e-06	7.706269e-09	2.578703e+01	5.041607e+02
1.730000e-06	3.724062e-06	7.784736e-09	2.616789e+01	5.095583e+02
1.740000e-06	3.777647e-06	7.862361e-09	2.654441e+01	5.147840e+02
1.750000e-06	3.830549e-06	7.939197e-09	2.691614e+01	5.198521e+02
1.760000e-06	3.882758e-06	8.014305e-09	2.728300e+01	5.247700e+02
1.770000e-06	3.934220e-06	8.086358e-09	2.764461e+01	5.295393e+02
1.780000e-06	3.984704e-06	8.155465e-09	2.799934e+01	5.341584e+02
1.790000e-06	4.034153e-06	8.223497e-09	2.834681e+01	5.386265e+02
1.800000e-06	4.082742e-06	8.288923e-09	2.868823e+01	5.429461e+02
1.810000e-06	4.130620e-06	8.350278e-09	2.902465e+01	5.471241e+02
1.820000e-06	4.177839e-06	8.408060e-09	2.935644e+01	5.511698e+02
1.830000e-06	4.224368e-06	8.465616e-09	2.968339e+01	5.550920e+02
1.840000e-06	4.270182e-06	8.523042e-09	3.000531e+01	5.588963e+02
1.850000e-06	4.315283e-06	8.576846e-09	3.032222e+01	5.625833e+02
1.860000e-06	4.359761e-06	8.627475e-09	3.063476e+01	5.661496e+02
1.870000e-06	4.403662e-06	8.677419e-09	3.094324e+01	5.695905e+02
1.880000e-06	4.446857e-06	8.726517e-09	3.124676e+01	5.729031e+02
1.890000e-06	4.489022e-06	8.772680e-09	3.154304e+01	5.760888e+02
1.900000e-06	4.530074e-06	8.815388e-09	3.183150e+01	5.791534e+02
1.910000e-06	4.570256e-06	8.857098e-09	3.211384e+01	5.821053e+02
1.920000e-06	4.609679e-06	8.897987e-09	3.239086e+01	5.849523e+02
1.930000e-06	4.648365e-06	8.935717e-09	3.266269e+01	5.876982e+02
1.940000e-06	4.686322e-06	8.971158e-09	3.292941e+01	5.903422e+02
1.950000e-06	4.723456e-06	9.006694e-09	3.319034e+01	5.928807e+02
1.960000e-06	4.759856e-06	9.041133e-09	3.344611e+01	5.953100e+02
1.970000e-06	4.795686e-06	9.073055e-09	3.369788e+01	5.976312e+02
1.980000e-06	4.830632e-06	9.103201e-09	3.394343e+01	5.998519e+02
1.990000e-06	4.864323e-06	9.132614e-09	3.418017e+01	6.019856e+02
2.000000e-06	4.896963e-06	9.162913e-09	3.440952e+01	6.040478e+02
2.010000e-06	4.928840e-06	9.193193e-09	3.463351e+01	6.060497e+02
2.020000e-06	4.959945e-06	9.221546e-09	3.485207e+01	6.079936e+02
2.030000e-06	4.990264e-06	9.248548e-09	3.506512e+01	6.098709e+02
2.040000e-06	5.019707e-06	9.274694e-09	3.527200e+01	6.116643e+02
2.050000e-06	5.048286e-06	9.298556e-09	3.547282e+01	6.133553e+02
2.060000e-06	5.076232e-06	9.319671e-09	3.566919e+01	6.149324e+02
2.070000e-06	5.103375e-06	9.338357e-09	3.585991e+01	6.163979e+02
2.080000e-06	5.129299e-06	9.358101e-09	3.604208e+01	6.177699e+02
2.090000e-06	5.154055e-06	9.378480e-09	3.621603e+01	6.190781e+02
2.100000e-06	5.177939e-06	9.398390e-09	3.638385e+01	6.203545e+02
2.110000e-06	5.201003e-06	9.417512e-09	3.654592e+01	6.216216e+02
2.120000e-06	5.223170e-06	9.435495e-09	3.670168e+01	6.228840e+02
2.130000e-06	5.244441e-06	9.453903e-09	3.685115e+01	6.241255e+02
2.140000e-06	5.264933e-06	9.469165e-09	3.699514e+01	6.253142e+02
2.150000e-06	5.284756e-06	9.482089e-09	3.713442e+01	6.264140e+02
2.160000e-06	5.303705e-06	9.496271e-09	3.726758e+01	6.273984e+02
2.170000e-06	5.321610e-06	9.510500e-09	3.739339e+01	6.282609e+02
2.180000e-06	5.338651e-06	9.522717e-09	3.751313e+01	6.290188e+02
2.190000e-06	5.354773e-06	9.532800e-09	3.762641e+01	6.297074e+02
2.200000e-06	5.369775e-06	9.543284e-09	3.773183e+01	6.303678e+02
2.210000e-06	5.383789e-06	9.554339e-09	3.783031e+01	6.310315e+02
2.220000e-06	5.396874e-06	9.565014e-09	3.792224e+01	6.317088e+02
2.230000e-06	5.408986e-06	9.574603e-09	3.800735e+01	6.323851e+02
2.240000e-06	5.419999e-06	9.582913e-09	3.808474e+01	6.330268e+02
2.250000e-06	5.429695e-06	9.590874e-09	3.815287e+01	6.335947e+02
2.260000e-06	5.438236e-06	9.597708e-09	3.821288e+01	6.340600e+02
2.270000e-06	5.445914e-06	9.603700e-09	3.826684e+01	6.344158e+02
2.280000e-06	5.452693e-06	9.610386e-09	3.831447e+01	6.346803e+02
2.290000e-06	5.458467e-06	9.618678e-09	3.835504e+01	6.348898e+02
2.300000e-06	5.463333e-06	9.626656e-09	3.838924e+01	6.350842e+02
2.310000e-06	5.467463e-06	9.630471e-09	3.841825e+01	6.352905e+02
2.320000e-06	5.470731e-06	9.629882e-09	3.844122e+01	6.355116e+02
2.330000e-06	5.472699e-06	9.629514e-09	3.845505e+01	6.357246e+02
2.340000e-06	5.473404e-06	9.631244e-09	3.846000e+01	6.358892e+02
2.350000e-06	5.473260e-06	9.634578e-09	3.845899e+01	6.359645e+02
2.360000e-06	5.472298e-06	9.638067e-09	3.845223e+01	6.359253e+02
2.370000e-06	5.470419e-06	9.636701e-09	3.843903e+01	6.357735e+02
2.380000e-06	5.467665e-06	9.633854e-09	3.841968e+01	6.355380e+02
2.390000e-06	5.464149e-06	9.629669e-09	3.839497e+01	6.352639e+02
2.400000e-06	5.459975e-06	9.622335e-09	3.836564e+01	6.349937e+02
2.410000e-06	5.454883e-06	9.619625e-09	3.832986e+01	6.347498e+02
2.420000e-06	5.448605e-06	9.653451e-09	3.828574e+01	6.345243e+02
2.430000e-06	5.441269e-06	9.655237e-09	3.823420e+01	6.342810e+02
2.440000e-06	5.433021e-06	9.534706e-09	3.817624e+01	6.339706e+02
2.450000e-06	5.423563e-06	9.459249e-09	3.810978e+01	6.335520e+02
2.460000e-06	5.412602e-06	9.592629e-09	3.803277e+01	6.330140e+02
2.470000e-06	5.400695e-06	9.792646e-09	3.794910e+01	6.323864e+02
2.480000e-06	5.388561e-06	9.595750e-09	3.786383e+01	6.317364e+02
2.490000e-06	5.375741e-06	9.325994e-09	3.777375e+01	6.311506e+02
2.500000e-06	5.361302e-06	9.662731e-09	3.767229e+01	6.307084e+02
2.510000e-06	5.345652e-06	9.714087e-09	3.756232e+01	6.304544e+02
2.520000e-06	5.329478e-06	9.339551e-09	3.744868e+01	6.303821e+02
2.530000e-06	5.312278e-06	9.591580e-09	3.732781e+01	6.304324e+02
2.540000e-06	5.294021e-06	9.749334e-09	3.719953e+01	6.305094e+02
2.550000e-06	5.275183e-06	9.379928e-09	3.706716e+01	6.305065e+02
2.560000e-06	5.255515e-06	9.583697e-09	3.692896e+01	6.303359e+02
2.570000e-06	5.235016e-06	9.780619e-09	3.678492e+01	6.299491e+02
2.580000e-06	5.213632e-06	9.399223e-09	3.663466e+01	6.293438e+02
2.590000e-06	5.190907e-06	9.525352e-09	3.647498e+01	6.285551e+02
2.600000e-06	5.167145e-06	9.674115e-09	3.630801e+01	6.276354e+02
2.610000e-06	5.142725e-06	9.469284e-09	3.613642e+01	6.266311e+02
2.620000e-06	5.117235e-06	9.594869e-09	3.595731e+01	6.255658e+02
2.630000e-06	5.090745e-06	9.512069e-09	3.577117e+01	6.244347e+02
2.640000e-06	5.063559e-06	9.420998e-09	3.558014e+01	6.232125e+02
2.650000e-06	5.035552e-06	9.614021e-09	3.538335e+01	6.218695e+02
2.660000e-06	5.006603e-06	9.403344e-09	3.517993e+01	6.203896e+02
2.670000e-06	4.976390e-06	9.319842e-09	3.496763e+01	6.187814e+02
2.680000e-06	4.944995e-06	9.482423e-09	3.474703e+01	6.170792e+02
2.690000e-06	4.912882e-06	9.385628e-09	3.452138e+01	6.153311e+02
2.700000e-06	4.879925e-06	9.366659e-09	3.428980e+01	6.135819e+02
2.710000e-06	4.846050e-06	9.340469e-09	3.405177e+01	6.118559e+02
2.720000e-06	4.811408e-06	9.262513e-09	3.380835e+01	6.101474e+02
2.730000e-06	4.776004e-06	9.289225e-09	3.355957e+01	6.084227e+02
2.740000e-06	4.739927e-06	9.248756e-09	3.330607e+01	6.066334e+02
2.750000e-06	4.702846e-06	9.228273e-09	3.304552e+01	6.047346e+02
2.760000e-06	4.664542e-06	9.183960e-09	3.277636e+01	6.027020e+02
2.770000e-06	4.625301e-06	9.142705e-09	3.250063e+01	6.005404e+02
2.780000e-06	4.585388e-06	9.162134e-09	3.222017e+01	5.982809e+02
2.790000e-06	4.544798e-06	9.070887e-09	3.193496e+01	5.959673e+02
2.800000e-06	4.503459e-06	9.038207e-09	3.164448e+01	5.936382e+02
2.810000e-06	4.461395e-06	9.021486e-09	3.134891e+01	5.913110e+02
2.820000e-06	4.418599e-06	8.974129e-09	3.104820e+01	5.889751e+02
2.830000e-06	4.375138e-06	8.981396e-09	3.074281e+01	5.865957e+02
2.840000e-06	4.331113e-06	8.890699e-09	3.043346e+01	5.841280e+02
2.850000e-06	4.286370e-06	8.840848e-09	3.011906e+01	5.815345e+02
2.860000e-06	4.240785e-06	8.831652e-09	2.979875e+01	5.788001e+02
2.870000e-06	4.194460e-06	8.785933e-09	2.947324e+01	5.759373e+02
2.880000e-06	4.147497e-06	8.763609e-09	2.914324e+01	5.729811e+02
2.890000e-06	4.099891e-06	8.683044e-09	2.880873e+01	5.699753e+02
2.900000e-06	4.051432e-06	8.641601e-09	2.846822e+01	5.669549e+02
2.910000e-06	4.002114e-06	8.615947e-09	2.812168e+01	5.639330e+02
2.920000e-06	3.952064e-06	8.556771e-09	2.776999e+01	5.608956e+02
2.930000e-06	3.901360e-06	8.503303e-09	2.741371e+01	5.578080e+02
2.940000e-06	3.850030e-06	8.441092e-09	2.705303e+01	5.546281e+02
