# Temperatura_=_20.0
# Concentracion g/m^3_=_10000.0
# C_Vs_to_Am_M_A/Vsm_=_65563218390.804596
# pendiente_HvsI_1/m_=_3716.3
# ordenada_HvsI_A/m_=_1297.0
# frecuencia_Hz_=_212859.39709667474

Tiempo_(s)	Campo_(V.s)	Magnetizacion_(V.s)	Campo_(kA/m)	Magnetizacion_(A/m)
0.000000e+00	-5.423667e-06	-9.771295e-09	-3.843169e+01	-6.364013e+02
1.000000e-08	-5.422846e-06	-9.772926e-09	-3.842587e+01	-6.363721e+02
2.000000e-08	-5.420915e-06	-9.772321e-09	-3.841218e+01	-6.362366e+02
3.000000e-08	-5.417671e-06	-9.767706e-09	-3.838920e+01	-6.360060e+02
4.000000e-08	-5.413542e-06	-9.763027e-09	-3.835994e+01	-6.357109e+02
5.000000e-08	-5.408677e-06	-9.757113e-09	-3.832546e+01	-6.353886e+02
6.000000e-08	-5.402953e-06	-9.745271e-09	-3.828491e+01	-6.350680e+02
7.000000e-08	-5.396291e-06	-9.715562e-09	-3.823770e+01	-6.347579e+02
8.000000e-08	-5.388698e-06	-9.729694e-09	-3.818390e+01	-6.344441e+02
9.000000e-08	-5.380198e-06	-9.803140e-09	-3.812367e+01	-6.340964e+02
1.000000e-07	-5.370365e-06	-9.827503e-09	-3.805399e+01	-6.336823e+02
1.100000e-07	-5.359090e-06	-9.709987e-09	-3.797409e+01	-6.331820e+02
1.200000e-07	-5.346971e-06	-9.545394e-09	-3.788822e+01	-6.325984e+02
1.300000e-07	-5.334158e-06	-9.690072e-09	-3.779743e+01	-6.319575e+02
1.400000e-07	-5.320383e-06	-9.867253e-09	-3.769982e+01	-6.312993e+02
1.500000e-07	-5.305762e-06	-9.588339e-09	-3.759621e+01	-6.306621e+02
1.600000e-07	-5.290131e-06	-9.560521e-09	-3.748546e+01	-6.300671e+02
1.700000e-07	-5.273068e-06	-9.793846e-09	-3.736455e+01	-6.295081e+02
1.800000e-07	-5.255002e-06	-9.600754e-09	-3.723654e+01	-6.289522e+02
1.900000e-07	-5.236413e-06	-9.519164e-09	-3.710482e+01	-6.283504e+02
2.000000e-07	-5.217026e-06	-9.716680e-09	-3.696744e+01	-6.276530e+02
2.100000e-07	-5.196777e-06	-9.550492e-09	-3.682396e+01	-6.268268e+02
2.200000e-07	-5.175746e-06	-9.438658e-09	-3.667493e+01	-6.258641e+02
2.300000e-07	-5.153788e-06	-9.675253e-09	-3.651934e+01	-6.247829e+02
2.400000e-07	-5.130923e-06	-9.572504e-09	-3.635732e+01	-6.236177e+02
2.500000e-07	-5.107220e-06	-9.425290e-09	-3.618937e+01	-6.224043e+02
2.600000e-07	-5.082687e-06	-9.503402e-09	-3.601552e+01	-6.211662e+02
2.700000e-07	-5.057231e-06	-9.462865e-09	-3.583515e+01	-6.199070e+02
2.800000e-07	-5.030689e-06	-9.458403e-09	-3.564707e+01	-6.186108e+02
2.900000e-07	-5.003015e-06	-9.440674e-09	-3.545098e+01	-6.172522e+02
3.000000e-07	-4.974381e-06	-9.344758e-09	-3.524808e+01	-6.158088e+02
3.100000e-07	-4.944903e-06	-9.391745e-09	-3.503920e+01	-6.142718e+02
3.200000e-07	-4.914582e-06	-9.401513e-09	-3.482435e+01	-6.126507e+02
3.300000e-07	-4.883434e-06	-9.296341e-09	-3.460363e+01	-6.109689e+02
3.400000e-07	-4.851485e-06	-9.266324e-09	-3.437724e+01	-6.092533e+02
3.500000e-07	-4.818835e-06	-9.263796e-09	-3.414589e+01	-6.075221e+02
3.600000e-07	-4.785428e-06	-9.240516e-09	-3.390917e+01	-6.057756e+02
3.700000e-07	-4.750951e-06	-9.236420e-09	-3.366487e+01	-6.039954e+02
3.800000e-07	-4.715307e-06	-9.189239e-09	-3.341230e+01	-6.021509e+02
3.900000e-07	-4.678792e-06	-9.114125e-09	-3.315356e+01	-6.002116e+02
4.000000e-07	-4.641558e-06	-9.118966e-09	-3.288972e+01	-5.981591e+02
4.100000e-07	-4.603523e-06	-9.116282e-09	-3.262020e+01	-5.959954e+02
4.200000e-07	-4.564615e-06	-9.043834e-09	-3.234451e+01	-5.937416e+02
4.300000e-07	-4.524909e-06	-8.989740e-09	-3.206316e+01	-5.914302e+02
4.400000e-07	-4.484667e-06	-8.977196e-09	-3.177800e+01	-5.890912e+02
4.500000e-07	-4.443860e-06	-8.957602e-09	-3.148885e+01	-5.867409e+02
4.600000e-07	-4.402071e-06	-8.912968e-09	-3.119273e+01	-5.843747e+02
4.700000e-07	-4.359138e-06	-8.861298e-09	-3.088851e+01	-5.819697e+02
4.800000e-07	-4.315321e-06	-8.822135e-09	-3.057803e+01	-5.794934e+02
4.900000e-07	-4.270877e-06	-8.806172e-09	-3.026310e+01	-5.769176e+02
5.000000e-07	-4.225816e-06	-8.770140e-09	-2.994381e+01	-5.742287e+02
5.100000e-07	-4.180027e-06	-8.701742e-09	-2.961935e+01	-5.714326e+02
5.200000e-07	-4.133569e-06	-8.646456e-09	-2.929015e+01	-5.685518e+02
5.300000e-07	-4.086434e-06	-8.606472e-09	-2.895616e+01	-5.656143e+02
5.400000e-07	-4.038511e-06	-8.576730e-09	-2.861658e+01	-5.626422e+02
5.500000e-07	-3.989894e-06	-8.533545e-09	-2.827208e+01	-5.596412e+02
5.600000e-07	-3.940507e-06	-8.472359e-09	-2.792213e+01	-5.565986e+02
5.700000e-07	-3.890081e-06	-8.430273e-09	-2.756481e+01	-5.534883e+02
5.800000e-07	-3.838611e-06	-8.397344e-09	-2.720010e+01	-5.502814e+02
5.900000e-07	-3.786319e-06	-8.345603e-09	-2.682956e+01	-5.469577e+02
6.000000e-07	-3.733281e-06	-8.271548e-09	-2.645374e+01	-5.435137e+02
6.100000e-07	-3.679543e-06	-8.211944e-09	-2.607295e+01	-5.399627e+02
6.200000e-07	-3.625224e-06	-8.176265e-09	-2.568806e+01	-5.363275e+02
6.300000e-07	-3.570295e-06	-8.125464e-09	-2.529883e+01	-5.326296e+02
6.400000e-07	-3.514765e-06	-8.056290e-09	-2.490535e+01	-5.288786e+02
6.500000e-07	-3.458726e-06	-7.985436e-09	-2.450826e+01	-5.250667e+02
6.600000e-07	-3.402156e-06	-7.933211e-09	-2.410741e+01	-5.211711e+02
6.700000e-07	-3.344995e-06	-7.887070e-09	-2.370237e+01	-5.171635e+02
6.800000e-07	-3.287081e-06	-7.817665e-09	-2.329200e+01	-5.130219e+02
6.900000e-07	-3.228182e-06	-7.741972e-09	-2.287465e+01	-5.087403e+02
7.000000e-07	-3.168415e-06	-7.674055e-09	-2.245114e+01	-5.043317e+02
7.100000e-07	-3.108166e-06	-7.611257e-09	-2.202422e+01	-4.998231e+02
7.200000e-07	-3.047586e-06	-7.536797e-09	-2.159496e+01	-4.952442e+02
7.300000e-07	-2.986557e-06	-7.450206e-09	-2.116251e+01	-4.906139e+02
7.400000e-07	-2.924991e-06	-7.376269e-09	-2.072626e+01	-4.859314e+02
7.500000e-07	-2.862877e-06	-7.314716e-09	-2.028613e+01	-4.811748e+02
7.600000e-07	-2.800280e-06	-7.250259e-09	-1.984257e+01	-4.763082e+02
7.700000e-07	-2.737253e-06	-7.168143e-09	-1.939597e+01	-4.712952e+02
7.800000e-07	-2.673739e-06	-7.079013e-09	-1.894591e+01	-4.661129e+02
7.900000e-07	-2.609769e-06	-6.999572e-09	-1.849262e+01	-4.607607e+02
8.000000e-07	-2.545485e-06	-6.918634e-09	-1.803711e+01	-4.552602e+02
8.100000e-07	-2.480962e-06	-6.828567e-09	-1.757991e+01	-4.496467e+02
8.200000e-07	-2.416095e-06	-6.732406e-09	-1.712026e+01	-4.439544e+02
8.300000e-07	-2.350715e-06	-6.646189e-09	-1.665698e+01	-4.382027e+02
8.400000e-07	-2.284772e-06	-6.569327e-09	-1.618972e+01	-4.323873e+02
8.500000e-07	-2.218297e-06	-6.481451e-09	-1.571868e+01	-4.264817e+02
8.600000e-07	-2.151293e-06	-6.382193e-09	-1.524390e+01	-4.204471e+02
8.700000e-07	-2.083822e-06	-6.280950e-09	-1.476580e+01	-4.142471e+02
8.800000e-07	-2.016029e-06	-6.186559e-09	-1.428543e+01	-4.078613e+02
8.900000e-07	-1.947964e-06	-6.089140e-09	-1.380312e+01	-4.012931e+02
9.000000e-07	-1.879707e-06	-5.977569e-09	-1.331946e+01	-3.945664e+02
9.100000e-07	-1.811260e-06	-5.865205e-09	-1.283445e+01	-3.877152e+02
9.200000e-07	-1.742538e-06	-5.760889e-09	-1.234749e+01	-3.807682e+02
9.300000e-07	-1.673569e-06	-5.659484e-09	-1.185878e+01	-3.737361e+02
9.400000e-07	-1.604338e-06	-5.549318e-09	-1.136821e+01	-3.666051e+02
9.500000e-07	-1.534808e-06	-5.432251e-09	-1.087553e+01	-3.593414e+02
9.600000e-07	-1.464971e-06	-5.321752e-09	-1.038067e+01	-3.519028e+02
9.700000e-07	-1.394853e-06	-5.212022e-09	-9.883822e+00	-3.442533e+02
9.800000e-07	-1.324492e-06	-5.094111e-09	-9.385250e+00	-3.363760e+02
9.900000e-07	-1.253860e-06	-4.963922e-09	-8.884758e+00	-3.282773e+02
1.000000e-06	-1.182976e-06	-4.830335e-09	-8.382476e+00	-3.199821e+02
1.010000e-06	-1.111870e-06	-4.703950e-09	-7.878627e+00	-3.115219e+02
1.020000e-06	-1.040532e-06	-4.576416e-09	-7.373126e+00	-3.029208e+02
1.030000e-06	-9.689441e-07	-4.440926e-09	-6.865863e+00	-2.941841e+02
1.040000e-06	-8.972028e-07	-4.300732e-09	-6.357509e+00	-2.852961e+02
1.050000e-06	-8.253526e-07	-4.163511e-09	-5.848385e+00	-2.762250e+02
1.060000e-06	-7.533482e-07	-4.025889e-09	-5.338167e+00	-2.669353e+02
1.070000e-06	-6.812389e-07	-3.878172e-09	-4.827206e+00	-2.574002e+02
1.080000e-06	-6.090842e-07	-3.721572e-09	-4.315923e+00	-2.476104e+02
1.090000e-06	-5.368588e-07	-3.562529e-09	-3.804140e+00	-2.375745e+02
1.100000e-06	-4.645489e-07	-3.406228e-09	-3.291758e+00	-2.273126e+02
1.110000e-06	-3.921890e-07	-3.247341e-09	-2.779021e+00	-2.168444e+02
1.120000e-06	-3.197608e-07	-3.081061e-09	-2.265800e+00	-2.061784e+02
1.130000e-06	-2.472413e-07	-2.913293e-09	-1.751933e+00	-1.953062e+02
1.140000e-06	-1.747012e-07	-2.746552e-09	-1.237919e+00	-1.842042e+02
1.150000e-06	-1.022134e-07	-2.577365e-09	-7.242764e-01	-1.728425e+02
1.160000e-06	-2.977545e-08	-2.397306e-09	-2.109866e-01	-1.611959e+02
1.170000e-06	4.267047e-08	-2.208917e-09	3.023597e-01	-1.492538e+02
1.180000e-06	1.151687e-07	-2.019888e-09	8.160768e-01	-1.370228e+02
1.190000e-06	1.876457e-07	-1.828444e-09	1.329643e+00	-1.245220e+02
1.200000e-06	2.600406e-07	-1.633246e-09	1.842628e+00	-1.117730e+02
1.210000e-06	3.323527e-07	-1.433589e-09	2.355026e+00	-9.878782e+01
1.220000e-06	4.045869e-07	-1.232455e-09	2.866871e+00	-8.556228e+01
1.230000e-06	4.767416e-07	-1.030170e-09	3.378154e+00	-7.207563e+01
1.240000e-06	5.488531e-07	-8.216038e-10	3.889130e+00	-5.829886e+01
1.250000e-06	6.209230e-07	-6.033964e-10	4.399812e+00	-4.420751e+01
1.260000e-06	6.929150e-07	-3.787293e-10	4.909942e+00	-2.979414e+01
1.270000e-06	7.647748e-07	-1.542607e-10	5.419135e+00	-1.507504e+01
1.280000e-06	8.365087e-07	7.240553e-11	5.927436e+00	-8.843235e-02
1.290000e-06	9.081269e-07	3.039147e-10	6.434917e+00	1.511555e+01
1.300000e-06	9.795888e-07	5.399602e-10	6.941290e+00	3.048880e+01
1.310000e-06	1.050794e-06	7.763078e-10	7.445847e+00	4.599742e+01
1.320000e-06	1.121777e-06	1.010371e-09	7.948823e+00	6.162698e+01
1.330000e-06	1.192670e-06	1.246886e-09	8.451165e+00	7.737830e+01
1.340000e-06	1.263376e-06	1.488523e-09	8.952187e+00	9.325539e+01
1.350000e-06	1.333860e-06	1.733035e-09	9.451626e+00	1.092503e+02
1.360000e-06	1.404096e-06	1.977624e-09	9.949316e+00	1.253314e+02
1.370000e-06	1.474057e-06	2.221715e-09	1.044505e+01	1.414396e+02
1.380000e-06	1.543794e-06	2.467246e-09	1.093921e+01	1.574955e+02
1.390000e-06	1.613283e-06	2.710488e-09	1.143160e+01	1.734136e+02
1.400000e-06	1.682418e-06	2.946600e-09	1.192148e+01	1.891197e+02
1.410000e-06	1.751247e-06	3.177474e-09	1.240920e+01	2.045638e+02
1.420000e-06	1.819858e-06	3.406010e-09	1.289537e+01	2.197233e+02
1.430000e-06	1.888259e-06	3.633747e-09	1.338006e+01	2.345966e+02
1.440000e-06	1.956489e-06	3.856173e-09	1.386353e+01	2.491886e+02
1.450000e-06	2.024523e-06	4.072753e-09	1.434561e+01	2.634953e+02
1.460000e-06	2.092262e-06	4.285619e-09	1.482561e+01	2.774929e+02
1.470000e-06	2.159586e-06	4.493548e-09	1.530266e+01	2.911381e+02
1.480000e-06	2.226437e-06	4.693906e-09	1.577636e+01	3.043771e+02
1.490000e-06	2.292776e-06	4.883603e-09	1.624643e+01	3.171625e+02
1.500000e-06	2.358433e-06	5.065310e-09	1.671167e+01	3.294690e+02
1.510000e-06	2.423414e-06	5.241936e-09	1.717213e+01	3.413031e+02
1.520000e-06	2.487969e-06	5.414916e-09	1.762956e+01	3.527009e+02
1.530000e-06	2.552211e-06	5.584555e-09	1.808477e+01	3.637158e+02
1.540000e-06	2.616138e-06	5.748714e-09	1.853775e+01	3.743996e+02
1.550000e-06	2.679673e-06	5.906866e-09	1.898796e+01	3.847846e+02
1.560000e-06	2.742649e-06	6.059592e-09	1.943420e+01	3.948736e+02
1.570000e-06	2.805115e-06	6.207132e-09	1.987683e+01	4.046415e+02
1.580000e-06	2.867140e-06	6.348922e-09	2.031633e+01	4.140483e+02
1.590000e-06	2.928681e-06	6.485494e-09	2.075241e+01	4.230574e+02
1.600000e-06	2.989735e-06	6.618779e-09	2.118503e+01	4.316528e+02
1.610000e-06	3.050308e-06	6.744202e-09	2.161424e+01	4.398483e+02
1.620000e-06	3.110527e-06	6.862411e-09	2.204095e+01	4.476847e+02
1.630000e-06	3.170391e-06	6.975199e-09	2.246514e+01	4.552165e+02
1.640000e-06	3.229614e-06	7.082922e-09	2.288479e+01	4.624941e+02
1.650000e-06	3.287888e-06	7.188392e-09	2.329772e+01	4.695476e+02
1.660000e-06	3.345177e-06	7.290526e-09	2.370367e+01	4.763798e+02
1.670000e-06	3.401751e-06	7.388745e-09	2.410455e+01	4.829703e+02
1.680000e-06	3.457916e-06	7.483125e-09	2.450253e+01	4.892892e+02
1.690000e-06	3.513650e-06	7.573435e-09	2.489745e+01	4.953152e+02
1.700000e-06	3.568764e-06	7.657681e-09	2.528799e+01	5.010498e+02
1.710000e-06	3.623271e-06	7.736773e-09	2.567422e+01	5.065222e+02
1.720000e-06	3.677220e-06	7.814252e-09	2.605649e+01	5.117831e+02
1.730000e-06	3.730558e-06	7.891408e-09	2.643444e+01	5.168900e+02
1.740000e-06	3.783199e-06	7.967773e-09	2.680746e+01	5.218882e+02
1.750000e-06	3.835108e-06	8.042155e-09	2.717528e+01	5.267980e+02
1.760000e-06	3.886102e-06	8.113340e-09	2.753662e+01	5.316097e+02
1.770000e-06	3.936007e-06	8.182610e-09	2.789024e+01	5.362911e+02
1.780000e-06	3.984964e-06	8.250974e-09	2.823715e+01	5.408028e+02
1.790000e-06	4.033273e-06	8.315789e-09	2.857946e+01	5.451157e+02
1.800000e-06	4.081050e-06	8.375323e-09	2.891801e+01	5.492235e+02
1.810000e-06	4.128138e-06	8.433315e-09	2.925167e+01	5.531462e+02
1.820000e-06	4.174510e-06	8.490846e-09	2.958026e+01	5.569226e+02
1.830000e-06	4.220202e-06	8.545635e-09	2.990403e+01	5.605959e+02
1.840000e-06	4.265132e-06	8.596798e-09	3.022239e+01	5.641977e+02
1.850000e-06	4.309476e-06	8.647339e-09	3.053661e+01	5.677377e+02
1.860000e-06	4.353432e-06	8.699351e-09	3.084808e+01	5.712019e+02
1.870000e-06	4.396709e-06	8.749009e-09	3.115474e+01	5.745603e+02
1.880000e-06	4.438752e-06	8.793017e-09	3.145265e+01	5.777814e+02
1.890000e-06	4.479642e-06	8.834752e-09	3.174240e+01	5.808452e+02
1.900000e-06	4.519845e-06	8.876938e-09	3.202727e+01	5.837518e+02
1.910000e-06	4.559369e-06	8.918048e-09	3.230734e+01	5.865209e+02
1.920000e-06	4.598120e-06	8.956310e-09	3.258192e+01	5.891833e+02
1.930000e-06	4.636103e-06	8.991843e-09	3.285107e+01	5.917681e+02
1.940000e-06	4.673255e-06	9.027694e-09	3.311432e+01	5.942909e+02
1.950000e-06	4.709709e-06	9.062663e-09	3.337263e+01	5.967489e+02
1.960000e-06	4.745569e-06	9.094364e-09	3.362673e+01	5.991234e+02
1.970000e-06	4.780416e-06	9.123361e-09	3.387366e+01	6.013892e+02
1.980000e-06	4.813991e-06	9.153198e-09	3.411157e+01	6.035271e+02
1.990000e-06	4.846583e-06	9.185824e-09	3.434251e+01	6.055329e+02
2.000000e-06	4.878422e-06	9.216674e-09	3.456812e+01	6.074204e+02
2.010000e-06	4.909462e-06	9.243519e-09	3.478807e+01	6.092166e+02
2.020000e-06	4.939778e-06	9.267129e-09	3.500288e+01	6.109508e+02
2.030000e-06	4.969287e-06	9.290261e-09	3.521198e+01	6.126439e+02
2.040000e-06	4.997951e-06	9.313660e-09	3.541510e+01	6.143008e+02
2.050000e-06	5.026020e-06	9.334760e-09	3.561399e+01	6.159099e+02
2.060000e-06	5.053292e-06	9.354354e-09	3.580723e+01	6.174503e+02
2.070000e-06	5.079253e-06	9.374452e-09	3.599119e+01	6.189021e+02
2.080000e-06	5.104004e-06	9.395609e-09	3.616658e+01	6.202567e+02
2.090000e-06	5.127911e-06	9.416236e-09	3.633598e+01	6.215215e+02
2.100000e-06	5.150976e-06	9.435839e-09	3.649942e+01	6.227177e+02
2.110000e-06	5.173178e-06	9.453287e-09	3.665674e+01	6.238712e+02
2.120000e-06	5.194542e-06	9.468782e-09	3.680812e+01	6.250019e+02
2.130000e-06	5.215174e-06	9.482688e-09	3.695432e+01	6.261149e+02
2.140000e-06	5.235189e-06	9.494739e-09	3.709614e+01	6.271978e+02
2.150000e-06	5.254323e-06	9.508228e-09	3.723173e+01	6.282265e+02
2.160000e-06	5.272316e-06	9.523810e-09	3.735922e+01	6.291755e+02
2.170000e-06	5.289341e-06	9.539049e-09	3.747986e+01	6.300298e+02
2.180000e-06	5.305562e-06	9.552312e-09	3.759480e+01	6.307921e+02
2.190000e-06	5.320800e-06	9.563012e-09	3.770278e+01	6.314832e+02
2.200000e-06	5.334940e-06	9.571832e-09	3.780297e+01	6.321339e+02
2.210000e-06	5.348113e-06	9.579406e-09	3.789631e+01	6.327721e+02
2.220000e-06	5.360432e-06	9.586634e-09	3.798360e+01	6.334109e+02
2.230000e-06	5.371712e-06	9.594625e-09	3.806353e+01	6.340422e+02
2.240000e-06	5.381598e-06	9.604681e-09	3.813358e+01	6.346388e+02
2.250000e-06	5.390310e-06	9.616528e-09	3.819532e+01	6.351647e+02
2.260000e-06	5.398173e-06	9.627147e-09	3.825104e+01	6.355892e+02
2.270000e-06	5.405141e-06	9.634340e-09	3.830041e+01	6.359003e+02
2.280000e-06	5.411181e-06	9.637897e-09	3.834321e+01	6.361101e+02
2.290000e-06	5.416301e-06	9.640418e-09	3.837949e+01	6.362509e+02
2.300000e-06	5.420669e-06	9.642851e-09	3.841044e+01	6.363634e+02
2.310000e-06	5.424202e-06	9.641780e-09	3.843548e+01	6.364814e+02
2.320000e-06	5.426497e-06	9.640462e-09	3.845174e+01	6.366184e+02
2.330000e-06	5.427548e-06	9.643488e-09	3.845919e+01	6.367628e+02
2.340000e-06	5.427663e-06	9.647836e-09	3.846000e+01	6.368828e+02
2.350000e-06	5.426942e-06	9.651848e-09	3.845489e+01	6.369387e+02
2.360000e-06	5.425381e-06	9.651088e-09	3.844383e+01	6.368991e+02
2.370000e-06	5.422955e-06	9.648584e-09	3.842664e+01	6.367533e+02
2.380000e-06	5.419742e-06	9.646587e-09	3.840387e+01	6.365146e+02
2.390000e-06	5.415869e-06	9.641496e-09	3.837643e+01	6.362152e+02
2.400000e-06	5.411083e-06	9.635213e-09	3.834251e+01	6.358921e+02
2.410000e-06	5.405039e-06	9.647846e-09	3.829969e+01	6.355726e+02
2.420000e-06	5.397937e-06	9.672083e-09	3.824936e+01	6.352631e+02
2.430000e-06	5.390080e-06	9.588332e-09	3.819369e+01	6.349475e+02
2.440000e-06	5.381155e-06	9.508767e-09	3.813044e+01	6.345946e+02
2.450000e-06	5.370742e-06	9.560750e-09	3.805666e+01	6.341725e+02
2.460000e-06	5.359203e-06	9.761791e-09	3.797490e+01	6.336635e+02
2.470000e-06	5.347385e-06	9.706774e-09	3.789116e+01	6.330727e+02
2.480000e-06	5.335144e-06	9.399518e-09	3.780442e+01	6.324281e+02
2.490000e-06	5.321353e-06	9.579277e-09	3.770670e+01	6.317705e+02
2.500000e-06	5.306116e-06	9.737285e-09	3.759872e+01	6.311371e+02
2.510000e-06	5.290304e-06	9.431048e-09	3.748668e+01	6.305464e+02
2.520000e-06	5.273637e-06	9.490286e-09	3.736859e+01	6.299897e+02
2.530000e-06	5.255783e-06	9.735137e-09	3.724207e+01	6.294317e+02
2.540000e-06	5.237227e-06	9.471280e-09	3.711059e+01	6.288224e+02
2.550000e-06	5.218008e-06	9.482279e-09	3.697440e+01	6.281133e+02
2.560000e-06	5.197948e-06	9.732229e-09	3.683225e+01	6.272734e+02
2.570000e-06	5.177091e-06	9.451453e-09	3.668446e+01	6.262977e+02
2.580000e-06	5.154972e-06	9.393422e-09	3.652773e+01	6.252065e+02
2.590000e-06	5.131636e-06	9.593743e-09	3.636238e+01	6.240349e+02
2.600000e-06	5.107621e-06	9.460526e-09	3.619221e+01	6.228184e+02
2.610000e-06	5.082665e-06	9.464091e-09	3.601537e+01	6.215785e+02
2.620000e-06	5.056607e-06	9.469912e-09	3.583072e+01	6.203165e+02
2.630000e-06	5.029821e-06	9.346519e-09	3.564092e+01	6.190153e+02
2.640000e-06	5.002332e-06	9.489132e-09	3.544614e+01	6.176492e+02
2.650000e-06	4.973994e-06	9.408128e-09	3.524534e+01	6.161966e+02
2.660000e-06	4.944494e-06	9.239578e-09	3.503630e+01	6.146505e+02
2.670000e-06	4.913706e-06	9.398335e-09	3.481814e+01	6.130222e+02
2.680000e-06	4.882080e-06	9.345722e-09	3.459404e+01	6.113359e+02
2.690000e-06	4.849696e-06	9.275052e-09	3.436457e+01	6.096183e+02
2.700000e-06	4.816397e-06	9.302967e-09	3.412862e+01	6.078858e+02
2.710000e-06	4.782319e-06	9.177514e-09	3.388714e+01	6.061371e+02
2.720000e-06	4.747473e-06	9.202532e-09	3.364022e+01	6.043520e+02
2.730000e-06	4.711925e-06	9.208391e-09	3.338834e+01	6.024994e+02
2.740000e-06	4.675591e-06	9.145387e-09	3.313088e+01	6.005493e+02
2.750000e-06	4.638215e-06	9.133014e-09	3.286603e+01	5.984854e+02
2.760000e-06	4.599804e-06	9.077281e-09	3.259385e+01	5.963114e+02
2.770000e-06	4.560475e-06	9.089104e-09	3.231517e+01	5.940505e+02
2.780000e-06	4.520400e-06	9.019111e-09	3.203121e+01	5.917351e+02
2.790000e-06	4.479590e-06	8.947320e-09	3.174202e+01	5.893946e+02
2.800000e-06	4.438031e-06	8.953269e-09	3.144754e+01	5.870433e+02
2.810000e-06	4.395815e-06	8.907925e-09	3.114840e+01	5.846746e+02
2.820000e-06	4.352925e-06	8.903434e-09	3.084449e+01	5.822640e+02
2.830000e-06	4.309399e-06	8.827867e-09	3.053607e+01	5.797789e+02
2.840000e-06	4.265286e-06	8.767221e-09	3.022348e+01	5.771921e+02
2.850000e-06	4.220436e-06	8.769620e-09	2.990568e+01	5.744919e+02
2.860000e-06	4.174735e-06	8.713592e-09	2.958185e+01	5.716863e+02
2.870000e-06	4.128211e-06	8.689460e-09	2.925219e+01	5.687986e+02
2.880000e-06	4.081083e-06	8.624668e-09	2.891824e+01	5.658569e+02
2.890000e-06	4.033301e-06	8.569621e-09	2.857966e+01	5.628820e+02
2.900000e-06	3.984626e-06	8.548375e-09	2.823475e+01	5.598778e+02
2.910000e-06	3.935174e-06	8.486648e-09	2.788434e+01	5.568298e+02
2.920000e-06	3.885049e-06	8.433970e-09	2.752916e+01	5.537111e+02
2.930000e-06	3.834313e-06	8.370627e-09	2.716965e+01	5.504932e+02
2.940000e-06	3.782896e-06	8.349734e-09	2.680531e+01	5.471574e+02
2.950000e-06	3.730656e-06	8.310650e-09	2.643514e+01	5.437020e+02
