# Temperatura_=_20.0
# Concentracion g/m^3_=_10000.0
# C_Vs_to_Am_M_A/Vsm_=_65563218390.804596
# pendiente_HvsI_1/m_=_3716.3
# ordenada_HvsI_A/m_=_1297.0
# frecuencia_Hz_=_212872.75561621092

Tiempo_(s)	Campo_(V.s)	Magnetizacion_(V.s)	Campo_(kA/m)	Magnetizacion_(A/m)
0.000000e+00	-5.482084e-06	-9.772565e-09	-3.843678e+01	-6.365111e+02
1.000000e-08	-5.481574e-06	-9.773664e-09	-3.843320e+01	-6.365397e+02
2.000000e-08	-5.480099e-06	-9.774070e-09	-3.842286e+01	-6.364910e+02
3.000000e-08	-5.477426e-06	-9.773559e-09	-3.840412e+01	-6.363455e+02
4.000000e-08	-5.473731e-06	-9.769414e-09	-3.837821e+01	-6.361043e+02
5.000000e-08	-5.469292e-06	-9.763725e-09	-3.834709e+01	-6.357903e+02
6.000000e-08	-5.464027e-06	-9.759104e-09	-3.831018e+01	-6.354391e+02
7.000000e-08	-5.457798e-06	-9.750007e-09	-3.826651e+01	-6.350846e+02
8.000000e-08	-5.450563e-06	-9.736151e-09	-3.821578e+01	-6.347460e+02
9.000000e-08	-5.442321e-06	-9.737584e-09	-3.815799e+01	-6.344195e+02
1.000000e-07	-5.432938e-06	-9.761596e-09	-3.809220e+01	-6.340811e+02
1.100000e-07	-5.422191e-06	-9.771610e-09	-3.801685e+01	-6.336979e+02
1.200000e-07	-5.410360e-06	-9.723254e-09	-3.793390e+01	-6.332445e+02
1.300000e-07	-5.397789e-06	-9.658251e-09	-3.784576e+01	-6.327182e+02
1.400000e-07	-5.384354e-06	-9.690069e-09	-3.775156e+01	-6.321447e+02
1.500000e-07	-5.369993e-06	-9.728014e-09	-3.765087e+01	-6.315741e+02
1.600000e-07	-5.354515e-06	-9.667630e-09	-3.754235e+01	-6.310653e+02
1.700000e-07	-5.337811e-06	-9.627940e-09	-3.742524e+01	-6.306650e+02
1.800000e-07	-5.320068e-06	-9.691392e-09	-3.730083e+01	-6.303893e+02
1.900000e-07	-5.301560e-06	-9.677890e-09	-3.717107e+01	-6.302142e+02
2.000000e-07	-5.282391e-06	-9.616482e-09	-3.703666e+01	-6.300784e+02
2.100000e-07	-5.262396e-06	-9.668093e-09	-3.689647e+01	-6.298989e+02
2.200000e-07	-5.241526e-06	-9.637086e-09	-3.675015e+01	-6.295927e+02
2.300000e-07	-5.219812e-06	-9.597718e-09	-3.659790e+01	-6.290989e+02
2.400000e-07	-5.197160e-06	-9.637371e-09	-3.643908e+01	-6.283914e+02
2.500000e-07	-5.173584e-06	-9.598170e-09	-3.627378e+01	-6.274817e+02
2.600000e-07	-5.149207e-06	-9.538045e-09	-3.610287e+01	-6.264086e+02
2.700000e-07	-5.123842e-06	-9.544473e-09	-3.592503e+01	-6.252213e+02
2.800000e-07	-5.097329e-06	-9.539942e-09	-3.573913e+01	-6.239618e+02
2.900000e-07	-5.069748e-06	-9.503942e-09	-3.554576e+01	-6.226534e+02
3.000000e-07	-5.041272e-06	-9.490502e-09	-3.534610e+01	-6.212983e+02
3.100000e-07	-5.011965e-06	-9.454849e-09	-3.514062e+01	-6.198837e+02
3.200000e-07	-4.981840e-06	-9.440804e-09	-3.492940e+01	-6.183940e+02
3.300000e-07	-4.950861e-06	-9.433587e-09	-3.471219e+01	-6.168216e+02
3.400000e-07	-4.919023e-06	-9.373452e-09	-3.448896e+01	-6.151724e+02
3.500000e-07	-4.886454e-06	-9.351457e-09	-3.426061e+01	-6.134644e+02
3.600000e-07	-4.853026e-06	-9.338302e-09	-3.402624e+01	-6.117184e+02
3.700000e-07	-4.818458e-06	-9.307354e-09	-3.378387e+01	-6.099478e+02
3.800000e-07	-4.782787e-06	-9.282405e-09	-3.353377e+01	-6.081504e+02
3.900000e-07	-4.746320e-06	-9.240720e-09	-3.327808e+01	-6.063074e+02
4.000000e-07	-4.709142e-06	-9.213394e-09	-3.301742e+01	-6.043888e+02
4.100000e-07	-4.671170e-06	-9.189282e-09	-3.275119e+01	-6.023658e+02
4.200000e-07	-4.632349e-06	-9.163379e-09	-3.247900e+01	-6.002218e+02
4.300000e-07	-4.592729e-06	-9.122979e-09	-3.220120e+01	-5.979603e+02
4.400000e-07	-4.552460e-06	-9.074790e-09	-3.191887e+01	-5.956045e+02
4.500000e-07	-4.511468e-06	-9.047707e-09	-3.163146e+01	-5.931885e+02
4.600000e-07	-4.469527e-06	-9.006627e-09	-3.133740e+01	-5.907452e+02
4.700000e-07	-4.426494e-06	-8.970021e-09	-3.103568e+01	-5.882933e+02
4.800000e-07	-4.382583e-06	-8.935279e-09	-3.072780e+01	-5.858304e+02
4.900000e-07	-4.338045e-06	-8.900489e-09	-3.041553e+01	-5.833343e+02
5.000000e-07	-4.292814e-06	-8.870000e-09	-3.009840e+01	-5.807719e+02
5.100000e-07	-4.246839e-06	-8.816911e-09	-2.977605e+01	-5.781124e+02
5.200000e-07	-4.200129e-06	-8.766025e-09	-2.944855e+01	-5.753390e+02
5.300000e-07	-4.152754e-06	-8.714967e-09	-2.911639e+01	-5.724549e+02
5.400000e-07	-4.104747e-06	-8.670833e-09	-2.877980e+01	-5.694809e+02
5.500000e-07	-4.056031e-06	-8.636575e-09	-2.843823e+01	-5.664462e+02
5.600000e-07	-4.006372e-06	-8.591162e-09	-2.809006e+01	-5.633752e+02
5.700000e-07	-3.955654e-06	-8.545782e-09	-2.773445e+01	-5.602770e+02
5.800000e-07	-3.903979e-06	-8.496413e-09	-2.737214e+01	-5.571410e+02
5.900000e-07	-3.851434e-06	-8.449928e-09	-2.700374e+01	-5.539403e+02
6.000000e-07	-3.798137e-06	-8.393848e-09	-2.663005e+01	-5.506422e+02
6.100000e-07	-3.744183e-06	-8.329106e-09	-2.625176e+01	-5.472201e+02
6.200000e-07	-3.689613e-06	-8.279993e-09	-2.586915e+01	-5.436634e+02
6.300000e-07	-3.634453e-06	-8.227627e-09	-2.548240e+01	-5.399808e+02
6.400000e-07	-3.578731e-06	-8.171031e-09	-2.509172e+01	-5.361949e+02
6.500000e-07	-3.522394e-06	-8.107404e-09	-2.469672e+01	-5.323322e+02
6.600000e-07	-3.465389e-06	-8.045223e-09	-2.429704e+01	-5.284112e+02
6.700000e-07	-3.407671e-06	-7.991703e-09	-2.389235e+01	-5.244346e+02
6.800000e-07	-3.349137e-06	-7.929266e-09	-2.348195e+01	-5.203880e+02
6.900000e-07	-3.289821e-06	-7.866457e-09	-2.306607e+01	-5.162456e+02
7.000000e-07	-3.229910e-06	-7.799206e-09	-2.264601e+01	-5.119814e+02
7.100000e-07	-3.169494e-06	-7.732019e-09	-2.222241e+01	-5.075799e+02
7.200000e-07	-3.108581e-06	-7.662519e-09	-2.179534e+01	-5.030424e+02
7.300000e-07	-3.047147e-06	-7.583385e-09	-2.136460e+01	-4.983866e+02
7.400000e-07	-2.985158e-06	-7.508729e-09	-2.092997e+01	-4.936387e+02
7.500000e-07	-2.922643e-06	-7.435113e-09	-2.049166e+01	-4.888223e+02
7.600000e-07	-2.859664e-06	-7.366751e-09	-2.005009e+01	-4.839482e+02
7.700000e-07	-2.796215e-06	-7.294091e-09	-1.960523e+01	-4.790086e+02
7.800000e-07	-2.732320e-06	-7.212310e-09	-1.915724e+01	-4.739800e+02
7.900000e-07	-2.668014e-06	-7.132123e-09	-1.870637e+01	-4.688310e+02
8.000000e-07	-2.603307e-06	-7.048436e-09	-1.825269e+01	-4.635344e+02
8.100000e-07	-2.538186e-06	-6.963909e-09	-1.779610e+01	-4.580766e+02
8.200000e-07	-2.472602e-06	-6.872314e-09	-1.733627e+01	-4.524625e+02
8.300000e-07	-2.406428e-06	-6.780786e-09	-1.687229e+01	-4.467118e+02
8.400000e-07	-2.339606e-06	-6.696150e-09	-1.640378e+01	-4.408507e+02
8.500000e-07	-2.272341e-06	-6.609237e-09	-1.593217e+01	-4.349005e+02
8.600000e-07	-2.204742e-06	-6.520661e-09	-1.545821e+01	-4.288686e+02
8.700000e-07	-2.136865e-06	-6.424457e-09	-1.498230e+01	-4.227458e+02
8.800000e-07	-2.068741e-06	-6.327963e-09	-1.450466e+01	-4.165098e+02
8.900000e-07	-2.000365e-06	-6.230647e-09	-1.402525e+01	-4.101340e+02
9.000000e-07	-1.931729e-06	-6.125240e-09	-1.354402e+01	-4.035978e+02
9.100000e-07	-1.862773e-06	-6.018236e-09	-1.306055e+01	-3.968935e+02
9.200000e-07	-1.793515e-06	-5.910516e-09	-1.257495e+01	-3.900276e+02
9.300000e-07	-1.723984e-06	-5.806910e-09	-1.208745e+01	-3.830160e+02
9.400000e-07	-1.654172e-06	-5.701876e-09	-1.159797e+01	-3.758748e+02
9.500000e-07	-1.584043e-06	-5.591496e-09	-1.110627e+01	-3.686113e+02
9.600000e-07	-1.513588e-06	-5.480715e-09	-1.061229e+01	-3.612187e+02
9.700000e-07	-1.442864e-06	-5.367629e-09	-1.011642e+01	-3.536768e+02
9.800000e-07	-1.371818e-06	-5.250829e-09	-9.618286e+00	-3.459585e+02
9.900000e-07	-1.300521e-06	-5.124940e-09	-9.118398e+00	-3.380392e+02
1.000000e-06	-1.229035e-06	-4.995372e-09	-8.617189e+00	-3.299055e+02
1.010000e-06	-1.157336e-06	-4.868496e-09	-8.114484e+00	-3.215593e+02
1.020000e-06	-1.085509e-06	-4.740456e-09	-7.610880e+00	-3.130153e+02
1.030000e-06	-1.013567e-06	-4.609730e-09	-7.106468e+00	-3.042937e+02
1.040000e-06	-9.414802e-07	-4.472437e-09	-6.601042e+00	-2.954104e+02
1.050000e-06	-8.692308e-07	-4.332363e-09	-6.094477e+00	-2.863688e+02
1.060000e-06	-7.968273e-07	-4.190008e-09	-5.586831e+00	-2.771566e+02
1.070000e-06	-7.242455e-07	-4.044810e-09	-5.077935e+00	-2.677496e+02
1.080000e-06	-6.515167e-07	-3.896042e-09	-4.568008e+00	-2.581188e+02
1.090000e-06	-5.786608e-07	-3.741841e-09	-4.057190e+00	-2.482406e+02
1.100000e-06	-5.056022e-07	-3.586916e-09	-3.544951e+00	-2.381039e+02
1.110000e-06	-4.323288e-07	-3.427804e-09	-3.031207e+00	-2.277117e+02
1.120000e-06	-3.589637e-07	-3.263070e-09	-2.516819e+00	-2.170778e+02
1.130000e-06	-2.855751e-07	-3.094646e-09	-2.002265e+00	-2.062185e+02
1.140000e-06	-2.121240e-07	-2.924029e-09	-1.487274e+00	-1.951439e+02
1.150000e-06	-1.386408e-07	-2.752906e-09	-9.720585e-01	-1.838524e+02
1.160000e-06	-6.517310e-08	-2.577744e-09	-4.569511e-01	-1.723298e+02
1.170000e-06	8.303973e-09	-2.396229e-09	5.822202e-02	-1.605544e+02
1.180000e-06	8.178958e-08	-2.210799e-09	5.734549e-01	-1.485042e+02
1.190000e-06	1.551974e-07	-2.020567e-09	1.088143e+00	-1.361649e+02
1.200000e-06	2.284794e-07	-1.826261e-09	1.601948e+00	-1.235338e+02
1.210000e-06	3.016875e-07	-1.628081e-09	2.115235e+00	-1.106194e+02
1.220000e-06	3.747364e-07	-1.426595e-09	2.627406e+00	-9.743553e+01
1.230000e-06	4.476039e-07	-1.221029e-09	3.138306e+00	-8.399435e+01
1.240000e-06	5.204617e-07	-1.011362e-09	3.649136e+00	-7.030038e+01
1.250000e-06	5.932607e-07	-7.981033e-10	4.159556e+00	-5.634854e+01
1.260000e-06	6.658762e-07	-5.804354e-10	4.668688e+00	-4.212729e+01
1.270000e-06	7.383019e-07	-3.608746e-10	5.176489e+00	-2.762545e+01
1.280000e-06	8.105778e-07	-1.367503e-10	5.683240e+00	-1.284003e+01
1.290000e-06	8.827825e-07	9.195166e-11	6.189492e+00	2.218276e+00
1.300000e-06	9.548939e-07	3.259026e-10	6.695090e+00	1.752423e+01
1.310000e-06	1.026839e-06	5.664180e-10	7.199523e+00	3.304191e+01
1.320000e-06	1.098644e-06	8.085695e-10	7.702972e+00	4.873169e+01
1.330000e-06	1.170329e-06	1.049891e-09	8.205583e+00	6.455714e+01
1.340000e-06	1.241852e-06	1.290726e-09	8.707056e+00	8.048881e+01
1.350000e-06	1.313132e-06	1.533878e-09	9.206819e+00	9.650330e+01
1.360000e-06	1.384137e-06	1.777518e-09	9.704662e+00	1.125780e+02
1.370000e-06	1.454937e-06	2.021033e-09	1.020107e+01	1.286839e+02
1.380000e-06	1.525502e-06	2.265719e-09	1.069582e+01	1.447800e+02
1.390000e-06	1.595821e-06	2.510680e-09	1.118885e+01	1.608119e+02
1.400000e-06	1.665889e-06	2.754266e-09	1.168012e+01	1.767162e+02
1.410000e-06	1.735662e-06	2.993948e-09	1.216932e+01	1.924279e+02
1.420000e-06	1.805160e-06	3.229096e-09	1.265660e+01	2.078905e+02
1.430000e-06	1.874372e-06	3.460352e-09	1.314187e+01	2.230628e+02
1.440000e-06	1.943269e-06	3.684828e-09	1.362493e+01	2.379204e+02
1.450000e-06	2.011817e-06	3.901809e-09	1.410554e+01	2.524517e+02
1.460000e-06	2.080089e-06	4.115131e-09	1.458422e+01	2.666507e+02
1.470000e-06	2.148182e-06	4.324473e-09	1.506164e+01	2.805077e+02
1.480000e-06	2.216021e-06	4.530980e-09	1.553729e+01	2.940050e+02
1.490000e-06	2.283485e-06	4.729522e-09	1.601030e+01	3.071166e+02
1.500000e-06	2.350486e-06	4.919655e-09	1.648007e+01	3.198144e+02
1.510000e-06	2.416897e-06	5.104203e-09	1.694570e+01	3.320771e+02
1.520000e-06	2.482583e-06	5.283388e-09	1.740625e+01	3.438985e+02
1.530000e-06	2.547579e-06	5.457315e-09	1.786195e+01	3.552909e+02
1.540000e-06	2.612064e-06	5.623891e-09	1.831408e+01	3.662825e+02
1.550000e-06	2.676188e-06	5.784956e-09	1.876368e+01	3.769088e+02
1.560000e-06	2.739974e-06	5.941259e-09	1.921090e+01	3.872006e+02
1.570000e-06	2.803381e-06	6.092765e-09	1.965547e+01	3.971748e+02
1.580000e-06	2.866304e-06	6.238578e-09	2.009665e+01	4.068294e+02
1.590000e-06	2.928650e-06	6.379013e-09	2.053378e+01	4.161462e+02
1.600000e-06	2.990513e-06	6.516273e-09	2.096752e+01	4.251003e+02
1.610000e-06	3.051937e-06	6.648392e-09	2.139818e+01	4.336716e+02
1.620000e-06	3.112878e-06	6.774492e-09	2.182546e+01	4.418554e+02
1.630000e-06	3.173348e-06	6.893192e-09	2.224944e+01	4.496669e+02
1.640000e-06	3.233350e-06	7.004506e-09	2.267013e+01	4.571387e+02
1.650000e-06	3.292857e-06	7.110785e-09	2.308735e+01	4.643121e+02
1.660000e-06	3.351678e-06	7.211860e-09	2.349977e+01	4.712260e+02
1.670000e-06	3.409642e-06	7.310287e-09	2.390618e+01	4.779067e+02
1.680000e-06	3.466732e-06	7.405355e-09	2.430645e+01	4.843650e+02
1.690000e-06	3.523145e-06	7.498581e-09	2.470199e+01	4.905975e+02
1.700000e-06	3.579069e-06	7.590460e-09	2.509409e+01	4.965953e+02
1.710000e-06	3.634465e-06	7.677618e-09	2.548249e+01	5.023536e+02
1.720000e-06	3.689281e-06	7.760756e-09	2.586682e+01	5.078786e+02
1.730000e-06	3.743448e-06	7.839962e-09	2.624661e+01	5.131898e+02
1.740000e-06	3.796963e-06	7.916849e-09	2.662181e+01	5.183161e+02
1.750000e-06	3.849777e-06	7.990510e-09	2.699211e+01	5.232874e+02
1.760000e-06	3.901899e-06	8.061155e-09	2.735756e+01	5.281259e+02
1.770000e-06	3.953252e-06	8.131737e-09	2.771761e+01	5.328406e+02
1.780000e-06	4.003595e-06	8.201848e-09	2.807059e+01	5.374267e+02
1.790000e-06	4.053009e-06	8.270833e-09	2.841705e+01	5.418709e+02
1.800000e-06	4.101617e-06	8.335967e-09	2.875785e+01	5.461598e+02
1.810000e-06	4.149482e-06	8.397259e-09	2.909345e+01	5.502878e+02
1.820000e-06	4.196698e-06	8.455861e-09	2.942450e+01	5.542606e+02
1.830000e-06	4.243226e-06	8.511741e-09	2.975072e+01	5.580944e+02
1.840000e-06	4.289035e-06	8.565120e-09	3.007190e+01	5.618097e+02
1.850000e-06	4.334143e-06	8.616118e-09	3.038817e+01	5.654227e+02
1.860000e-06	4.378604e-06	8.667027e-09	3.069990e+01	5.689391e+02
1.870000e-06	4.422445e-06	8.718946e-09	3.100728e+01	5.723524e+02
1.880000e-06	4.465502e-06	8.768874e-09	3.130917e+01	5.756471e+02
1.890000e-06	4.507500e-06	8.815333e-09	3.160363e+01	5.788065e+02
1.900000e-06	4.548443e-06	8.858580e-09	3.189071e+01	5.818207e+02
1.910000e-06	4.588583e-06	8.900203e-09	3.217214e+01	5.846927e+02
1.920000e-06	4.628025e-06	8.938121e-09	3.244868e+01	5.874378e+02
1.930000e-06	4.666745e-06	8.971352e-09	3.272016e+01	5.900792e+02
1.940000e-06	4.704664e-06	9.005085e-09	3.298603e+01	5.926386e+02
1.950000e-06	4.741741e-06	9.040224e-09	3.324598e+01	5.951279e+02
1.960000e-06	4.778112e-06	9.075601e-09	3.350099e+01	5.975453e+02
1.970000e-06	4.813772e-06	9.108168e-09	3.375101e+01	5.998760e+02
1.980000e-06	4.848503e-06	9.139216e-09	3.399453e+01	6.020996e+02
1.990000e-06	4.882116e-06	9.170194e-09	3.423020e+01	6.041996e+02
2.000000e-06	4.914665e-06	9.198256e-09	3.445841e+01	6.061715e+02
2.010000e-06	4.946345e-06	9.223021e-09	3.468053e+01	6.080262e+02
2.020000e-06	4.977289e-06	9.245480e-09	3.489749e+01	6.097873e+02
2.030000e-06	5.007465e-06	9.269758e-09	3.510906e+01	6.114830e+02
2.040000e-06	5.036836e-06	9.295916e-09	3.531500e+01	6.131359e+02
2.050000e-06	5.065478e-06	9.320234e-09	3.551582e+01	6.147555e+02
2.060000e-06	5.093361e-06	9.341562e-09	3.571131e+01	6.163356e+02
2.070000e-06	5.120283e-06	9.362505e-09	3.590007e+01	6.178589e+02
2.080000e-06	5.146011e-06	9.384401e-09	3.608046e+01	6.193054e+02
2.090000e-06	5.170608e-06	9.404122e-09	3.625292e+01	6.206626e+02
2.100000e-06	5.194287e-06	9.422012e-09	3.641894e+01	6.219317e+02
2.110000e-06	5.217133e-06	9.438736e-09	3.657912e+01	6.231278e+02
2.120000e-06	5.239136e-06	9.455578e-09	3.673339e+01	6.242740e+02
2.130000e-06	5.260311e-06	9.471696e-09	3.688186e+01	6.253914e+02
2.140000e-06	5.280731e-06	9.484410e-09	3.702503e+01	6.264892e+02
2.150000e-06	5.300455e-06	9.498740e-09	3.716332e+01	6.275605e+02
2.160000e-06	5.319275e-06	9.515692e-09	3.729527e+01	6.285835e+02
2.170000e-06	5.337038e-06	9.532003e-09	3.741981e+01	6.295307e+02
2.180000e-06	5.353838e-06	9.545301e-09	3.753761e+01	6.303803e+02
2.190000e-06	5.369701e-06	9.555455e-09	3.764883e+01	6.311264e+02
2.200000e-06	5.384532e-06	9.564959e-09	3.775281e+01	6.317829e+02
2.210000e-06	5.398328e-06	9.573620e-09	3.784954e+01	6.323795e+02
2.220000e-06	5.411163e-06	9.581363e-09	3.793953e+01	6.329517e+02
2.230000e-06	5.423050e-06	9.588278e-09	3.802287e+01	6.335266e+02
2.240000e-06	5.433792e-06	9.596947e-09	3.809819e+01	6.341129e+02
2.250000e-06	5.443237e-06	9.607916e-09	3.816441e+01	6.346970e+02
2.260000e-06	5.451628e-06	9.617778e-09	3.822324e+01	6.352482e+02
2.270000e-06	5.459152e-06	9.626078e-09	3.827600e+01	6.357300e+02
2.280000e-06	5.465770e-06	9.632724e-09	3.832240e+01	6.361146e+02
2.290000e-06	5.471414e-06	9.638932e-09	3.836197e+01	6.363936e+02
2.300000e-06	5.476181e-06	9.643637e-09	3.839539e+01	6.365803e+02
2.310000e-06	5.480139e-06	9.644495e-09	3.842315e+01	6.367045e+02
2.320000e-06	5.483092e-06	9.644432e-09	3.844385e+01	6.368000e+02
2.330000e-06	5.484809e-06	9.645565e-09	3.845589e+01	6.368904e+02
2.340000e-06	5.485396e-06	9.647496e-09	3.846000e+01	6.369797e+02
2.350000e-06	5.485097e-06	9.649039e-09	3.845791e+01	6.370508e+02
2.360000e-06	5.483976e-06	9.650509e-09	3.845005e+01	6.370731e+02
2.370000e-06	5.482003e-06	9.650775e-09	3.843622e+01	6.370154e+02
2.380000e-06	5.479184e-06	9.648027e-09	3.841645e+01	6.368599e+02
2.390000e-06	5.475594e-06	9.644265e-09	3.839128e+01	6.366102e+02
2.400000e-06	5.471187e-06	9.638842e-09	3.836038e+01	6.362909e+02
2.410000e-06	5.465739e-06	9.633975e-09	3.832218e+01	6.359380e+02
2.420000e-06	5.459149e-06	9.638218e-09	3.827598e+01	6.355847e+02
2.430000e-06	5.451589e-06	9.633412e-09	3.822297e+01	6.352479e+02
2.440000e-06	5.443074e-06	9.603809e-09	3.816327e+01	6.349216e+02
2.450000e-06	5.433277e-06	9.559704e-09	3.809458e+01	6.345803e+02
2.460000e-06	5.422121e-06	9.593014e-09	3.801636e+01	6.341910e+02
2.470000e-06	5.410197e-06	9.656178e-09	3.793276e+01	6.337301e+02
2.480000e-06	5.397932e-06	9.625800e-09	3.784677e+01	6.331974e+02
2.490000e-06	5.384761e-06	9.549118e-09	3.775442e+01	6.326217e+02
2.500000e-06	5.370143e-06	9.565425e-09	3.765192e+01	6.320548e+02
2.510000e-06	5.354491e-06	9.633374e-09	3.754218e+01	6.315552e+02
2.520000e-06	5.338082e-06	9.563776e-09	3.742714e+01	6.311673e+02
2.530000e-06	5.320661e-06	9.545362e-09	3.730499e+01	6.309035e+02
2.540000e-06	5.302299e-06	9.608656e-09	3.717625e+01	6.307356e+02
2.550000e-06	5.283224e-06	9.565930e-09	3.704250e+01	6.305994e+02
2.560000e-06	5.263380e-06	9.555074e-09	3.690337e+01	6.304108e+02
2.570000e-06	5.242704e-06	9.606120e-09	3.675841e+01	6.300883e+02
2.580000e-06	5.220940e-06	9.562884e-09	3.660581e+01	6.295736e+02
2.590000e-06	5.197883e-06	9.545795e-09	3.644415e+01	6.288449e+02
2.600000e-06	5.173882e-06	9.594588e-09	3.627587e+01	6.279169e+02
2.610000e-06	5.149040e-06	9.542122e-09	3.610169e+01	6.268302e+02
2.620000e-06	5.123185e-06	9.526793e-09	3.592041e+01	6.256340e+02
2.630000e-06	5.096453e-06	9.520259e-09	3.573299e+01	6.243691e+02
2.640000e-06	5.068977e-06	9.466012e-09	3.554035e+01	6.230563e+02
2.650000e-06	5.040732e-06	9.492466e-09	3.534231e+01	6.216960e+02
2.660000e-06	5.011466e-06	9.452792e-09	3.513712e+01	6.202746e+02
2.670000e-06	4.980930e-06	9.404474e-09	3.492302e+01	6.187769e+02
2.680000e-06	4.949385e-06	9.435290e-09	3.470185e+01	6.171963e+02
2.690000e-06	4.917117e-06	9.399143e-09	3.447561e+01	6.155404e+02
2.700000e-06	4.884003e-06	9.350593e-09	3.424343e+01	6.138278e+02
2.710000e-06	4.849951e-06	9.322890e-09	3.400468e+01	6.120789e+02
2.720000e-06	4.815145e-06	9.290697e-09	3.376064e+01	6.103061e+02
2.730000e-06	4.779637e-06	9.275966e-09	3.351168e+01	6.085054e+02
2.740000e-06	4.743312e-06	9.265294e-09	3.325700e+01	6.066563e+02
2.750000e-06	4.705917e-06	9.233307e-09	3.299481e+01	6.047285e+02
2.760000e-06	4.667391e-06	9.197152e-09	3.272469e+01	6.026939e+02
2.770000e-06	4.627982e-06	9.165054e-09	3.244838e+01	6.005377e+02
2.780000e-06	4.587769e-06	9.118080e-09	3.216643e+01	5.982656e+02
2.790000e-06	4.546865e-06	9.081143e-09	3.187964e+01	5.959021e+02
2.800000e-06	4.505298e-06	9.043173e-09	3.158820e+01	5.934822e+02
2.810000e-06	4.462997e-06	9.016301e-09	3.129161e+01	5.910376e+02
2.820000e-06	4.420043e-06	8.989535e-09	3.099044e+01	5.885851e+02
2.830000e-06	4.376493e-06	8.940687e-09	3.068510e+01	5.861202e+02
2.840000e-06	4.332286e-06	8.899320e-09	3.037515e+01	5.836191e+02
2.850000e-06	4.287334e-06	8.856303e-09	3.005998e+01	5.810483e+02
2.860000e-06	4.241555e-06	8.826907e-09	2.973900e+01	5.783779e+02
2.870000e-06	4.195054e-06	8.791523e-09	2.941297e+01	5.755930e+02
2.880000e-06	4.147882e-06	8.741520e-09	2.908223e+01	5.726988e+02
2.890000e-06	4.099861e-06	8.698120e-09	2.874554e+01	5.697175e+02
2.900000e-06	4.051013e-06	8.640695e-09	2.840305e+01	5.666783e+02
2.910000e-06	4.001441e-06	8.599141e-09	2.805548e+01	5.636045e+02
2.920000e-06	3.951156e-06	8.552854e-09	2.770292e+01	5.605034e+02
2.930000e-06	3.900155e-06	8.500357e-09	2.734533e+01	5.573624e+02
2.940000e-06	3.848441e-06	8.465529e-09	2.698275e+01	5.541536e+02
2.950000e-06	3.795930e-06	8.416680e-09	2.661457e+01	5.508441e+02
