# Temperatura_=_20.0
# Concentracion g/m^3_=_10000.0
# C_Vs_to_Am_M_A/Vsm_=_65563218390.804596
# pendiente_HvsI_1/m_=_3716.3
# ordenada_HvsI_A/m_=_1297.0
# frecuencia_Hz_=_212875.1559373679

Tiempo_(s)	Campo_(V.s)	Magnetizacion_(V.s)	Campo_(kA/m)	Magnetizacion_(A/m)
0.000000e+00	-5.463199e-06	-9.757595e-09	-3.843046e+01	-6.348747e+02
1.000000e-08	-5.462579e-06	-9.758481e-09	-3.842610e+01	-6.348678e+02
2.000000e-08	-5.460997e-06	-9.759221e-09	-3.841497e+01	-6.348106e+02
3.000000e-08	-5.458178e-06	-9.757371e-09	-3.839514e+01	-6.346922e+02
4.000000e-08	-5.454327e-06	-9.751951e-09	-3.836805e+01	-6.345074e+02
5.000000e-08	-5.449723e-06	-9.746403e-09	-3.833566e+01	-6.342582e+02
6.000000e-08	-5.444301e-06	-9.743202e-09	-3.829752e+01	-6.339537e+02
7.000000e-08	-5.437934e-06	-9.737271e-09	-3.825273e+01	-6.336066e+02
8.000000e-08	-5.430666e-06	-9.717154e-09	-3.820161e+01	-6.332292e+02
9.000000e-08	-5.422453e-06	-9.727671e-09	-3.814384e+01	-6.328298e+02
1.000000e-07	-5.412998e-06	-9.743298e-09	-3.807732e+01	-6.324111e+02
1.100000e-07	-5.402101e-06	-9.751801e-09	-3.800067e+01	-6.319706e+02
1.200000e-07	-5.390155e-06	-9.687489e-09	-3.791664e+01	-6.315049e+02
1.300000e-07	-5.377505e-06	-9.621431e-09	-3.782765e+01	-6.310137e+02
1.400000e-07	-5.363939e-06	-9.709679e-09	-3.773223e+01	-6.305043e+02
1.500000e-07	-5.349365e-06	-9.719318e-09	-3.762970e+01	-6.299925e+02
1.600000e-07	-5.333888e-06	-9.601255e-09	-3.752083e+01	-6.295000e+02
1.700000e-07	-5.317283e-06	-9.618263e-09	-3.740402e+01	-6.290483e+02
1.800000e-07	-5.299489e-06	-9.698614e-09	-3.727885e+01	-6.286503e+02
1.900000e-07	-5.280937e-06	-9.583394e-09	-3.714835e+01	-6.283028e+02
2.000000e-07	-5.261705e-06	-9.587028e-09	-3.701307e+01	-6.279817e+02
2.100000e-07	-5.241611e-06	-9.662430e-09	-3.687172e+01	-6.276434e+02
2.200000e-07	-5.220716e-06	-9.541439e-09	-3.672473e+01	-6.272319e+02
2.300000e-07	-5.199016e-06	-9.564898e-09	-3.657208e+01	-6.266897e+02
2.400000e-07	-5.176306e-06	-9.614255e-09	-3.641233e+01	-6.259710e+02
2.500000e-07	-5.152695e-06	-9.519776e-09	-3.624625e+01	-6.250523e+02
2.600000e-07	-5.128373e-06	-9.492160e-09	-3.607515e+01	-6.239378e+02
2.700000e-07	-5.103078e-06	-9.513667e-09	-3.589722e+01	-6.226574e+02
2.800000e-07	-5.076596e-06	-9.474464e-09	-3.571093e+01	-6.212583e+02
2.900000e-07	-5.049034e-06	-9.456863e-09	-3.551705e+01	-6.197917e+02
3.000000e-07	-5.020539e-06	-9.442406e-09	-3.531660e+01	-6.182999e+02
3.100000e-07	-4.991182e-06	-9.391612e-09	-3.511009e+01	-6.168058e+02
3.200000e-07	-4.961031e-06	-9.398027e-09	-3.489800e+01	-6.153097e+02
3.300000e-07	-4.930060e-06	-9.370217e-09	-3.468014e+01	-6.137922e+02
3.400000e-07	-4.898255e-06	-9.311751e-09	-3.445641e+01	-6.122234e+02
3.500000e-07	-4.865730e-06	-9.306977e-09	-3.422761e+01	-6.105743e+02
3.600000e-07	-4.832356e-06	-9.281916e-09	-3.399284e+01	-6.088266e+02
3.700000e-07	-4.797849e-06	-9.252887e-09	-3.375011e+01	-6.069782e+02
3.800000e-07	-4.762239e-06	-9.225475e-09	-3.349961e+01	-6.050424e+02
3.900000e-07	-4.725810e-06	-9.186208e-09	-3.324335e+01	-6.030417e+02
4.000000e-07	-4.688642e-06	-9.154173e-09	-3.298190e+01	-6.009989e+02
4.100000e-07	-4.650683e-06	-9.128786e-09	-3.271488e+01	-5.989281e+02
4.200000e-07	-4.611847e-06	-9.114740e-09	-3.244169e+01	-5.968301e+02
4.300000e-07	-4.572158e-06	-9.060274e-09	-3.216250e+01	-5.946918e+02
4.400000e-07	-4.531893e-06	-9.018720e-09	-3.187926e+01	-5.924920e+02
4.500000e-07	-4.491013e-06	-8.992563e-09	-3.159169e+01	-5.902091e+02
4.600000e-07	-4.449106e-06	-8.948455e-09	-3.129690e+01	-5.878290e+02
4.700000e-07	-4.406040e-06	-8.919924e-09	-3.099395e+01	-5.853500e+02
4.800000e-07	-4.362170e-06	-8.877465e-09	-3.068535e+01	-5.827829e+02
4.900000e-07	-4.317708e-06	-8.848819e-09	-3.037259e+01	-5.801466e+02
5.000000e-07	-4.272534e-06	-8.814703e-09	-3.005482e+01	-5.774606e+02
5.100000e-07	-4.226599e-06	-8.760999e-09	-2.973169e+01	-5.747375e+02
5.200000e-07	-4.179980e-06	-8.713550e-09	-2.940376e+01	-5.719787e+02
5.300000e-07	-4.132678e-06	-8.658957e-09	-2.907101e+01	-5.691737e+02
5.400000e-07	-4.084715e-06	-8.621345e-09	-2.873362e+01	-5.663042e+02
5.500000e-07	-4.036068e-06	-8.581884e-09	-2.839141e+01	-5.633508e+02
5.600000e-07	-3.986472e-06	-8.539541e-09	-2.804254e+01	-5.603001e+02
5.700000e-07	-3.935805e-06	-8.496396e-09	-2.768612e+01	-5.571487e+02
5.800000e-07	-3.884212e-06	-8.440250e-09	-2.732319e+01	-5.539035e+02
5.900000e-07	-3.831833e-06	-8.396395e-09	-2.695474e+01	-5.505783e+02
6.000000e-07	-3.778673e-06	-8.336919e-09	-2.658079e+01	-5.471870e+02
6.100000e-07	-3.724832e-06	-8.275226e-09	-2.620205e+01	-5.437374e+02
6.200000e-07	-3.670344e-06	-8.226011e-09	-2.581876e+01	-5.402277e+02
6.300000e-07	-3.615185e-06	-8.174637e-09	-2.543075e+01	-5.366457e+02
6.400000e-07	-3.559481e-06	-8.122865e-09	-2.503890e+01	-5.329733e+02
6.500000e-07	-3.503324e-06	-8.054430e-09	-2.464387e+01	-5.291925e+02
6.600000e-07	-3.446581e-06	-7.996242e-09	-2.424471e+01	-5.252918e+02
6.700000e-07	-3.388991e-06	-7.941996e-09	-2.383960e+01	-5.212700e+02
6.800000e-07	-3.330507e-06	-7.879787e-09	-2.342820e+01	-5.171360e+02
6.900000e-07	-3.271223e-06	-7.817642e-09	-2.301117e+01	-5.129055e+02
7.000000e-07	-3.211340e-06	-7.745367e-09	-2.258993e+01	-5.085943e+02
7.100000e-07	-3.150997e-06	-7.679156e-09	-2.216545e+01	-5.042125e+02
7.200000e-07	-3.090164e-06	-7.606961e-09	-2.173753e+01	-4.997604e+02
7.300000e-07	-3.028807e-06	-7.532613e-09	-2.130592e+01	-4.952285e+02
7.400000e-07	-2.966939e-06	-7.461596e-09	-2.087071e+01	-4.906007e+02
7.500000e-07	-2.904605e-06	-7.386106e-09	-2.043222e+01	-4.858600e+02
7.600000e-07	-2.841782e-06	-7.318129e-09	-1.999030e+01	-4.809944e+02
7.700000e-07	-2.778444e-06	-7.242339e-09	-1.954475e+01	-4.760002e+02
7.800000e-07	-2.714676e-06	-7.162410e-09	-1.909619e+01	-4.708825e+02
7.900000e-07	-2.650560e-06	-7.078654e-09	-1.864517e+01	-4.656517e+02
8.000000e-07	-2.586103e-06	-6.992873e-09	-1.819174e+01	-4.603187e+02
8.100000e-07	-2.521239e-06	-6.912553e-09	-1.773547e+01	-4.548896e+02
8.200000e-07	-2.455928e-06	-6.822497e-09	-1.727604e+01	-4.493628e+02
8.300000e-07	-2.390020e-06	-6.734991e-09	-1.681242e+01	-4.437290e+02
8.400000e-07	-2.323383e-06	-6.650276e-09	-1.634366e+01	-4.379745e+02
8.500000e-07	-2.256249e-06	-6.563670e-09	-1.587141e+01	-4.320863e+02
8.600000e-07	-2.188759e-06	-6.473972e-09	-1.539666e+01	-4.260562e+02
8.700000e-07	-2.120945e-06	-6.375186e-09	-1.491963e+01	-4.198836e+02
8.800000e-07	-2.052911e-06	-6.279168e-09	-1.444105e+01	-4.135746e+02
8.900000e-07	-1.984649e-06	-6.180206e-09	-1.396086e+01	-4.071383e+02
9.000000e-07	-1.916163e-06	-6.077402e-09	-1.347910e+01	-4.005823e+02
9.100000e-07	-1.847429e-06	-5.972635e-09	-1.299560e+01	-3.939080e+02
9.200000e-07	-1.778377e-06	-5.865627e-09	-1.250986e+01	-3.871085e+02
9.300000e-07	-1.708957e-06	-5.763209e-09	-1.202153e+01	-3.801700e+02
9.400000e-07	-1.639192e-06	-5.654513e-09	-1.153078e+01	-3.730752e+02
9.500000e-07	-1.569176e-06	-5.542421e-09	-1.103825e+01	-3.658090e+02
9.600000e-07	-1.498920e-06	-5.430319e-09	-1.054404e+01	-3.583623e+02
9.700000e-07	-1.428432e-06	-5.315338e-09	-1.004820e+01	-3.507342e+02
9.800000e-07	-1.357659e-06	-5.199255e-09	-9.550349e+00	-3.429307e+02
9.900000e-07	-1.286576e-06	-5.073404e-09	-9.050321e+00	-3.349607e+02
1.000000e-06	-1.215232e-06	-4.946316e-09	-8.548458e+00	-3.268311e+02
1.010000e-06	-1.143635e-06	-4.819217e-09	-8.044811e+00	-3.185422e+02
1.020000e-06	-1.071843e-06	-4.691377e-09	-7.539797e+00	-3.100866e+02
1.030000e-06	-9.999313e-07	-4.561138e-09	-7.033941e+00	-3.014501e+02
1.040000e-06	-9.278873e-07	-4.422905e-09	-6.527153e+00	-2.926163e+02
1.050000e-06	-8.557544e-07	-4.285890e-09	-6.019740e+00	-2.835712e+02
1.060000e-06	-7.835708e-07	-4.144387e-09	-5.511969e+00	-2.743076e+02
1.070000e-06	-7.112847e-07	-3.997993e-09	-5.003479e+00	-2.648263e+02
1.080000e-06	-6.388713e-07	-3.845348e-09	-4.494092e+00	-2.551340e+02
1.090000e-06	-5.663142e-07	-3.687070e-09	-3.983695e+00	-2.452393e+02
1.100000e-06	-4.936333e-07	-3.533328e-09	-3.472426e+00	-2.351468e+02
1.110000e-06	-4.208472e-07	-3.377943e-09	-2.960418e+00	-2.248532e+02
1.120000e-06	-3.479543e-07	-3.217735e-09	-2.447658e+00	-2.143462e+02
1.130000e-06	-2.749946e-07	-3.052114e-09	-1.934429e+00	-2.036064e+02
1.140000e-06	-2.020034e-07	-2.883108e-09	-1.420978e+00	-1.926127e+02
1.150000e-06	-1.289713e-07	-2.711805e-09	-9.072386e-01	-1.813481e+02
1.160000e-06	-5.596063e-08	-2.532402e-09	-3.936508e-01	-1.698043e+02
1.170000e-06	1.703299e-08	-2.348063e-09	1.198173e-01	-1.579840e+02
1.180000e-06	9.007136e-08	-2.160951e-09	6.336002e-01	-1.458985e+02
1.190000e-06	1.630366e-07	-1.973160e-09	1.146869e+00	-1.335626e+02
1.200000e-06	2.359204e-07	-1.782593e-09	1.659564e+00	-1.209886e+02
1.210000e-06	3.087499e-07	-1.586236e-09	2.171878e+00	-1.081803e+02
1.220000e-06	3.814770e-07	-1.387042e-09	2.683471e+00	-9.513115e+01
1.230000e-06	4.540879e-07	-1.183211e-09	3.194247e+00	-8.182508e+01
1.240000e-06	5.265805e-07	-9.755038e-10	3.704191e+00	-6.824184e+01
1.250000e-06	5.989959e-07	-7.620162e-10	4.213591e+00	-5.436364e+01
1.260000e-06	6.713287e-07	-5.451015e-10	4.722411e+00	-4.018167e+01
1.270000e-06	7.435305e-07	-3.262108e-10	5.230309e+00	-2.570023e+01
1.280000e-06	8.156343e-07	-1.010629e-10	5.737518e+00	-1.093720e+01
1.290000e-06	8.876266e-07	1.279606e-10	6.243942e+00	4.078895e+00
1.300000e-06	9.594640e-07	3.621013e-10	6.749277e+00	1.931414e+01
1.310000e-06	1.031173e-06	5.984308e-10	7.253708e+00	3.473480e+01
1.320000e-06	1.102760e-06	8.353758e-10	7.757283e+00	5.031125e+01
1.330000e-06	1.174250e-06	1.074138e-09	8.260173e+00	6.601909e+01
1.340000e-06	1.245534e-06	1.314048e-09	8.761617e+00	8.183728e+01
1.350000e-06	1.316572e-06	1.556330e-09	9.261329e+00	9.774415e+01
1.360000e-06	1.387411e-06	1.797792e-09	9.759639e+00	1.137130e+02
1.370000e-06	1.458043e-06	2.038773e-09	1.025650e+01	1.297091e+02
1.380000e-06	1.528433e-06	2.282106e-09	1.075165e+01	1.456884e+02
1.390000e-06	1.598516e-06	2.525566e-09	1.124464e+01	1.616001e+02
1.400000e-06	1.668271e-06	2.767097e-09	1.173532e+01	1.773900e+02
1.410000e-06	1.737759e-06	3.004705e-09	1.222413e+01	1.930052e+02
1.420000e-06	1.806988e-06	3.238359e-09	1.271112e+01	2.083980e+02
1.430000e-06	1.875918e-06	3.467557e-09	1.319601e+01	2.235277e+02
1.440000e-06	1.944573e-06	3.689394e-09	1.367895e+01	2.383609e+02
1.450000e-06	2.012935e-06	3.905605e-09	1.415984e+01	2.528700e+02
1.460000e-06	2.081030e-06	4.118168e-09	1.463885e+01	2.670310e+02
1.470000e-06	2.148869e-06	4.327872e-09	1.511606e+01	2.808224e+02
1.480000e-06	2.216428e-06	4.533951e-09	1.559130e+01	2.942248e+02
1.490000e-06	2.283638e-06	4.731732e-09	1.606408e+01	3.072227e+02
1.500000e-06	2.350268e-06	4.920945e-09	1.653278e+01	3.198061e+02
1.510000e-06	2.416212e-06	5.103734e-09	1.699666e+01	3.319727e+02
1.520000e-06	2.481532e-06	5.280585e-09	1.745615e+01	3.437286e+02
1.530000e-06	2.546323e-06	5.451056e-09	1.791192e+01	3.550869e+02
1.540000e-06	2.610676e-06	5.615784e-09	1.836460e+01	3.660653e+02
1.550000e-06	2.674647e-06	5.775714e-09	1.881460e+01	3.766815e+02
1.560000e-06	2.738240e-06	5.931463e-09	1.926195e+01	3.869497e+02
1.570000e-06	2.801379e-06	6.084896e-09	1.970609e+01	3.968777e+02
1.580000e-06	2.864031e-06	6.232653e-09	2.014681e+01	4.064668e+02
1.590000e-06	2.926212e-06	6.374526e-09	2.058421e+01	4.157127e+02
1.600000e-06	2.987937e-06	6.511920e-09	2.101842e+01	4.246097e+02
1.610000e-06	3.049138e-06	6.642132e-09	2.144893e+01	4.331540e+02
1.620000e-06	3.109838e-06	6.764599e-09	2.187592e+01	4.413476e+02
1.630000e-06	3.170076e-06	6.878008e-09	2.229966e+01	4.491996e+02
1.640000e-06	3.229829e-06	6.988385e-09	2.271999e+01	4.567262e+02
1.650000e-06	3.289041e-06	7.098137e-09	2.313651e+01	4.639481e+02
1.660000e-06	3.347523e-06	7.203309e-09	2.354790e+01	4.708875e+02
1.670000e-06	3.405133e-06	7.304190e-09	2.395315e+01	4.775648e+02
1.680000e-06	3.461925e-06	7.400358e-09	2.435265e+01	4.839958e+02
1.690000e-06	3.518127e-06	7.493202e-09	2.474800e+01	4.901918e+02
1.700000e-06	3.573806e-06	7.582594e-09	2.513967e+01	4.961603e+02
1.710000e-06	3.628929e-06	7.666795e-09	2.552743e+01	5.019072e+02
1.720000e-06	3.683471e-06	7.747412e-09	2.591110e+01	5.074395e+02
1.730000e-06	3.737372e-06	7.826483e-09	2.629026e+01	5.127669e+02
1.740000e-06	3.790650e-06	7.904217e-09	2.666504e+01	5.179029e+02
1.750000e-06	3.843255e-06	7.979029e-09	2.703509e+01	5.228635e+02
1.760000e-06	3.895130e-06	8.050897e-09	2.739999e+01	5.276651e+02
1.770000e-06	3.946208e-06	8.122078e-09	2.775930e+01	5.323222e+02
1.780000e-06	3.996300e-06	8.192597e-09	2.811167e+01	5.368448e+02
1.790000e-06	4.045399e-06	8.260277e-09	2.845705e+01	5.412374e+02
1.800000e-06	4.093728e-06	8.322781e-09	2.879702e+01	5.454996e+02
1.810000e-06	4.141404e-06	8.380845e-09	2.913240e+01	5.496277e+02
1.820000e-06	4.188428e-06	8.436192e-09	2.946318e+01	5.536172e+02
1.830000e-06	4.234733e-06	8.491566e-09	2.978891e+01	5.574656e+02
1.840000e-06	4.280303e-06	8.546165e-09	3.010947e+01	5.611740e+02
1.850000e-06	4.325167e-06	8.599467e-09	3.042506e+01	5.647476e+02
1.860000e-06	4.369424e-06	8.652240e-09	3.073638e+01	5.681948e+02
1.870000e-06	4.413168e-06	8.702412e-09	3.104409e+01	5.715250e+02
1.880000e-06	4.456063e-06	8.748746e-09	3.134584e+01	5.747462e+02
1.890000e-06	4.497814e-06	8.790961e-09	3.163953e+01	5.778632e+02
1.900000e-06	4.538517e-06	8.831814e-09	3.192586e+01	5.808764e+02
1.910000e-06	4.578424e-06	8.872306e-09	3.220658e+01	5.837827e+02
1.920000e-06	4.617670e-06	8.910415e-09	3.248265e+01	5.865771e+02
1.930000e-06	4.656122e-06	8.945295e-09	3.275314e+01	5.892555e+02
1.940000e-06	4.693771e-06	8.980133e-09	3.301798e+01	5.918167e+02
1.950000e-06	4.730661e-06	9.015895e-09	3.327748e+01	5.942645e+02
1.960000e-06	4.766810e-06	9.049812e-09	3.353176e+01	5.966069e+02
1.970000e-06	4.802194e-06	9.080208e-09	3.378067e+01	5.988553e+02
1.980000e-06	4.836640e-06	9.109680e-09	3.402298e+01	6.010211e+02
1.990000e-06	4.869977e-06	9.140668e-09	3.425749e+01	6.031136e+02
2.000000e-06	4.902296e-06	9.170518e-09	3.448483e+01	6.051371e+02
2.010000e-06	4.933838e-06	9.197295e-09	3.470671e+01	6.070904e+02
2.020000e-06	4.964594e-06	9.223153e-09	3.492306e+01	6.089675e+02
2.030000e-06	4.994523e-06	9.249613e-09	3.513359e+01	6.107601e+02
2.040000e-06	5.023699e-06	9.275366e-09	3.533883e+01	6.124609e+02
2.050000e-06	5.052143e-06	9.298200e-09	3.553891e+01	6.140668e+02
2.060000e-06	5.079851e-06	9.317329e-09	3.573383e+01	6.155804e+02
2.070000e-06	5.106603e-06	9.337486e-09	3.592201e+01	6.170111e+02
2.080000e-06	5.132101e-06	9.359283e-09	3.610138e+01	6.183723e+02
2.090000e-06	5.156503e-06	9.378664e-09	3.627303e+01	6.196790e+02
2.100000e-06	5.180061e-06	9.396880e-09	3.643875e+01	6.209432e+02
2.110000e-06	5.202769e-06	9.415479e-09	3.659849e+01	6.221714e+02
2.120000e-06	5.224607e-06	9.434110e-09	3.675211e+01	6.233619e+02
2.130000e-06	5.245624e-06	9.449455e-09	3.689994e+01	6.245064e+02
2.140000e-06	5.265915e-06	9.461328e-09	3.704268e+01	6.255917e+02
2.150000e-06	5.285514e-06	9.474940e-09	3.718055e+01	6.266040e+02
2.160000e-06	5.304178e-06	9.490287e-09	3.731184e+01	6.275333e+02
2.170000e-06	5.321754e-06	9.506196e-09	3.743548e+01	6.283767e+02
2.180000e-06	5.338426e-06	9.519588e-09	3.755275e+01	6.291396e+02
2.190000e-06	5.354164e-06	9.529403e-09	3.766346e+01	6.298350e+02
2.200000e-06	5.368827e-06	9.538273e-09	3.776661e+01	6.304800e+02
2.210000e-06	5.382486e-06	9.546105e-09	3.786269e+01	6.310913e+02
2.220000e-06	5.395201e-06	9.553349e-09	3.795213e+01	6.316812e+02
2.230000e-06	5.406910e-06	9.559926e-09	3.803450e+01	6.322536e+02
2.240000e-06	5.417394e-06	9.569042e-09	3.810825e+01	6.328041e+02
2.250000e-06	5.426597e-06	9.580967e-09	3.817298e+01	6.333210e+02
2.260000e-06	5.434799e-06	9.590372e-09	3.823068e+01	6.337891e+02
2.270000e-06	5.442144e-06	9.596970e-09	3.828235e+01	6.341946e+02
2.280000e-06	5.448568e-06	9.602500e-09	3.832754e+01	6.345292e+02
2.290000e-06	5.454050e-06	9.608115e-09	3.836610e+01	6.347925e+02
2.300000e-06	5.458681e-06	9.611249e-09	3.839868e+01	6.349915e+02
2.310000e-06	5.462525e-06	9.611651e-09	3.842572e+01	6.351389e+02
2.320000e-06	5.465331e-06	9.612796e-09	3.844546e+01	6.352481e+02
2.330000e-06	5.466884e-06	9.616403e-09	3.845638e+01	6.353293e+02
2.340000e-06	5.467398e-06	9.618900e-09	3.846000e+01	6.353858e+02
2.350000e-06	5.467029e-06	9.618192e-09	3.845740e+01	6.354135e+02
2.360000e-06	5.465781e-06	9.618036e-09	3.844862e+01	6.354022e+02
2.370000e-06	5.463672e-06	9.616748e-09	3.843379e+01	6.353393e+02
2.380000e-06	5.460701e-06	9.614786e-09	3.841289e+01	6.352144e+02
2.390000e-06	5.456994e-06	9.611823e-09	3.838681e+01	6.350229e+02
2.400000e-06	5.452486e-06	9.606535e-09	3.835510e+01	6.347678e+02
2.410000e-06	5.446911e-06	9.600393e-09	3.831588e+01	6.344584e+02
2.420000e-06	5.440204e-06	9.609981e-09	3.826871e+01	6.341078e+02
2.430000e-06	5.432588e-06	9.608167e-09	3.821513e+01	6.337279e+02
2.440000e-06	5.424022e-06	9.566774e-09	3.815487e+01	6.333267e+02
2.450000e-06	5.414081e-06	9.524621e-09	3.808494e+01	6.329059e+02
2.460000e-06	5.402780e-06	9.566057e-09	3.800545e+01	6.324631e+02
2.470000e-06	5.390804e-06	9.650386e-09	3.792121e+01	6.319948e+02
2.480000e-06	5.378538e-06	9.588696e-09	3.783492e+01	6.315013e+02
2.490000e-06	5.365272e-06	9.472103e-09	3.774160e+01	6.309909e+02
2.500000e-06	5.350487e-06	9.586682e-09	3.763760e+01	6.304800e+02
2.510000e-06	5.334757e-06	9.619744e-09	3.752695e+01	6.299907e+02
2.520000e-06	5.318305e-06	9.465653e-09	3.741121e+01	6.295440e+02
2.530000e-06	5.300750e-06	9.566800e-09	3.728772e+01	6.291516e+02
2.540000e-06	5.282318e-06	9.627870e-09	3.715807e+01	6.288081e+02
2.550000e-06	5.263252e-06	9.485411e-09	3.702395e+01	6.284876e+02
2.560000e-06	5.243336e-06	9.560731e-09	3.688385e+01	6.281447e+02
2.570000e-06	5.222584e-06	9.622006e-09	3.673787e+01	6.277226e+02
2.580000e-06	5.200781e-06	9.471379e-09	3.658450e+01	6.271646e+02
2.590000e-06	5.177677e-06	9.542444e-09	3.642198e+01	6.264265e+02
2.600000e-06	5.153685e-06	9.588080e-09	3.625321e+01	6.254876e+02
2.610000e-06	5.128904e-06	9.469515e-09	3.607889e+01	6.243548e+02
2.620000e-06	5.103036e-06	9.533409e-09	3.589692e+01	6.230602e+02
2.630000e-06	5.076250e-06	9.481020e-09	3.570850e+01	6.216521e+02
2.640000e-06	5.048776e-06	9.424512e-09	3.551523e+01	6.201814e+02
2.650000e-06	5.020455e-06	9.485384e-09	3.531601e+01	6.186887e+02
2.660000e-06	4.991083e-06	9.382912e-09	3.510939e+01	6.171949e+02
2.670000e-06	4.960517e-06	9.374158e-09	3.489438e+01	6.156978e+02
2.680000e-06	4.928939e-06	9.403060e-09	3.467225e+01	6.141766e+02
2.690000e-06	4.896604e-06	9.343864e-09	3.444479e+01	6.126010e+02
2.700000e-06	4.863380e-06	9.331257e-09	3.421108e+01	6.109426e+02
2.710000e-06	4.829326e-06	9.283389e-09	3.397153e+01	6.091847e+02
2.720000e-06	4.794540e-06	9.260735e-09	3.372683e+01	6.073268e+02
2.730000e-06	4.759013e-06	9.247062e-09	3.347691e+01	6.053834e+02
2.740000e-06	4.722651e-06	9.216012e-09	3.322113e+01	6.033776e+02
2.750000e-06	4.685171e-06	9.197653e-09	3.295748e+01	6.013316e+02
2.760000e-06	4.646621e-06	9.135357e-09	3.268631e+01	5.992583e+02
2.770000e-06	4.607246e-06	9.108427e-09	3.240933e+01	5.971570e+02
2.780000e-06	4.567145e-06	9.086920e-09	3.212723e+01	5.950136e+02
2.790000e-06	4.526338e-06	9.036465e-09	3.184018e+01	5.928065e+02
2.800000e-06	4.484797e-06	9.018794e-09	3.154796e+01	5.905143e+02
2.810000e-06	4.442514e-06	8.988719e-09	3.125053e+01	5.881242e+02
2.820000e-06	4.399556e-06	8.952930e-09	3.094834e+01	5.856358e+02
2.830000e-06	4.356017e-06	8.906521e-09	3.064207e+01	5.830609e+02
2.840000e-06	4.311913e-06	8.846967e-09	3.033183e+01	5.804188e+02
2.850000e-06	4.266963e-06	8.812888e-09	3.001563e+01	5.777287e+02
2.860000e-06	4.221210e-06	8.776990e-09	2.969378e+01	5.750022e+02
2.870000e-06	4.174775e-06	8.738827e-09	2.936714e+01	5.722395e+02
2.880000e-06	4.127593e-06	8.701251e-09	2.903524e+01	5.694289e+02
2.890000e-06	4.079685e-06	8.653225e-09	2.869824e+01	5.665519e+02
2.900000e-06	4.030923e-06	8.603651e-09	2.835523e+01	5.635893e+02
2.910000e-06	3.981399e-06	8.555479e-09	2.800685e+01	5.605285e+02
2.920000e-06	3.931242e-06	8.511512e-09	2.765402e+01	5.573672e+02
2.930000e-06	3.880439e-06	8.460591e-09	2.729666e+01	5.541134e+02
2.940000e-06	3.828920e-06	8.411201e-09	2.693425e+01	5.507810e+02
2.950000e-06	3.776570e-06	8.366376e-09	2.656599e+01	5.473837e+02
