# Temperatura_=_20.0
# Concentracion g/m^3_=_10000.0
# C_Vs_to_Am_M_A/Vsm_=_65563218390.804596
# pendiente_HvsI_1/m_=_3716.3
# ordenada_HvsI_A/m_=_1297.0
# frecuencia_Hz_=_212867.2448569099

Tiempo_(s)	Campo_(V.s)	Magnetizacion_(V.s)	Campo_(kA/m)	Magnetizacion_(A/m)
0.000000e+00	-5.462621e-06	-9.785237e-09	-3.843307e+01	-6.377090e+02
1.000000e-08	-5.462037e-06	-9.787181e-09	-3.842897e+01	-6.378320e+02
2.000000e-08	-5.460428e-06	-9.787533e-09	-3.841765e+01	-6.378376e+02
3.000000e-08	-5.457552e-06	-9.783156e-09	-3.839741e+01	-6.376925e+02
4.000000e-08	-5.453671e-06	-9.775265e-09	-3.837010e+01	-6.374030e+02
5.000000e-08	-5.449022e-06	-9.768467e-09	-3.833740e+01	-6.370124e+02
6.000000e-08	-5.443533e-06	-9.762004e-09	-3.829877e+01	-6.365847e+02
7.000000e-08	-5.437067e-06	-9.745607e-09	-3.825329e+01	-6.361800e+02
8.000000e-08	-5.429649e-06	-9.732302e-09	-3.820110e+01	-6.358323e+02
9.000000e-08	-5.421349e-06	-9.763131e-09	-3.814270e+01	-6.355377e+02
1.000000e-07	-5.411853e-06	-9.801742e-09	-3.807589e+01	-6.352577e+02
1.100000e-07	-5.400911e-06	-9.782217e-09	-3.799890e+01	-6.349365e+02
1.200000e-07	-5.388940e-06	-9.664415e-09	-3.791468e+01	-6.345245e+02
1.300000e-07	-5.376239e-06	-9.635604e-09	-3.782532e+01	-6.339994e+02
1.400000e-07	-5.362652e-06	-9.787434e-09	-3.772972e+01	-6.333757e+02
1.500000e-07	-5.348131e-06	-9.738462e-09	-3.762756e+01	-6.326988e+02
1.600000e-07	-5.332616e-06	-9.590044e-09	-3.751840e+01	-6.320266e+02
1.700000e-07	-5.315844e-06	-9.687350e-09	-3.740040e+01	-6.314052e+02
1.800000e-07	-5.298011e-06	-9.719381e-09	-3.727494e+01	-6.308491e+02
1.900000e-07	-5.279497e-06	-9.595565e-09	-3.714468e+01	-6.303334e+02
2.000000e-07	-5.260252e-06	-9.661784e-09	-3.700928e+01	-6.298013e+02
2.100000e-07	-5.240173e-06	-9.691358e-09	-3.686801e+01	-6.291843e+02
2.200000e-07	-5.219322e-06	-9.545754e-09	-3.672131e+01	-6.284263e+02
2.300000e-07	-5.197585e-06	-9.606468e-09	-3.656837e+01	-6.275031e+02
2.400000e-07	-5.174814e-06	-9.662786e-09	-3.640817e+01	-6.264290e+02
2.500000e-07	-5.151176e-06	-9.535875e-09	-3.624185e+01	-6.252486e+02
2.600000e-07	-5.126770e-06	-9.506714e-09	-3.607015e+01	-6.240174e+02
2.700000e-07	-5.101426e-06	-9.525490e-09	-3.589183e+01	-6.227784e+02
2.800000e-07	-5.074964e-06	-9.508985e-09	-3.570565e+01	-6.215457e+02
2.900000e-07	-5.047391e-06	-9.494294e-09	-3.551166e+01	-6.202999e+02
3.000000e-07	-5.018869e-06	-9.442676e-09	-3.531099e+01	-6.189981e+02
3.100000e-07	-4.989549e-06	-9.423962e-09	-3.510471e+01	-6.175933e+02
3.200000e-07	-4.959404e-06	-9.444669e-09	-3.489261e+01	-6.160555e+02
3.300000e-07	-4.928366e-06	-9.393073e-09	-3.467424e+01	-6.143854e+02
3.400000e-07	-4.896507e-06	-9.332185e-09	-3.445009e+01	-6.126151e+02
3.500000e-07	-4.863909e-06	-9.317207e-09	-3.422074e+01	-6.107956e+02
3.600000e-07	-4.830476e-06	-9.294208e-09	-3.398552e+01	-6.089761e+02
3.700000e-07	-4.795925e-06	-9.285106e-09	-3.374243e+01	-6.071834e+02
3.800000e-07	-4.760245e-06	-9.263973e-09	-3.349140e+01	-6.054110e+02
3.900000e-07	-4.723753e-06	-9.203370e-09	-3.323466e+01	-6.036203e+02
4.000000e-07	-4.686566e-06	-9.177825e-09	-3.297302e+01	-6.017564e+02
4.100000e-07	-4.648586e-06	-9.174282e-09	-3.270581e+01	-5.997690e+02
4.200000e-07	-4.609722e-06	-9.134916e-09	-3.243238e+01	-5.976329e+02
4.300000e-07	-4.570033e-06	-9.074713e-09	-3.215314e+01	-5.953570e+02
4.400000e-07	-4.529811e-06	-9.040664e-09	-3.187015e+01	-5.929811e+02
4.500000e-07	-4.488911e-06	-9.021511e-09	-3.158239e+01	-5.905588e+02
4.600000e-07	-4.446950e-06	-8.985258e-09	-3.128717e+01	-5.881364e+02
4.700000e-07	-4.403902e-06	-8.942173e-09	-3.098430e+01	-5.857334e+02
4.800000e-07	-4.359990e-06	-8.898128e-09	-3.067535e+01	-5.833349e+02
4.900000e-07	-4.315497e-06	-8.872964e-09	-3.036231e+01	-5.808978e+02
5.000000e-07	-4.270346e-06	-8.847910e-09	-3.004465e+01	-5.783675e+02
5.100000e-07	-4.224422e-06	-8.793419e-09	-2.972154e+01	-5.756997e+02
5.200000e-07	-4.177794e-06	-8.735843e-09	-2.939348e+01	-5.728779e+02
5.300000e-07	-4.130468e-06	-8.686797e-09	-2.906051e+01	-5.699188e+02
5.400000e-07	-4.082436e-06	-8.649476e-09	-2.872258e+01	-5.668653e+02
5.500000e-07	-4.033704e-06	-8.609833e-09	-2.837972e+01	-5.637682e+02
5.600000e-07	-3.984115e-06	-8.555145e-09	-2.803083e+01	-5.606656e+02
5.700000e-07	-3.933451e-06	-8.506605e-09	-2.767437e+01	-5.575669e+02
5.800000e-07	-3.881801e-06	-8.468868e-09	-2.731098e+01	-5.544494e+02
5.900000e-07	-3.829384e-06	-8.428494e-09	-2.694219e+01	-5.512671e+02
6.000000e-07	-3.776222e-06	-8.364151e-09	-2.656817e+01	-5.479685e+02
6.100000e-07	-3.722299e-06	-8.294944e-09	-2.618878e+01	-5.445171e+02
6.200000e-07	-3.667700e-06	-8.246610e-09	-2.580465e+01	-5.409040e+02
6.300000e-07	-3.612544e-06	-8.198898e-09	-2.541659e+01	-5.371507e+02
6.400000e-07	-3.556864e-06	-8.136466e-09	-2.502484e+01	-5.332982e+02
6.500000e-07	-3.500682e-06	-8.063876e-09	-2.462956e+01	-5.293902e+02
6.600000e-07	-3.443862e-06	-8.006068e-09	-2.422979e+01	-5.254540e+02
6.700000e-07	-3.386230e-06	-7.961208e-09	-2.382432e+01	-5.214906e+02
6.800000e-07	-3.327755e-06	-7.902450e-09	-2.341291e+01	-5.174742e+02
6.900000e-07	-3.268535e-06	-7.830391e-09	-2.299626e+01	-5.133638e+02
7.000000e-07	-3.208723e-06	-7.757478e-09	-2.257544e+01	-5.091201e+02
7.100000e-07	-3.148378e-06	-7.693054e-09	-2.215087e+01	-5.047212e+02
7.200000e-07	-3.087530e-06	-7.624526e-09	-2.172277e+01	-5.001704e+02
7.300000e-07	-3.026210e-06	-7.545076e-09	-2.129135e+01	-4.954937e+02
7.400000e-07	-2.964391e-06	-7.467551e-09	-2.085641e+01	-4.907265e+02
7.500000e-07	-2.902003e-06	-7.399339e-09	-2.041747e+01	-4.858980e+02
7.600000e-07	-2.839149e-06	-7.336520e-09	-1.997525e+01	-4.810175e+02
7.700000e-07	-2.775884e-06	-7.261320e-09	-1.953014e+01	-4.760694e+02
7.800000e-07	-2.712112e-06	-7.175171e-09	-1.908146e+01	-4.710195e+02
7.900000e-07	-2.647934e-06	-7.090140e-09	-1.862993e+01	-4.658287e+02
8.000000e-07	-2.583435e-06	-7.007036e-09	-1.817614e+01	-4.604692e+02
8.100000e-07	-2.518478e-06	-6.920719e-09	-1.771912e+01	-4.549357e+02
8.200000e-07	-2.453081e-06	-6.825910e-09	-1.725901e+01	-4.492472e+02
8.300000e-07	-2.387157e-06	-6.735025e-09	-1.679519e+01	-4.434388e+02
8.400000e-07	-2.320635e-06	-6.653361e-09	-1.632717e+01	-4.375461e+02
8.500000e-07	-2.253643e-06	-6.569401e-09	-1.585583e+01	-4.315899e+02
8.600000e-07	-2.186193e-06	-6.477610e-09	-1.538128e+01	-4.255663e+02
8.700000e-07	-2.118354e-06	-6.378549e-09	-1.490399e+01	-4.194476e+02
8.800000e-07	-2.050279e-06	-6.281234e-09	-1.442504e+01	-4.131925e+02
8.900000e-07	-1.982011e-06	-6.183232e-09	-1.394473e+01	-4.067623e+02
9.000000e-07	-1.913494e-06	-6.075321e-09	-1.346267e+01	-4.001356e+02
9.100000e-07	-1.844705e-06	-5.963396e-09	-1.297869e+01	-3.933162e+02
9.200000e-07	-1.775609e-06	-5.855940e-09	-1.249256e+01	-3.863303e+02
9.300000e-07	-1.706198e-06	-5.755315e-09	-1.200421e+01	-3.792140e+02
9.400000e-07	-1.636509e-06	-5.651671e-09	-1.151390e+01	-3.719972e+02
9.500000e-07	-1.566575e-06	-5.538886e-09	-1.102187e+01	-3.646896e+02
9.600000e-07	-1.496357e-06	-5.424059e-09	-1.052784e+01	-3.572749e+02
9.700000e-07	-1.425862e-06	-5.309839e-09	-1.003186e+01	-3.497158e+02
9.800000e-07	-1.355057e-06	-5.191693e-09	-9.533703e+00	-3.419670e+02
9.900000e-07	-1.283945e-06	-5.063286e-09	-9.033380e+00	-3.339924e+02
1.000000e-06	-1.212612e-06	-4.929977e-09	-8.531513e+00	-3.257772e+02
1.010000e-06	-1.141029e-06	-4.801743e-09	-8.027881e+00	-3.173325e+02
1.020000e-06	-1.069255e-06	-4.676024e-09	-7.522899e+00	-3.086886e+02
1.030000e-06	-9.973681e-07	-4.545399e-09	-7.017130e+00	-2.998811e+02
1.040000e-06	-9.253501e-07	-4.406568e-09	-6.510437e+00	-2.909346e+02
1.050000e-06	-8.532227e-07	-4.266193e-09	-6.002974e+00	-2.818519e+02
1.060000e-06	-7.810013e-07	-4.125730e-09	-5.494849e+00	-2.726112e+02
1.070000e-06	-7.086652e-07	-3.979246e-09	-4.985918e+00	-2.631740e+02
1.080000e-06	-6.361785e-07	-3.824342e-09	-4.475928e+00	-2.534992e+02
1.090000e-06	-5.635611e-07	-3.666663e-09	-3.965017e+00	-2.435574e+02
1.100000e-06	-4.908789e-07	-3.512871e-09	-3.453651e+00	-2.333407e+02
1.110000e-06	-4.180807e-07	-3.355170e-09	-2.941468e+00	-2.228629e+02
1.120000e-06	-3.451834e-07	-3.188503e-09	-2.428588e+00	-2.121502e+02
1.130000e-06	-2.722583e-07	-3.018282e-09	-1.915513e+00	-2.012282e+02
1.140000e-06	-1.992994e-07	-2.848680e-09	-1.402200e+00	-1.901085e+02
1.150000e-06	-1.263355e-07	-2.677778e-09	-8.888520e-01	-1.787824e+02
1.160000e-06	-5.336196e-08	-2.499847e-09	-3.754359e-01	-1.672226e+02
1.170000e-06	1.962222e-08	-2.314323e-09	1.380550e-01	-1.553933e+02
1.180000e-06	9.266739e-08	-2.126918e-09	6.519751e-01	-1.432636e+02
1.190000e-06	1.657023e-07	-1.936108e-09	1.165823e+00	-1.308184e+02
1.200000e-06	2.386354e-07	-1.739085e-09	1.678954e+00	-1.180627e+02
1.210000e-06	3.114771e-07	-1.538458e-09	2.191443e+00	-1.050175e+02
1.220000e-06	3.841598e-07	-1.336256e-09	2.702813e+00	-9.170860e+01
1.230000e-06	4.567129e-07	-1.132079e-09	3.213271e+00	-7.815523e+01
1.240000e-06	5.291926e-07	-9.234559e-10	3.723212e+00	-6.436111e+01
1.250000e-06	6.015740e-07	-7.084078e-10	4.232462e+00	-5.031400e+01
1.260000e-06	6.738188e-07	-4.874682e-10	4.740751e+00	-3.599284e+01
1.270000e-06	7.459555e-07	-2.637906e-10	5.248280e+00	-2.137990e+01
1.280000e-06	8.180396e-07	-3.647709e-11	5.755438e+00	-6.472634e+00
1.290000e-06	8.900482e-07	1.964355e-10	6.262065e+00	8.709969e+00
1.300000e-06	9.619258e-07	4.331855e-10	6.767770e+00	2.412916e+01
1.310000e-06	1.033681e-06	6.706837e-10	7.272615e+00	3.973567e+01
1.320000e-06	1.105298e-06	9.083136e-10	7.776485e+00	5.548224e+01
1.330000e-06	1.176747e-06	1.148812e-09	8.279173e+00	7.133406e+01
1.340000e-06	1.248018e-06	1.391693e-09	8.780613e+00	8.727221e+01
1.350000e-06	1.319095e-06	1.635227e-09	9.280687e+00	1.032885e+02
1.360000e-06	1.389936e-06	1.878810e-09	9.779098e+00	1.193738e+02
1.370000e-06	1.460513e-06	2.123859e-09	1.027566e+01	1.355047e+02
1.380000e-06	1.530879e-06	2.370780e-09	1.077073e+01	1.516345e+02
1.390000e-06	1.601020e-06	2.615921e-09	1.126421e+01	1.676935e+02
1.400000e-06	1.670881e-06	2.856707e-09	1.175573e+01	1.835984e+02
1.410000e-06	1.740428e-06	3.093588e-09	1.224504e+01	1.992677e+02
1.420000e-06	1.809647e-06	3.327717e-09	1.273204e+01	2.146388e+02
1.430000e-06	1.878516e-06	3.558000e-09	1.321657e+01	2.296771e+02
1.440000e-06	1.947072e-06	3.779899e-09	1.369891e+01	2.443767e+02
1.450000e-06	2.015386e-06	3.995211e-09	1.417955e+01	2.587498e+02
1.460000e-06	2.083492e-06	4.207715e-09	1.465872e+01	2.728104e+02
1.470000e-06	2.151378e-06	4.416716e-09	1.513633e+01	2.865586e+02
1.480000e-06	2.219017e-06	4.621463e-09	1.561222e+01	2.999723e+02
1.490000e-06	2.286320e-06	4.817337e-09	1.608574e+01	3.130093e+02
1.500000e-06	2.352992e-06	5.006344e-09	1.655482e+01	3.256202e+02
1.510000e-06	2.418976e-06	5.190243e-09	1.701906e+01	3.377656e+02
1.520000e-06	2.484324e-06	5.367331e-09	1.747882e+01	3.494324e+02
1.530000e-06	2.549043e-06	5.537105e-09	1.793417e+01	3.606403e+02
1.540000e-06	2.613309e-06	5.699478e-09	1.838632e+01	3.714367e+02
1.550000e-06	2.677255e-06	5.857261e-09	1.883622e+01	3.818812e+02
1.560000e-06	2.740869e-06	6.010691e-09	1.928379e+01	3.920253e+02
1.570000e-06	2.804012e-06	6.160311e-09	1.972804e+01	4.018946e+02
1.580000e-06	2.866595e-06	6.306360e-09	2.016835e+01	4.114814e+02
1.590000e-06	2.928707e-06	6.449141e-09	2.060535e+01	4.207498e+02
1.600000e-06	2.990353e-06	6.589187e-09	2.103907e+01	4.296510e+02
1.610000e-06	3.051458e-06	6.721402e-09	2.146898e+01	4.381448e+02
1.620000e-06	3.112054e-06	6.843501e-09	2.189532e+01	4.462164e+02
1.630000e-06	3.172264e-06	6.957181e-09	2.231893e+01	4.538843e+02
1.640000e-06	3.232076e-06	7.064883e-09	2.273974e+01	4.611959e+02
1.650000e-06	3.291316e-06	7.169247e-09	2.315654e+01	4.682124e+02
1.660000e-06	3.349753e-06	7.270357e-09	2.356768e+01	4.749894e+02
1.670000e-06	3.407207e-06	7.368927e-09	2.397191e+01	4.815615e+02
1.680000e-06	3.463879e-06	7.466145e-09	2.437063e+01	4.879351e+02
1.690000e-06	3.520041e-06	7.561284e-09	2.476577e+01	4.940941e+02
1.700000e-06	3.575769e-06	7.651046e-09	2.515785e+01	5.000131e+02
1.710000e-06	3.630939e-06	7.732894e-09	2.554600e+01	5.056746e+02
1.720000e-06	3.685440e-06	7.810039e-09	2.592946e+01	5.110818e+02
1.730000e-06	3.739287e-06	7.886508e-09	2.630830e+01	5.162618e+02
1.740000e-06	3.792544e-06	7.962544e-09	2.668300e+01	5.212594e+02
1.750000e-06	3.845157e-06	8.036657e-09	2.705317e+01	5.261222e+02
1.760000e-06	3.897036e-06	8.109775e-09	2.741817e+01	5.308854e+02
1.770000e-06	3.947972e-06	8.182805e-09	2.777654e+01	5.355609e+02
1.780000e-06	3.997791e-06	8.253209e-09	2.812704e+01	5.401356e+02
1.790000e-06	4.046650e-06	8.319796e-09	2.847080e+01	5.445799e+02
1.800000e-06	4.094850e-06	8.381242e-09	2.880992e+01	5.488613e+02
1.810000e-06	4.142473e-06	8.439707e-09	2.914498e+01	5.529592e+02
1.820000e-06	4.189363e-06	8.497943e-09	2.947488e+01	5.568739e+02
1.830000e-06	4.235567e-06	8.554293e-09	2.979995e+01	5.606264e+02
1.840000e-06	4.281109e-06	8.606766e-09	3.012037e+01	5.642502e+02
1.850000e-06	4.325929e-06	8.657161e-09	3.043571e+01	5.677781e+02
1.860000e-06	4.370190e-06	8.709651e-09	3.074711e+01	5.712300e+02
1.870000e-06	4.413910e-06	8.761274e-09	3.105471e+01	5.746067e+02
1.880000e-06	4.456760e-06	8.808221e-09	3.135619e+01	5.778913e+02
1.890000e-06	4.498444e-06	8.851305e-09	3.164947e+01	5.810583e+02
1.900000e-06	4.539089e-06	8.892434e-09	3.193543e+01	5.840854e+02
1.910000e-06	4.579032e-06	8.933749e-09	3.221645e+01	5.869629e+02
1.920000e-06	4.618312e-06	8.971308e-09	3.249281e+01	5.896979e+02
1.930000e-06	4.656806e-06	9.005029e-09	3.276364e+01	5.923102e+02
1.940000e-06	4.694456e-06	9.040936e-09	3.302853e+01	5.948241e+02
1.950000e-06	4.731329e-06	9.078750e-09	3.328796e+01	5.972581e+02
1.960000e-06	4.767561e-06	9.115127e-09	3.354287e+01	5.996184e+02
1.970000e-06	4.803032e-06	9.145657e-09	3.379244e+01	6.018985e+02
1.980000e-06	4.837399e-06	9.173584e-09	3.403423e+01	6.040846e+02
1.990000e-06	4.870631e-06	9.202759e-09	3.426804e+01	6.061645e+02
2.000000e-06	4.902955e-06	9.231158e-09	3.449546e+01	6.081354e+02
2.010000e-06	4.934457e-06	9.256822e-09	3.471710e+01	6.100068e+02
2.020000e-06	4.965181e-06	9.281455e-09	3.493326e+01	6.117977e+02
2.030000e-06	4.995138e-06	9.308547e-09	3.514403e+01	6.135286e+02
2.040000e-06	5.024233e-06	9.336006e-09	3.534873e+01	6.152127e+02
2.050000e-06	5.052597e-06	9.360727e-09	3.554829e+01	6.168500e+02
2.060000e-06	5.080314e-06	9.380704e-09	3.574330e+01	6.184274e+02
2.070000e-06	5.106984e-06	9.399400e-09	3.593093e+01	6.199255e+02
2.080000e-06	5.132398e-06	9.419128e-09	3.610974e+01	6.213286e+02
2.090000e-06	5.156793e-06	9.437923e-09	3.628138e+01	6.226335e+02
2.100000e-06	5.180326e-06	9.455701e-09	3.644695e+01	6.238533e+02
2.110000e-06	5.203016e-06	9.473604e-09	3.660658e+01	6.250132e+02
2.120000e-06	5.224863e-06	9.492831e-09	3.676029e+01	6.261407e+02
2.130000e-06	5.245892e-06	9.510417e-09	3.690825e+01	6.272533e+02
2.140000e-06	5.266223e-06	9.523877e-09	3.705128e+01	6.283495e+02
2.150000e-06	5.285790e-06	9.536873e-09	3.718895e+01	6.294079e+02
2.160000e-06	5.304291e-06	9.550610e-09	3.731912e+01	6.303945e+02
2.170000e-06	5.321787e-06	9.562688e-09	3.744221e+01	6.312772e+02
2.180000e-06	5.338379e-06	9.572701e-09	3.755895e+01	6.320399e+02
2.190000e-06	5.353883e-06	9.581842e-09	3.766803e+01	6.326923e+02
2.200000e-06	5.368348e-06	9.592805e-09	3.776980e+01	6.332685e+02
2.210000e-06	5.381947e-06	9.604615e-09	3.786548e+01	6.338160e+02
2.220000e-06	5.394665e-06	9.614560e-09	3.795496e+01	6.343781e+02
2.230000e-06	5.406379e-06	9.622675e-09	3.803738e+01	6.349759e+02
2.240000e-06	5.416859e-06	9.630799e-09	3.811111e+01	6.355993e+02
2.250000e-06	5.426043e-06	9.639584e-09	3.817573e+01	6.362085e+02
2.260000e-06	5.434205e-06	9.646357e-09	3.823315e+01	6.367485e+02
2.270000e-06	5.441505e-06	9.652663e-09	3.828451e+01	6.371698e+02
2.280000e-06	5.447900e-06	9.658070e-09	3.832950e+01	6.374484e+02
2.290000e-06	5.453393e-06	9.664884e-09	3.836815e+01	6.375962e+02
2.300000e-06	5.458041e-06	9.670380e-09	3.840085e+01	6.376583e+02
2.310000e-06	5.461847e-06	9.671483e-09	3.842763e+01	6.376965e+02
2.320000e-06	5.464572e-06	9.671622e-09	3.844680e+01	6.377661e+02
2.330000e-06	5.466018e-06	9.672598e-09	3.845697e+01	6.378949e+02
2.340000e-06	5.466448e-06	9.674263e-09	3.846000e+01	6.380714e+02
2.350000e-06	5.466043e-06	9.675152e-09	3.845715e+01	6.382490e+02
2.360000e-06	5.464763e-06	9.676427e-09	3.844814e+01	6.383629e+02
2.370000e-06	5.462633e-06	9.678029e-09	3.843316e+01	6.383545e+02
2.380000e-06	5.459672e-06	9.679540e-09	3.841232e+01	6.381942e+02
2.390000e-06	5.456009e-06	9.677045e-09	3.838655e+01	6.378923e+02
2.400000e-06	5.451549e-06	9.669841e-09	3.835517e+01	6.374951e+02
2.410000e-06	5.445971e-06	9.667919e-09	3.831593e+01	6.370674e+02
2.420000e-06	5.439234e-06	9.686707e-09	3.826853e+01	6.366676e+02
2.430000e-06	5.431588e-06	9.661522e-09	3.821473e+01	6.363262e+02
2.440000e-06	5.422972e-06	9.590069e-09	3.815411e+01	6.360354e+02
2.450000e-06	5.412946e-06	9.562463e-09	3.808358e+01	6.357541e+02
2.460000e-06	5.401561e-06	9.672765e-09	3.800348e+01	6.354258e+02
2.470000e-06	5.389586e-06	9.760440e-09	3.791922e+01	6.350031e+02
2.480000e-06	5.377350e-06	9.585503e-09	3.783314e+01	6.344671e+02
2.490000e-06	5.364007e-06	9.515984e-09	3.773926e+01	6.338358e+02
2.500000e-06	5.349088e-06	9.701276e-09	3.763429e+01	6.331569e+02
2.510000e-06	5.333313e-06	9.639678e-09	3.752331e+01	6.324882e+02
2.520000e-06	5.316869e-06	9.501652e-09	3.740761e+01	6.318735e+02
2.530000e-06	5.299252e-06	9.647237e-09	3.728366e+01	6.313234e+02
2.540000e-06	5.280759e-06	9.615549e-09	3.715355e+01	6.308091e+02
2.550000e-06	5.261700e-06	9.474574e-09	3.701947e+01	6.302718e+02
2.560000e-06	5.241830e-06	9.623714e-09	3.687967e+01	6.296430e+02
2.570000e-06	5.221118e-06	9.607502e-09	3.673394e+01	6.288691e+02
2.580000e-06	5.199273e-06	9.438530e-09	3.658025e+01	6.279297e+02
2.590000e-06	5.176138e-06	9.544031e-09	3.641748e+01	6.268427e+02
2.600000e-06	5.152137e-06	9.565963e-09	3.624862e+01	6.256550e+02
2.610000e-06	5.127271e-06	9.479946e-09	3.607367e+01	6.244216e+02
2.620000e-06	5.101351e-06	9.508861e-09	3.589131e+01	6.231833e+02
2.630000e-06	5.074586e-06	9.433199e-09	3.570299e+01	6.219509e+02
2.640000e-06	5.047142e-06	9.442409e-09	3.550991e+01	6.207018e+02
2.650000e-06	5.018875e-06	9.491265e-09	3.531103e+01	6.193919e+02
2.660000e-06	4.989543e-06	9.347429e-09	3.510466e+01	6.179749e+02
2.670000e-06	4.958943e-06	9.364613e-09	3.488938e+01	6.164234e+02
2.680000e-06	4.927340e-06	9.411923e-09	3.466703e+01	6.147415e+02
2.690000e-06	4.894998e-06	9.329920e-09	3.443948e+01	6.129640e+02
2.700000e-06	4.861756e-06	9.331126e-09	3.420560e+01	6.111427e+02
2.710000e-06	4.827652e-06	9.272073e-09	3.396566e+01	6.093253e+02
2.720000e-06	4.792768e-06	9.224351e-09	3.372023e+01	6.075357e+02
2.730000e-06	4.757151e-06	9.244993e-09	3.346963e+01	6.057638e+02
2.740000e-06	4.720746e-06	9.203394e-09	3.321350e+01	6.039685e+02
2.750000e-06	4.683252e-06	9.170398e-09	3.294970e+01	6.020944e+02
2.760000e-06	4.644667e-06	9.136682e-09	3.267824e+01	6.000929e+02
2.770000e-06	4.605277e-06	9.120768e-09	3.240110e+01	5.979419e+02
2.780000e-06	4.565180e-06	9.092160e-09	3.211900e+01	5.956540e+02
2.790000e-06	4.524346e-06	9.022611e-09	3.183170e+01	5.932712e+02
2.800000e-06	4.482771e-06	8.998142e-09	3.153919e+01	5.908473e+02
2.810000e-06	4.440468e-06	8.970118e-09	3.124156e+01	5.884267e+02
2.820000e-06	4.397488e-06	8.941952e-09	3.093917e+01	5.860255e+02
2.830000e-06	4.353903e-06	8.898011e-09	3.063252e+01	5.836256e+02
2.840000e-06	4.309730e-06	8.831586e-09	3.032174e+01	5.811818e+02
2.850000e-06	4.264743e-06	8.811482e-09	3.000522e+01	5.786396e+02
2.860000e-06	4.218847e-06	8.783048e-09	2.968232e+01	5.759567e+02
2.870000e-06	4.172256e-06	8.743516e-09	2.935452e+01	5.731200e+02
2.880000e-06	4.125009e-06	8.697978e-09	2.902211e+01	5.701494e+02
2.890000e-06	4.077073e-06	8.637111e-09	2.868484e+01	5.670895e+02
2.900000e-06	4.028298e-06	8.598203e-09	2.834168e+01	5.639907e+02
2.910000e-06	3.978722e-06	8.552606e-09	2.799288e+01	5.608887e+02
2.920000e-06	3.928496e-06	8.496873e-09	2.763951e+01	5.577898e+02
2.930000e-06	3.877636e-06	8.441408e-09	2.728168e+01	5.546684e+02
2.940000e-06	3.826064e-06	8.403958e-09	2.691884e+01	5.514768e+02
2.950000e-06	3.773649e-06	8.375243e-09	2.655006e+01	5.481644e+02
