# Temperatura_=_20.0
# Concentracion g/m^3_=_10000.0
# C_Vs_to_Am_M_A/Vsm_=_65563218390.804596
# pendiente_HvsI_1/m_=_3716.3
# ordenada_HvsI_A/m_=_1297.0
# frecuencia_Hz_=_212853.66123594943

Tiempo_(s)	Campo_(V.s)	Magnetizacion_(V.s)	Campo_(kA/m)	Magnetizacion_(A/m)
0.000000e+00	-5.442469e-06	-9.809323e-09	-3.842974e+01	-6.383084e+02
1.000000e-08	-5.441631e-06	-9.806602e-09	-3.842381e+01	-6.382345e+02
2.000000e-08	-5.439578e-06	-9.801475e-09	-3.840932e+01	-6.381363e+02
3.000000e-08	-5.436334e-06	-9.796360e-09	-3.838642e+01	-6.380107e+02
4.000000e-08	-5.432220e-06	-9.791200e-09	-3.835736e+01	-6.378487e+02
5.000000e-08	-5.427293e-06	-9.787209e-09	-3.832258e+01	-6.376387e+02
6.000000e-08	-5.421494e-06	-9.784488e-09	-3.828163e+01	-6.373713e+02
7.000000e-08	-5.414772e-06	-9.785917e-09	-3.823416e+01	-6.370418e+02
8.000000e-08	-5.407100e-06	-9.805421e-09	-3.817999e+01	-6.366526e+02
9.000000e-08	-5.398386e-06	-9.787499e-09	-3.811846e+01	-6.362122e+02
1.000000e-07	-5.388315e-06	-9.738483e-09	-3.804735e+01	-6.357327e+02
1.100000e-07	-5.377011e-06	-9.690791e-09	-3.796753e+01	-6.352266e+02
1.200000e-07	-5.364927e-06	-9.742299e-09	-3.788221e+01	-6.347032e+02
1.300000e-07	-5.352000e-06	-9.818464e-09	-3.779093e+01	-6.341663e+02
1.400000e-07	-5.338082e-06	-9.684854e-09	-3.769265e+01	-6.336134e+02
1.500000e-07	-5.323256e-06	-9.617601e-09	-3.758796e+01	-6.330361e+02
1.600000e-07	-5.307360e-06	-9.760822e-09	-3.747572e+01	-6.324220e+02
1.700000e-07	-5.290213e-06	-9.686597e-09	-3.735464e+01	-6.317578e+02
1.800000e-07	-5.272180e-06	-9.564225e-09	-3.722731e+01	-6.310319e+02
1.900000e-07	-5.253451e-06	-9.709875e-09	-3.709507e+01	-6.302368e+02
2.000000e-07	-5.233901e-06	-9.666544e-09	-3.695702e+01	-6.293711e+02
2.100000e-07	-5.213608e-06	-9.531874e-09	-3.681373e+01	-6.284393e+02
2.200000e-07	-5.192496e-06	-9.641259e-09	-3.666466e+01	-6.274503e+02
2.300000e-07	-5.170394e-06	-9.614487e-09	-3.650859e+01	-6.264149e+02
2.400000e-07	-5.147386e-06	-9.484104e-09	-3.634613e+01	-6.253415e+02
2.500000e-07	-5.123566e-06	-9.522726e-09	-3.617794e+01	-6.242336e+02
2.600000e-07	-5.098870e-06	-9.513994e-09	-3.600355e+01	-6.230868e+02
2.700000e-07	-5.073144e-06	-9.486588e-09	-3.582190e+01	-6.218899e+02
2.800000e-07	-5.046317e-06	-9.510296e-09	-3.563248e+01	-6.206268e+02
2.900000e-07	-5.018537e-06	-9.436452e-09	-3.543631e+01	-6.192817e+02
3.000000e-07	-4.989828e-06	-9.426893e-09	-3.523360e+01	-6.178442e+02
3.100000e-07	-4.960247e-06	-9.446447e-09	-3.502472e+01	-6.163133e+02
3.200000e-07	-4.929866e-06	-9.346746e-09	-3.481020e+01	-6.146985e+02
3.300000e-07	-4.898575e-06	-9.320791e-09	-3.458925e+01	-6.130178e+02
3.400000e-07	-4.866525e-06	-9.330290e-09	-3.436295e+01	-6.112921e+02
3.500000e-07	-4.833806e-06	-9.287075e-09	-3.413192e+01	-6.095385e+02
3.600000e-07	-4.800119e-06	-9.282054e-09	-3.389404e+01	-6.077640e+02
3.700000e-07	-4.765288e-06	-9.255886e-09	-3.364810e+01	-6.059626e+02
3.800000e-07	-4.729523e-06	-9.195176e-09	-3.339556e+01	-6.041166e+02
3.900000e-07	-4.692953e-06	-9.178264e-09	-3.313734e+01	-6.022021e+02
4.000000e-07	-4.655561e-06	-9.171099e-09	-3.287331e+01	-6.001968e+02
4.100000e-07	-4.617355e-06	-9.110602e-09	-3.260353e+01	-5.980878e+02
4.200000e-07	-4.578307e-06	-9.058934e-09	-3.232781e+01	-5.958756e+02
4.300000e-07	-4.538550e-06	-9.049074e-09	-3.204709e+01	-5.935744e+02
4.400000e-07	-4.498231e-06	-9.013076e-09	-3.176239e+01	-5.912071e+02
4.500000e-07	-4.457134e-06	-8.973017e-09	-3.147220e+01	-5.887967e+02
4.600000e-07	-4.415022e-06	-8.938702e-09	-3.117485e+01	-5.863590e+02
4.700000e-07	-4.371919e-06	-8.897159e-09	-3.087049e+01	-5.838965e+02
4.800000e-07	-4.327987e-06	-8.873844e-09	-3.056028e+01	-5.813986e+02
4.900000e-07	-4.283357e-06	-8.836532e-09	-3.024514e+01	-5.788450e+02
5.000000e-07	-4.238045e-06	-8.777222e-09	-2.992519e+01	-5.762140e+02
5.100000e-07	-4.192025e-06	-8.721760e-09	-2.960025e+01	-5.734903e+02
5.200000e-07	-4.145300e-06	-8.679447e-09	-2.927031e+01	-5.706700e+02
5.300000e-07	-4.097930e-06	-8.646487e-09	-2.893583e+01	-5.677611e+02
5.400000e-07	-4.049934e-06	-8.604611e-09	-2.859693e+01	-5.647795e+02
5.500000e-07	-4.001234e-06	-8.554076e-09	-2.825305e+01	-5.617413e+02
5.600000e-07	-3.951515e-06	-8.508952e-09	-2.790198e+01	-5.586558e+02
5.700000e-07	-3.900770e-06	-8.474779e-09	-2.754367e+01	-5.555205e+02
5.800000e-07	-3.849198e-06	-8.425794e-09	-2.717951e+01	-5.523213e+02
5.900000e-07	-3.796734e-06	-8.354447e-09	-2.680906e+01	-5.490369e+02
6.000000e-07	-3.743510e-06	-8.296394e-09	-2.643324e+01	-5.456467e+02
6.100000e-07	-3.689608e-06	-8.252565e-09	-2.605264e+01	-5.421375e+02
6.200000e-07	-3.635035e-06	-8.205152e-09	-2.566729e+01	-5.385082e+02
6.300000e-07	-3.579859e-06	-8.145096e-09	-2.527769e+01	-5.347688e+02
6.400000e-07	-3.524186e-06	-8.079162e-09	-2.488458e+01	-5.309359e+02
6.500000e-07	-3.468017e-06	-8.023661e-09	-2.448797e+01	-5.270252e+02
6.600000e-07	-3.411155e-06	-7.972549e-09	-2.408645e+01	-5.230451e+02
6.700000e-07	-3.353574e-06	-7.912752e-09	-2.367987e+01	-5.189934e+02
6.800000e-07	-3.295181e-06	-7.840314e-09	-2.326755e+01	-5.148580e+02
6.900000e-07	-3.235976e-06	-7.771599e-09	-2.284950e+01	-5.106227e+02
7.000000e-07	-3.176172e-06	-7.709788e-09	-2.242722e+01	-5.062736e+02
7.100000e-07	-3.115851e-06	-7.639377e-09	-2.200129e+01	-5.018053e+02
7.200000e-07	-3.055046e-06	-7.561360e-09	-2.157194e+01	-4.972224e+02
7.300000e-07	-2.993762e-06	-7.484691e-09	-2.113920e+01	-4.925377e+02
7.400000e-07	-2.931952e-06	-7.418981e-09	-2.070276e+01	-4.877653e+02
7.500000e-07	-2.869653e-06	-7.353861e-09	-2.026286e+01	-4.829142e+02
7.600000e-07	-2.806879e-06	-7.275492e-09	-1.981961e+01	-4.779826e+02
7.700000e-07	-2.743633e-06	-7.192024e-09	-1.937303e+01	-4.729572e+02
7.800000e-07	-2.679949e-06	-7.110762e-09	-1.892334e+01	-4.678169e+02
7.900000e-07	-2.615881e-06	-7.030520e-09	-1.847096e+01	-4.625396e+02
8.000000e-07	-2.551484e-06	-6.943521e-09	-1.801625e+01	-4.571107e+02
8.100000e-07	-2.486709e-06	-6.850366e-09	-1.755886e+01	-4.515273e+02
8.200000e-07	-2.421474e-06	-6.761227e-09	-1.709823e+01	-4.457995e+02
8.300000e-07	-2.355618e-06	-6.676557e-09	-1.663322e+01	-4.399458e+02
8.400000e-07	-2.289162e-06	-6.589138e-09	-1.616397e+01	-4.339856e+02
8.500000e-07	-2.222245e-06	-6.493104e-09	-1.569146e+01	-4.279315e+02
8.600000e-07	-2.154931e-06	-6.395308e-09	-1.521615e+01	-4.217840e+02
8.700000e-07	-2.087271e-06	-6.301658e-09	-1.473840e+01	-4.155316e+02
8.800000e-07	-2.019318e-06	-6.206960e-09	-1.425858e+01	-4.091550e+02
8.900000e-07	-1.951173e-06	-6.104659e-09	-1.377740e+01	-4.026340e+02
9.000000e-07	-1.882818e-06	-5.994347e-09	-1.329474e+01	-3.959547e+02
9.100000e-07	-1.814202e-06	-5.887545e-09	-1.281023e+01	-3.891136e+02
9.200000e-07	-1.745363e-06	-5.782800e-09	-1.232415e+01	-3.821165e+02
9.300000e-07	-1.676227e-06	-5.672601e-09	-1.183598e+01	-3.749741e+02
9.400000e-07	-1.606714e-06	-5.558707e-09	-1.134514e+01	-3.676950e+02
9.500000e-07	-1.536836e-06	-5.446720e-09	-1.085173e+01	-3.602798e+02
9.600000e-07	-1.466670e-06	-5.338691e-09	-1.035628e+01	-3.527190e+02
9.700000e-07	-1.396267e-06	-5.224602e-09	-9.859160e+00	-3.449946e+02
9.800000e-07	-1.325630e-06	-5.099293e-09	-9.360389e+00	-3.370863e+02
9.900000e-07	-1.254774e-06	-4.968281e-09	-8.860067e+00	-3.289784e+02
1.000000e-06	-1.183618e-06	-4.839861e-09	-8.357630e+00	-3.206650e+02
1.010000e-06	-1.112211e-06	-4.713656e-09	-7.853419e+00	-3.121513e+02
1.020000e-06	-1.040642e-06	-4.580212e-09	-7.348061e+00	-3.034502e+02
1.030000e-06	-9.689078e-07	-4.441029e-09	-6.841540e+00	-2.945753e+02
1.040000e-06	-8.970315e-07	-4.303740e-09	-6.334016e+00	-2.855337e+02
1.050000e-06	-8.250622e-07	-4.165414e-09	-5.825834e+00	-2.763215e+02
1.060000e-06	-7.529893e-07	-4.020242e-09	-5.316921e+00	-2.669232e+02
1.070000e-06	-6.808013e-07	-3.867678e-09	-4.807196e+00	-2.573160e+02
1.080000e-06	-6.085316e-07	-3.714930e-09	-4.296893e+00	-2.474770e+02
1.090000e-06	-5.361964e-07	-3.564134e-09	-3.786128e+00	-2.373908e+02
1.100000e-06	-4.638004e-07	-3.409910e-09	-3.274934e+00	-2.270529e+02
1.110000e-06	-3.913422e-07	-3.247197e-09	-2.763301e+00	-2.164693e+02
1.120000e-06	-3.188633e-07	-3.076421e-09	-2.251521e+00	-2.056517e+02
1.130000e-06	-2.462858e-07	-2.904396e-09	-1.739045e+00	-1.946099e+02
1.140000e-06	-1.736040e-07	-2.730430e-09	-1.225833e+00	-1.833457e+02
1.150000e-06	-1.009829e-07	-2.552674e-09	-7.130491e-01	-1.718497e+02
1.160000e-06	-2.837494e-08	-2.373419e-09	-2.003578e-01	-1.601041e+02
1.170000e-06	4.431478e-08	-2.192985e-09	3.129104e-01	-1.480881e+02
1.180000e-06	1.170316e-07	-2.008971e-09	8.263700e-01	-1.357858e+02
1.190000e-06	1.896599e-07	-1.815820e-09	1.339204e+00	-1.231913e+02
1.200000e-06	2.621851e-07	-1.614955e-09	1.851312e+00	-1.103106e+02
1.210000e-06	3.346502e-07	-1.411635e-09	2.362993e+00	-9.715718e+01
1.220000e-06	4.070290e-07	-1.205717e-09	2.874066e+00	-8.374510e+01
1.230000e-06	4.793275e-07	-9.965330e-10	3.384572e+00	-7.008147e+01
1.240000e-06	5.515411e-07	-7.832873e-10	3.894479e+00	-5.616221e+01
1.250000e-06	6.236928e-07	-5.677091e-10	4.403948e+00	-4.197319e+01
1.260000e-06	6.957899e-07	-3.500445e-10	4.913031e+00	-2.749682e+01
1.270000e-06	7.677909e-07	-1.271194e-10	5.421436e+00	-1.272187e+01
1.280000e-06	8.396750e-07	1.037665e-10	5.929016e+00	2.347360e+00
1.290000e-06	9.114889e-07	3.410950e-10	6.436101e+00	1.768635e+01
1.300000e-06	9.831788e-07	5.791334e-10	6.942309e+00	3.325208e+01
1.310000e-06	1.054680e-06	8.178252e-10	7.447184e+00	4.899097e+01
1.320000e-06	1.126032e-06	1.059581e-09	7.951005e+00	6.485002e+01
1.330000e-06	1.197198e-06	1.302789e-09	8.453518e+00	8.078677e+01
1.340000e-06	1.268089e-06	1.544221e-09	8.954082e+00	9.677416e+01
1.350000e-06	1.338689e-06	1.784571e-09	9.452598e+00	1.127982e+02
1.360000e-06	1.409059e-06	2.027229e-09	9.949488e+00	1.288491e+02
1.370000e-06	1.479267e-06	2.272165e-09	1.044523e+01	1.449099e+02
1.380000e-06	1.549284e-06	2.516701e-09	1.093963e+01	1.609462e+02
1.390000e-06	1.619040e-06	2.758220e-09	1.143218e+01	1.769029e+02
1.400000e-06	1.688522e-06	2.997305e-09	1.192280e+01	1.927080e+02
1.410000e-06	1.757638e-06	3.237186e-09	1.241083e+01	2.082844e+02
1.420000e-06	1.826393e-06	3.473463e-09	1.289632e+01	2.235633e+02
1.430000e-06	1.894860e-06	3.699708e-09	1.337977e+01	2.384964e+02
1.440000e-06	1.963101e-06	3.917402e-09	1.386162e+01	2.530611e+02
1.450000e-06	2.031153e-06	4.130947e-09	1.434215e+01	2.672565e+02
1.460000e-06	2.098989e-06	4.341693e-09	1.482114e+01	2.810938e+02
1.470000e-06	2.166654e-06	4.545942e-09	1.529893e+01	2.945824e+02
1.480000e-06	2.233973e-06	4.742940e-09	1.577427e+01	3.077192e+02
1.490000e-06	2.300648e-06	4.935349e-09	1.624507e+01	3.204849e+02
1.500000e-06	2.366556e-06	5.123275e-09	1.671045e+01	3.328482e+02
1.510000e-06	2.431774e-06	5.303946e-09	1.717096e+01	3.447773e+02
1.520000e-06	2.496480e-06	5.475906e-09	1.762786e+01	3.562526e+02
1.530000e-06	2.560798e-06	5.641940e-09	1.808201e+01	3.672769e+02
1.540000e-06	2.624820e-06	5.803471e-09	1.853408e+01	3.778767e+02
1.550000e-06	2.688514e-06	5.958847e-09	1.898383e+01	3.880955e+02
1.560000e-06	2.751748e-06	6.108179e-09	1.943032e+01	3.979800e+02
1.570000e-06	2.814469e-06	6.253463e-09	1.987320e+01	4.075651e+02
1.580000e-06	2.876732e-06	6.396434e-09	2.031285e+01	4.168626e+02
1.590000e-06	2.938509e-06	6.536069e-09	2.074906e+01	4.258596e+02
1.600000e-06	2.999810e-06	6.669160e-09	2.118192e+01	4.345252e+02
1.610000e-06	3.060651e-06	6.794605e-09	2.161152e+01	4.428254e+02
1.620000e-06	3.121025e-06	6.914647e-09	2.203782e+01	4.507392e+02
1.630000e-06	3.180984e-06	7.029341e-09	2.246120e+01	4.582695e+02
1.640000e-06	3.240418e-06	7.136586e-09	2.288086e+01	4.654463e+02
1.650000e-06	3.299070e-06	7.236556e-09	2.329501e+01	4.723192e+02
1.660000e-06	3.356777e-06	7.333099e-09	2.370249e+01	4.789427e+02
1.670000e-06	3.413657e-06	7.430263e-09	2.410412e+01	4.853608e+02
1.680000e-06	3.469945e-06	7.525755e-09	2.450158e+01	4.915953e+02
1.690000e-06	3.525805e-06	7.617318e-09	2.489601e+01	4.976432e+02
1.700000e-06	3.581171e-06	7.704363e-09	2.528695e+01	5.034837e+02
1.710000e-06	3.635908e-06	7.786610e-09	2.567346e+01	5.090920e+02
1.720000e-06	3.690019e-06	7.865836e-09	2.605554e+01	5.144543e+02
1.730000e-06	3.743517e-06	7.942106e-09	2.643329e+01	5.195778e+02
1.740000e-06	3.796386e-06	8.015325e-09	2.680660e+01	5.244929e+02
1.750000e-06	3.848509e-06	8.086836e-09	2.717465e+01	5.292446e+02
1.760000e-06	3.899752e-06	8.157503e-09	2.753648e+01	5.338789e+02
1.770000e-06	3.950032e-06	8.226985e-09	2.789151e+01	5.384279e+02
1.780000e-06	3.999340e-06	8.292807e-09	2.823968e+01	5.428997e+02
1.790000e-06	4.047883e-06	8.355894e-09	2.858245e+01	5.472779e+02
1.800000e-06	4.095785e-06	8.418668e-09	2.892069e+01	5.515292e+02
1.810000e-06	4.142998e-06	8.480579e-09	2.925406e+01	5.556182e+02
1.820000e-06	4.189541e-06	8.540432e-09	2.958271e+01	5.595214e+02
1.830000e-06	4.235370e-06	8.596677e-09	2.990631e+01	5.632373e+02
1.840000e-06	4.280450e-06	8.648332e-09	3.022462e+01	5.667870e+02
1.850000e-06	4.324937e-06	8.697824e-09	3.053875e+01	5.702064e+02
1.860000e-06	4.368873e-06	8.745883e-09	3.084898e+01	5.735326e+02
1.870000e-06	4.412050e-06	8.791564e-09	3.115386e+01	5.767908e+02
1.880000e-06	4.454217e-06	8.835516e-09	3.145160e+01	5.799851e+02
1.890000e-06	4.495316e-06	8.879399e-09	3.174181e+01	5.830990e+02
1.900000e-06	4.535610e-06	8.922721e-09	3.202633e+01	5.861029e+02
1.910000e-06	4.575198e-06	8.964720e-09	3.230586e+01	5.889672e+02
1.920000e-06	4.614012e-06	9.003627e-09	3.257993e+01	5.916755e+02
1.930000e-06	4.652023e-06	9.039256e-09	3.284833e+01	5.942313e+02
1.940000e-06	4.689212e-06	9.074962e-09	3.311093e+01	5.966581e+02
1.950000e-06	4.725749e-06	9.107607e-09	3.336891e+01	5.989906e+02
1.960000e-06	4.761647e-06	9.135719e-09	3.362239e+01	6.012619e+02
1.970000e-06	4.796627e-06	9.162444e-09	3.386939e+01	6.034916e+02
1.980000e-06	4.830467e-06	9.191289e-09	3.410834e+01	6.056788e+02
1.990000e-06	4.863281e-06	9.223258e-09	3.434004e+01	6.078037e+02
2.000000e-06	4.895281e-06	9.254619e-09	3.456600e+01	6.098356e+02
2.010000e-06	4.926479e-06	9.282974e-09	3.478629e+01	6.117457e+02
2.020000e-06	4.956894e-06	9.310485e-09	3.500105e+01	6.135195e+02
2.030000e-06	4.986501e-06	9.335609e-09	3.521010e+01	6.151624e+02
2.040000e-06	5.015327e-06	9.354950e-09	3.541365e+01	6.166994e+02
2.050000e-06	5.043525e-06	9.371199e-09	3.561276e+01	6.181663e+02
2.060000e-06	5.070906e-06	9.388878e-09	3.580610e+01	6.195980e+02
2.070000e-06	5.097151e-06	9.410904e-09	3.599141e+01	6.210166e+02
2.080000e-06	5.122191e-06	9.435212e-09	3.616823e+01	6.224251e+02
2.090000e-06	5.146153e-06	9.457435e-09	3.633742e+01	6.238076e+02
2.100000e-06	5.169248e-06	9.478086e-09	3.650050e+01	6.251361e+02
2.110000e-06	5.191544e-06	9.497296e-09	3.665793e+01	6.263816e+02
2.120000e-06	5.213004e-06	9.512869e-09	3.680947e+01	6.275246e+02
2.130000e-06	5.233740e-06	9.523306e-09	3.695588e+01	6.285608e+02
2.140000e-06	5.253764e-06	9.532189e-09	3.709727e+01	6.295023e+02
2.150000e-06	5.272885e-06	9.544880e-09	3.723229e+01	6.303717e+02
2.160000e-06	5.290983e-06	9.560882e-09	3.736008e+01	6.311939e+02
2.170000e-06	5.308166e-06	9.577132e-09	3.748141e+01	6.319876e+02
2.180000e-06	5.324416e-06	9.591122e-09	3.759615e+01	6.327601e+02
2.190000e-06	5.339585e-06	9.602488e-09	3.770326e+01	6.335073e+02
2.200000e-06	5.353755e-06	9.610871e-09	3.780332e+01	6.342170e+02
2.210000e-06	5.366998e-06	9.616756e-09	3.789683e+01	6.348759e+02
2.220000e-06	5.379321e-06	9.621979e-09	3.798385e+01	6.354755e+02
2.230000e-06	5.390528e-06	9.628726e-09	3.806298e+01	6.360151e+02
2.240000e-06	5.400507e-06	9.639799e-09	3.813344e+01	6.365013e+02
2.250000e-06	5.409478e-06	9.652705e-09	3.819678e+01	6.369442e+02
2.260000e-06	5.417463e-06	9.664528e-09	3.825316e+01	6.373526e+02
2.270000e-06	5.424407e-06	9.673313e-09	3.830220e+01	6.377293e+02
2.280000e-06	5.430385e-06	9.677863e-09	3.834441e+01	6.380698e+02
2.290000e-06	5.435509e-06	9.680150e-09	3.838059e+01	6.383639e+02
2.300000e-06	5.439880e-06	9.679757e-09	3.841145e+01	6.386000e+02
2.310000e-06	5.443267e-06	9.678687e-09	3.843537e+01	6.387697e+02
2.320000e-06	5.445437e-06	9.680660e-09	3.845069e+01	6.388713e+02
2.330000e-06	5.446564e-06	9.684082e-09	3.845865e+01	6.389107e+02
2.340000e-06	5.446755e-06	9.687682e-09	3.846000e+01	6.388995e+02
2.350000e-06	5.446025e-06	9.691164e-09	3.845484e+01	6.388507e+02
2.360000e-06	5.444423e-06	9.692890e-09	3.844353e+01	6.387742e+02
2.370000e-06	5.441934e-06	9.693721e-09	3.842596e+01	6.386735e+02
2.380000e-06	5.438696e-06	9.689689e-09	3.840309e+01	6.385447e+02
2.390000e-06	5.434775e-06	9.683747e-09	3.837541e+01	6.383784e+02
2.400000e-06	5.429866e-06	9.679789e-09	3.834074e+01	6.381630e+02
2.410000e-06	5.423762e-06	9.679861e-09	3.829765e+01	6.378894e+02
2.420000e-06	5.416732e-06	9.656532e-09	3.824800e+01	6.375537e+02
2.430000e-06	5.408867e-06	9.631301e-09	3.819247e+01	6.371589e+02
2.440000e-06	5.399769e-06	9.669266e-09	3.812823e+01	6.367139e+02
2.450000e-06	5.389278e-06	9.721150e-09	3.805415e+01	6.362312e+02
2.460000e-06	5.377841e-06	9.697118e-09	3.797339e+01	6.357230e+02
2.470000e-06	5.365961e-06	9.574462e-09	3.788950e+01	6.351981e+02
2.480000e-06	5.353306e-06	9.620908e-09	3.780015e+01	6.346598e+02
2.490000e-06	5.339267e-06	9.744205e-09	3.770101e+01	6.341049e+02
2.500000e-06	5.324108e-06	9.561697e-09	3.759398e+01	6.335244e+02
2.510000e-06	5.308191e-06	9.538833e-09	3.748159e+01	6.329059e+02
2.520000e-06	5.291252e-06	9.734695e-09	3.736198e+01	6.322360e+02
2.530000e-06	5.273365e-06	9.591615e-09	3.723568e+01	6.315033e+02
2.540000e-06	5.254820e-06	9.486196e-09	3.710473e+01	6.307011e+02
2.550000e-06	5.235452e-06	9.670962e-09	3.696797e+01	6.298285e+02
2.560000e-06	5.215319e-06	9.569997e-09	3.682581e+01	6.288904e+02
2.570000e-06	5.194285e-06	9.431107e-09	3.667729e+01	6.278963e+02
2.580000e-06	5.171952e-06	9.596060e-09	3.651959e+01	6.268567e+02
2.590000e-06	5.148649e-06	9.553519e-09	3.635505e+01	6.257798e+02
2.600000e-06	5.124553e-06	9.487549e-09	3.618490e+01	6.246682e+02
2.610000e-06	5.099361e-06	9.528121e-09	3.600702e+01	6.235170e+02
2.620000e-06	5.073236e-06	9.412106e-09	3.582255e+01	6.223142e+02
2.630000e-06	5.046368e-06	9.468285e-09	3.563283e+01	6.210435e+02
2.640000e-06	5.018728e-06	9.491845e-09	3.543767e+01	6.196895e+02
2.650000e-06	4.990180e-06	9.333537e-09	3.523608e+01	6.182425e+02
2.660000e-06	4.960415e-06	9.419903e-09	3.502591e+01	6.167025e+02
2.670000e-06	4.929516e-06	9.429058e-09	3.480773e+01	6.150802e+02
2.680000e-06	4.897798e-06	9.309697e-09	3.458377e+01	6.133940e+02
2.690000e-06	4.865224e-06	9.344692e-09	3.435376e+01	6.116649e+02
2.700000e-06	4.831807e-06	9.279429e-09	3.411780e+01	6.099090e+02
2.710000e-06	4.797592e-06	9.232871e-09	3.387620e+01	6.081323e+02
2.720000e-06	4.762583e-06	9.269757e-09	3.362900e+01	6.063273e+02
2.730000e-06	4.726879e-06	9.205277e-09	3.337689e+01	6.044755e+02
2.740000e-06	4.690235e-06	9.182675e-09	3.311815e+01	6.025528e+02
2.750000e-06	4.652487e-06	9.166088e-09	3.285161e+01	6.005375e+02
2.760000e-06	4.613785e-06	9.130297e-09	3.257833e+01	5.984178e+02
2.770000e-06	4.574261e-06	9.097337e-09	3.229924e+01	5.961959e+02
2.780000e-06	4.534063e-06	9.024002e-09	3.201540e+01	5.938870e+02
2.790000e-06	4.493152e-06	9.010487e-09	3.172653e+01	5.915143e+02
2.800000e-06	4.451474e-06	8.980068e-09	3.143223e+01	5.891006e+02
2.810000e-06	4.409063e-06	8.946564e-09	3.113276e+01	5.866605e+02
2.820000e-06	4.365988e-06	8.915630e-09	3.082861e+01	5.841951e+02
2.830000e-06	4.322375e-06	8.838868e-09	3.052066e+01	5.816925e+02
2.840000e-06	4.278086e-06	8.826879e-09	3.020793e+01	5.791321e+02
2.850000e-06	4.232923e-06	8.794873e-09	2.988903e+01	5.764924e+02
2.860000e-06	4.186955e-06	8.750285e-09	2.956444e+01	5.737589e+02
2.870000e-06	4.140306e-06	8.712965e-09	2.923505e+01	5.709292e+02
2.880000e-06	4.092999e-06	8.638490e-09	2.890101e+01	5.680122e+02
2.890000e-06	4.044917e-06	8.616406e-09	2.856150e+01	5.650242e+02
2.900000e-06	3.996051e-06	8.572286e-09	2.821645e+01	5.619810e+02
2.910000e-06	3.946489e-06	8.508181e-09	2.786649e+01	5.588908e+02
2.920000e-06	3.896263e-06	8.461831e-09	2.751184e+01	5.557499e+02
2.930000e-06	3.845404e-06	8.417908e-09	2.715272e+01	5.525431e+02
2.940000e-06	3.793743e-06	8.391450e-09	2.678794e+01	5.492489e+02
2.950000e-06	3.741178e-06	8.321259e-09	2.641677e+01	5.458472e+02
