# Temperatura_=_20.0
# Concentracion g/m^3_=_10000.0
# C_Vs_to_Am_M_A/Vsm_=_65563218390.804596
# pendiente_HvsI_1/m_=_3716.3
# ordenada_HvsI_A/m_=_1297.0
# frecuencia_Hz_=_212873.5581185348

Tiempo_(s)	Campo_(V.s)	Magnetizacion_(V.s)	Campo_(kA/m)	Magnetizacion_(A/m)
0.000000e+00	-5.437546e-06	-9.761808e-09	-3.842824e+01	-6.362760e+02
1.000000e-08	-5.437260e-06	-9.764244e-09	-3.842622e+01	-6.363461e+02
2.000000e-08	-5.436050e-06	-9.764084e-09	-3.841767e+01	-6.363217e+02
3.000000e-08	-5.433665e-06	-9.757986e-09	-3.840081e+01	-6.361794e+02
4.000000e-08	-5.430233e-06	-9.749241e-09	-3.837655e+01	-6.359212e+02
5.000000e-08	-5.425998e-06	-9.743807e-09	-3.834663e+01	-6.355752e+02
6.000000e-08	-5.420938e-06	-9.740419e-09	-3.831087e+01	-6.351851e+02
7.000000e-08	-5.414950e-06	-9.729905e-09	-3.826855e+01	-6.347943e+02
8.000000e-08	-5.408003e-06	-9.713070e-09	-3.821945e+01	-6.344301e+02
9.000000e-08	-5.400180e-06	-9.737370e-09	-3.816417e+01	-6.340938e+02
1.000000e-07	-5.391196e-06	-9.751718e-09	-3.810068e+01	-6.337612e+02
1.100000e-07	-5.380732e-06	-9.738353e-09	-3.802672e+01	-6.333929e+02
1.200000e-07	-5.369189e-06	-9.655730e-09	-3.794514e+01	-6.329502e+02
1.300000e-07	-5.356873e-06	-9.644949e-09	-3.785811e+01	-6.324114e+02
1.400000e-07	-5.343682e-06	-9.743539e-09	-3.776488e+01	-6.317810e+02
1.500000e-07	-5.329539e-06	-9.677951e-09	-3.766493e+01	-6.310882e+02
1.600000e-07	-5.314468e-06	-9.580822e-09	-3.755842e+01	-6.303766e+02
1.700000e-07	-5.298314e-06	-9.679151e-09	-3.744426e+01	-6.296871e+02
1.800000e-07	-5.281007e-06	-9.681704e-09	-3.732195e+01	-6.290417e+02
1.900000e-07	-5.262845e-06	-9.540962e-09	-3.719359e+01	-6.284347e+02
2.000000e-07	-5.243954e-06	-9.661944e-09	-3.706008e+01	-6.278334e+02
2.100000e-07	-5.224240e-06	-9.662852e-09	-3.692077e+01	-6.271895e+02
2.200000e-07	-5.203780e-06	-9.515303e-09	-3.677617e+01	-6.264551e+02
2.300000e-07	-5.182521e-06	-9.616155e-09	-3.662593e+01	-6.255989e+02
2.400000e-07	-5.160208e-06	-9.629273e-09	-3.646824e+01	-6.246151e+02
2.500000e-07	-5.136975e-06	-9.517187e-09	-3.630404e+01	-6.235223e+02
2.600000e-07	-5.112978e-06	-9.520003e-09	-3.613445e+01	-6.223540e+02
2.700000e-07	-5.088118e-06	-9.511430e-09	-3.595876e+01	-6.211431e+02
2.800000e-07	-5.062226e-06	-9.479079e-09	-3.577578e+01	-6.199090e+02
2.900000e-07	-5.035158e-06	-9.510010e-09	-3.558448e+01	-6.186503e+02
3.000000e-07	-5.007078e-06	-9.436134e-09	-3.538604e+01	-6.173465e+02
3.100000e-07	-4.978139e-06	-9.396720e-09	-3.518152e+01	-6.159687e+02
3.200000e-07	-4.948375e-06	-9.452520e-09	-3.497117e+01	-6.144923e+02
3.300000e-07	-4.917774e-06	-9.375160e-09	-3.475491e+01	-6.129086e+02
3.400000e-07	-4.886363e-06	-9.322710e-09	-3.453292e+01	-6.112289e+02
3.500000e-07	-4.854324e-06	-9.331053e-09	-3.430649e+01	-6.094801e+02
3.600000e-07	-4.821531e-06	-9.290289e-09	-3.407474e+01	-6.076940e+02
3.700000e-07	-4.787631e-06	-9.276365e-09	-3.383516e+01	-6.058937e+02
3.800000e-07	-4.752564e-06	-9.250090e-09	-3.358733e+01	-6.040839e+02
3.900000e-07	-4.716608e-06	-9.195533e-09	-3.333323e+01	-6.022489e+02
4.000000e-07	-4.679869e-06	-9.157719e-09	-3.307359e+01	-6.003584e+02
4.100000e-07	-4.642286e-06	-9.152029e-09	-3.280798e+01	-5.983800e+02
4.200000e-07	-4.603850e-06	-9.127331e-09	-3.253634e+01	-5.962915e+02
4.300000e-07	-4.564579e-06	-9.064719e-09	-3.225881e+01	-5.940900e+02
4.400000e-07	-4.524687e-06	-9.047231e-09	-3.197688e+01	-5.917924e+02
4.500000e-07	-4.484243e-06	-9.014995e-09	-3.169105e+01	-5.894278e+02
4.600000e-07	-4.442972e-06	-8.973789e-09	-3.139939e+01	-5.870251e+02
4.700000e-07	-4.400562e-06	-8.937754e-09	-3.109966e+01	-5.846009e+02
4.800000e-07	-4.357146e-06	-8.880738e-09	-3.079284e+01	-5.821524e+02
4.900000e-07	-4.313109e-06	-8.858987e-09	-3.048162e+01	-5.796584e+02
5.000000e-07	-4.268462e-06	-8.829725e-09	-3.016609e+01	-5.770886e+02
5.100000e-07	-4.223043e-06	-8.781758e-09	-2.984510e+01	-5.744163e+02
5.200000e-07	-4.176865e-06	-8.726264e-09	-2.951875e+01	-5.716296e+02
5.300000e-07	-4.129990e-06	-8.673654e-09	-2.918747e+01	-5.687371e+02
5.400000e-07	-4.082459e-06	-8.642762e-09	-2.885156e+01	-5.657647e+02
5.500000e-07	-4.034282e-06	-8.596671e-09	-2.851109e+01	-5.627447e+02
5.600000e-07	-3.985250e-06	-8.545426e-09	-2.816457e+01	-5.597022e+02
5.700000e-07	-3.935206e-06	-8.493563e-09	-2.781090e+01	-5.566444e+02
5.800000e-07	-3.884262e-06	-8.453532e-09	-2.745087e+01	-5.535554e+02
5.900000e-07	-3.832478e-06	-8.418130e-09	-2.708490e+01	-5.504019e+02
6.000000e-07	-3.779874e-06	-8.350897e-09	-2.671314e+01	-5.471439e+02
6.100000e-07	-3.726526e-06	-8.291034e-09	-2.633611e+01	-5.437494e+02
6.200000e-07	-3.672476e-06	-8.242323e-09	-2.595413e+01	-5.402056e+02
6.300000e-07	-3.617819e-06	-8.196052e-09	-2.556786e+01	-5.365222e+02
6.400000e-07	-3.562587e-06	-8.140132e-09	-2.517752e+01	-5.327263e+02
6.500000e-07	-3.506825e-06	-8.065685e-09	-2.478344e+01	-5.288512e+02
6.600000e-07	-3.450585e-06	-8.005689e-09	-2.438598e+01	-5.249222e+02
6.700000e-07	-3.393713e-06	-7.951916e-09	-2.398406e+01	-5.209468e+02
6.800000e-07	-3.336014e-06	-7.896467e-09	-2.357629e+01	-5.169125e+02
6.900000e-07	-3.277419e-06	-7.826031e-09	-2.316219e+01	-5.127922e+02
7.000000e-07	-3.218038e-06	-7.750915e-09	-2.274253e+01	-5.085559e+02
7.100000e-07	-3.158094e-06	-7.691446e-09	-2.231889e+01	-5.041833e+02
7.200000e-07	-3.097747e-06	-7.623295e-09	-2.189240e+01	-4.996719e+02
7.300000e-07	-3.036936e-06	-7.546925e-09	-2.146264e+01	-4.950375e+02
7.400000e-07	-2.975546e-06	-7.465532e-09	-2.102879e+01	-4.903070e+02
7.500000e-07	-2.913613e-06	-7.394957e-09	-2.059109e+01	-4.855066e+02
7.600000e-07	-2.851221e-06	-7.333122e-09	-2.015016e+01	-4.806497e+02
7.700000e-07	-2.788394e-06	-7.255306e-09	-1.970614e+01	-4.757302e+02
7.800000e-07	-2.725104e-06	-7.172176e-09	-1.925886e+01	-4.707237e+02
7.900000e-07	-2.661380e-06	-7.087176e-09	-1.880851e+01	-4.655959e+02
8.000000e-07	-2.597301e-06	-7.009477e-09	-1.835565e+01	-4.603153e+02
8.100000e-07	-2.532877e-06	-6.928731e-09	-1.790035e+01	-4.548651e+02
8.200000e-07	-2.468047e-06	-6.834406e-09	-1.744219e+01	-4.492491e+02
8.300000e-07	-2.402687e-06	-6.744826e-09	-1.698027e+01	-4.434899e+02
8.400000e-07	-2.336684e-06	-6.658840e-09	-1.651382e+01	-4.376198e+02
8.500000e-07	-2.270120e-06	-6.575045e-09	-1.604340e+01	-4.316683e+02
8.600000e-07	-2.203099e-06	-6.480885e-09	-1.556975e+01	-4.256509e+02
8.700000e-07	-2.135704e-06	-6.378195e-09	-1.509346e+01	-4.195633e+02
8.800000e-07	-2.068013e-06	-6.283744e-09	-1.461507e+01	-4.133838e+02
8.900000e-07	-2.000084e-06	-6.190243e-09	-1.413500e+01	-4.070812e+02
9.000000e-07	-1.931945e-06	-6.092016e-09	-1.365345e+01	-4.006268e+02
9.100000e-07	-1.863538e-06	-5.982791e-09	-1.317000e+01	-3.940029e+02
9.200000e-07	-1.794811e-06	-5.875482e-09	-1.268430e+01	-3.872079e+02
9.300000e-07	-1.725783e-06	-5.776238e-09	-1.219646e+01	-3.802529e+02
9.400000e-07	-1.656526e-06	-5.670123e-09	-1.170700e+01	-3.731543e+02
9.500000e-07	-1.586985e-06	-5.556705e-09	-1.121554e+01	-3.659241e+02
9.600000e-07	-1.517124e-06	-5.438958e-09	-1.072182e+01	-3.585627e+02
9.700000e-07	-1.446997e-06	-5.327004e-09	-1.022622e+01	-3.510574e+02
9.800000e-07	-1.376627e-06	-5.214210e-09	-9.728905e+00	-3.433865e+02
9.900000e-07	-1.306024e-06	-5.089444e-09	-9.229934e+00	-3.355271e+02
1.000000e-06	-1.235160e-06	-4.960719e-09	-8.729126e+00	-3.274640e+02
1.010000e-06	-1.164015e-06	-4.834610e-09	-8.226332e+00	-3.191942e+02
1.020000e-06	-1.092575e-06	-4.713879e-09	-7.721447e+00	-3.107270e+02
1.030000e-06	-1.020939e-06	-4.584190e-09	-7.215182e+00	-3.020783e+02
1.040000e-06	-9.492245e-07	-4.442965e-09	-6.708362e+00	-2.932621e+02
1.050000e-06	-8.773675e-07	-4.302153e-09	-6.200534e+00	-2.842833e+02
1.060000e-06	-8.053706e-07	-4.161616e-09	-5.691717e+00	-2.751341e+02
1.070000e-06	-7.333127e-07	-4.019899e-09	-5.182470e+00	-2.657954e+02
1.080000e-06	-6.611940e-07	-3.869014e-09	-4.672792e+00	-2.562437e+02
1.090000e-06	-5.889852e-07	-3.715266e-09	-4.162477e+00	-2.464586e+02
1.100000e-06	-5.166596e-07	-3.564676e-09	-3.651338e+00	-2.364294e+02
1.110000e-06	-4.442335e-07	-3.409629e-09	-3.139488e+00	-2.261564e+02
1.120000e-06	-3.716955e-07	-3.248113e-09	-2.626847e+00	-2.156481e+02
1.130000e-06	-2.991143e-07	-3.078206e-09	-2.113902e+00	-2.049142e+02
1.140000e-06	-2.265173e-07	-2.908086e-09	-1.600844e+00	-1.939590e+02
1.150000e-06	-1.538763e-07	-2.737671e-09	-1.087475e+00	-1.827768e+02
1.160000e-06	-8.125370e-08	-2.561990e-09	-5.742364e-01	-1.713527e+02
1.170000e-06	-8.637301e-09	-2.381329e-09	-6.104155e-02	-1.596680e+02
1.180000e-06	6.398734e-08	-2.195924e-09	4.522115e-01	-1.477076e+02
1.190000e-06	1.365734e-07	-2.010885e-09	9.651921e-01	-1.354661e+02
1.200000e-06	2.090767e-07	-1.819861e-09	1.477587e+00	-1.229502e+02
1.210000e-06	2.815270e-07	-1.622499e-09	1.989608e+00	-1.101754e+02
1.220000e-06	3.539209e-07	-1.422937e-09	2.501231e+00	-9.715795e+01
1.230000e-06	4.262126e-07	-1.220253e-09	3.012131e+00	-8.390691e+01
1.240000e-06	4.984069e-07	-1.015546e-09	3.522342e+00	-7.041777e+01
1.250000e-06	5.705262e-07	-8.035081e-10	4.032024e+00	-5.667257e+01
1.260000e-06	6.425895e-07	-5.878946e-10	4.541310e+00	-4.264605e+01
1.270000e-06	7.145853e-07	-3.702711e-10	5.050119e+00	-2.831622e+01
1.280000e-06	7.864672e-07	-1.473259e-10	5.558123e+00	-1.367534e+01
1.290000e-06	8.582553e-07	8.161498e-11	6.065464e+00	1.262994e+00
1.300000e-06	9.299553e-07	3.157916e-10	6.572182e+00	1.646359e+01
1.310000e-06	1.001492e-06	5.502033e-10	7.077749e+00	3.187650e+01
1.320000e-06	1.072869e-06	7.852799e-10	7.582183e+00	4.744842e+01
1.330000e-06	1.144071e-06	1.023834e-09	8.085382e+00	6.313411e+01
1.340000e-06	1.215033e-06	1.265021e-09	8.586882e+00	7.890349e+01
1.350000e-06	1.285756e-06	1.508306e-09	9.086697e+00	9.474132e+01
1.360000e-06	1.356290e-06	1.750520e-09	9.585178e+00	1.106398e+02
1.370000e-06	1.426622e-06	1.992816e-09	1.008222e+01	1.265869e+02
1.380000e-06	1.496706e-06	2.236433e-09	1.057752e+01	1.425557e+02
1.390000e-06	1.566564e-06	2.479073e-09	1.107122e+01	1.584981e+02
1.400000e-06	1.636182e-06	2.719339e-09	1.156323e+01	1.743476e+02
1.410000e-06	1.705472e-06	2.954820e-09	1.205292e+01	1.900285e+02
1.420000e-06	1.774426e-06	3.190163e-09	1.254023e+01	2.054697e+02
1.430000e-06	1.843149e-06	3.422608e-09	1.302590e+01	2.206167e+02
1.440000e-06	1.911588e-06	3.647738e-09	1.350958e+01	2.354386e+02
1.450000e-06	1.979760e-06	3.866418e-09	1.399137e+01	2.499261e+02
1.460000e-06	2.047741e-06	4.080668e-09	1.447180e+01	2.640835e+02
1.470000e-06	2.115455e-06	4.291848e-09	1.495035e+01	2.779153e+02
1.480000e-06	2.182882e-06	4.497818e-09	1.542687e+01	2.914159e+02
1.490000e-06	2.249899e-06	4.696070e-09	1.590049e+01	3.045646e+02
1.500000e-06	2.316309e-06	4.886637e-09	1.636983e+01	3.173284e+02
1.510000e-06	2.382024e-06	5.071971e-09	1.683424e+01	3.296719e+02
1.520000e-06	2.447122e-06	5.252435e-09	1.729431e+01	3.415699e+02
1.530000e-06	2.511738e-06	5.425835e-09	1.775096e+01	3.530176e+02
1.540000e-06	2.575965e-06	5.592767e-09	1.820487e+01	3.640337e+02
1.550000e-06	2.639856e-06	5.754104e-09	1.865640e+01	3.746560e+02
1.560000e-06	2.703366e-06	5.911011e-09	1.910523e+01	3.849291e+02
1.570000e-06	2.766409e-06	6.064097e-09	1.955077e+01	3.948910e+02
1.580000e-06	2.828935e-06	6.212001e-09	1.999266e+01	4.045614e+02
1.590000e-06	2.890971e-06	6.355334e-09	2.043108e+01	4.139376e+02
1.600000e-06	2.952560e-06	6.493809e-09	2.086634e+01	4.229984e+02
1.610000e-06	3.013692e-06	6.627886e-09	2.129837e+01	4.317149e+02
1.620000e-06	3.074306e-06	6.756346e-09	2.172674e+01	4.400638e+02
1.630000e-06	3.134454e-06	6.876602e-09	2.215182e+01	4.480376e+02
1.640000e-06	3.194172e-06	6.990824e-09	2.257386e+01	4.556492e+02
1.650000e-06	3.253322e-06	7.099817e-09	2.299189e+01	4.629284e+02
1.660000e-06	3.311734e-06	7.204817e-09	2.340470e+01	4.699127e+02
1.670000e-06	3.369260e-06	7.305523e-09	2.381124e+01	4.766362e+02
1.680000e-06	3.425963e-06	7.401630e-09	2.421198e+01	4.831215e+02
1.690000e-06	3.482082e-06	7.495873e-09	2.460858e+01	4.893764e+02
1.700000e-06	3.537735e-06	7.586967e-09	2.500189e+01	4.953983e+02
1.710000e-06	3.592861e-06	7.673203e-09	2.539148e+01	5.011817e+02
1.720000e-06	3.647363e-06	7.754591e-09	2.577666e+01	5.067278e+02
1.730000e-06	3.701291e-06	7.833878e-09	2.615777e+01	5.120501e+02
1.740000e-06	3.754588e-06	7.911777e-09	2.653443e+01	5.171741e+02
1.750000e-06	3.807159e-06	7.986471e-09	2.690596e+01	5.221327e+02
1.760000e-06	3.859040e-06	8.058654e-09	2.727262e+01	5.269568e+02
1.770000e-06	3.910084e-06	8.129322e-09	2.763336e+01	5.316670e+02
1.780000e-06	3.960082e-06	8.198070e-09	2.798670e+01	5.362687e+02
1.790000e-06	4.009129e-06	8.264770e-09	2.833333e+01	5.407531e+02
1.800000e-06	4.057437e-06	8.328881e-09	2.867473e+01	5.451031e+02
1.810000e-06	4.105057e-06	8.390646e-09	2.901127e+01	5.493016e+02
1.820000e-06	4.152056e-06	8.452011e-09	2.934342e+01	5.533397e+02
1.830000e-06	4.198446e-06	8.512758e-09	2.967127e+01	5.572203e+02
1.840000e-06	4.244109e-06	8.568511e-09	2.999397e+01	5.609568e+02
1.850000e-06	4.289061e-06	8.618659e-09	3.031166e+01	5.645679e+02
1.860000e-06	4.333439e-06	8.667718e-09	3.062529e+01	5.680700e+02
1.870000e-06	4.377200e-06	8.716365e-09	3.093456e+01	5.714713e+02
1.880000e-06	4.420113e-06	8.763487e-09	3.123783e+01	5.747696e+02
1.890000e-06	4.461944e-06	8.808301e-09	3.153346e+01	5.779548e+02
1.900000e-06	4.502768e-06	8.852335e-09	3.182197e+01	5.810145e+02
1.910000e-06	4.542807e-06	8.896426e-09	3.210493e+01	5.839406e+02
1.920000e-06	4.582142e-06	8.937562e-09	3.238293e+01	5.867338e+02
1.930000e-06	4.620718e-06	8.974340e-09	3.265555e+01	5.894044e+02
1.940000e-06	4.658444e-06	9.008103e-09	3.292217e+01	5.919693e+02
1.950000e-06	4.695429e-06	9.041656e-09	3.318355e+01	5.944461e+02
1.960000e-06	4.731740e-06	9.075568e-09	3.344016e+01	5.968471e+02
1.970000e-06	4.767346e-06	9.107250e-09	3.369180e+01	5.991763e+02
1.980000e-06	4.802003e-06	9.137671e-09	3.393673e+01	6.014290e+02
1.990000e-06	4.835580e-06	9.169566e-09	3.417402e+01	6.035950e+02
2.000000e-06	4.868204e-06	9.201674e-09	3.440458e+01	6.056639e+02
2.010000e-06	4.899944e-06	9.232218e-09	3.462890e+01	6.076288e+02
2.020000e-06	4.930863e-06	9.259678e-09	3.484741e+01	6.094895e+02
2.030000e-06	4.961001e-06	9.285314e-09	3.506040e+01	6.112513e+02
2.040000e-06	4.990358e-06	9.308838e-09	3.526787e+01	6.129230e+02
2.050000e-06	5.018994e-06	9.329283e-09	3.547025e+01	6.145133e+02
2.060000e-06	5.046902e-06	9.347720e-09	3.566748e+01	6.160297e+02
2.070000e-06	5.073844e-06	9.365533e-09	3.585788e+01	6.174775e+02
2.080000e-06	5.099668e-06	9.385588e-09	3.604039e+01	6.188622e+02
2.090000e-06	5.124422e-06	9.406417e-09	3.621533e+01	6.201906e+02
2.100000e-06	5.148223e-06	9.427076e-09	3.638354e+01	6.214717e+02
2.110000e-06	5.171175e-06	9.446847e-09	3.654574e+01	6.227150e+02
2.120000e-06	5.193252e-06	9.464542e-09	3.670176e+01	6.239270e+02
2.130000e-06	5.214429e-06	9.479437e-09	3.685143e+01	6.251074e+02
2.140000e-06	5.234897e-06	9.492115e-09	3.699608e+01	6.262468e+02
2.150000e-06	5.254718e-06	9.505685e-09	3.713615e+01	6.273276e+02
2.160000e-06	5.273636e-06	9.520526e-09	3.726985e+01	6.283295e+02
2.170000e-06	5.291510e-06	9.535985e-09	3.739617e+01	6.292367e+02
2.180000e-06	5.308401e-06	9.549879e-09	3.751555e+01	6.300448e+02
2.190000e-06	5.324331e-06	9.561008e-09	3.762812e+01	6.307649e+02
2.200000e-06	5.339244e-06	9.570619e-09	3.773352e+01	6.314218e+02
2.210000e-06	5.353157e-06	9.578292e-09	3.783184e+01	6.320464e+02
2.220000e-06	5.366143e-06	9.585319e-09	3.792362e+01	6.326657e+02
2.230000e-06	5.378169e-06	9.593666e-09	3.800861e+01	6.332920e+02
2.240000e-06	5.389014e-06	9.603705e-09	3.808525e+01	6.339178e+02
2.250000e-06	5.398576e-06	9.614376e-09	3.815283e+01	6.345173e+02
2.260000e-06	5.407085e-06	9.623562e-09	3.821296e+01	6.350548e+02
2.270000e-06	5.414679e-06	9.632119e-09	3.826663e+01	6.354981e+02
2.280000e-06	5.421391e-06	9.640350e-09	3.831407e+01	6.358307e+02
2.290000e-06	5.427200e-06	9.646635e-09	3.835512e+01	6.360585e+02
2.300000e-06	5.432094e-06	9.649203e-09	3.838971e+01	6.362087e+02
2.310000e-06	5.436186e-06	9.648719e-09	3.841863e+01	6.363204e+02
2.320000e-06	5.439323e-06	9.647667e-09	3.844079e+01	6.364297e+02
2.330000e-06	5.441233e-06	9.648204e-09	3.845430e+01	6.365560e+02
2.340000e-06	5.442040e-06	9.650192e-09	3.846000e+01	6.366940e+02
2.350000e-06	5.441994e-06	9.654502e-09	3.845968e+01	6.368151e+02
2.360000e-06	5.441073e-06	9.659454e-09	3.845316e+01	6.368775e+02
2.370000e-06	5.439269e-06	9.660405e-09	3.844042e+01	6.368421e+02
2.380000e-06	5.436584e-06	9.660009e-09	3.842144e+01	6.366877e+02
2.390000e-06	5.433110e-06	9.656087e-09	3.839689e+01	6.364192e+02
2.400000e-06	5.428941e-06	9.648603e-09	3.836743e+01	6.360668e+02
2.410000e-06	5.423785e-06	9.642802e-09	3.833099e+01	6.356750e+02
2.420000e-06	5.417453e-06	9.651677e-09	3.828623e+01	6.352861e+02
2.430000e-06	5.410151e-06	9.636910e-09	3.823463e+01	6.349252e+02
2.440000e-06	5.401910e-06	9.591865e-09	3.817639e+01	6.345908e+02
2.450000e-06	5.392419e-06	9.584015e-09	3.810932e+01	6.342567e+02
2.460000e-06	5.381619e-06	9.645477e-09	3.803299e+01	6.338826e+02
2.470000e-06	5.369938e-06	9.680077e-09	3.795044e+01	6.334310e+02
2.480000e-06	5.357874e-06	9.574875e-09	3.786518e+01	6.328825e+02
2.490000e-06	5.345002e-06	9.542486e-09	3.777421e+01	6.322443e+02
2.500000e-06	5.330678e-06	9.671393e-09	3.767298e+01	6.315477e+02
2.510000e-06	5.315266e-06	9.569784e-09	3.756406e+01	6.308367e+02
2.520000e-06	5.299129e-06	9.490535e-09	3.745002e+01	6.301512e+02
2.530000e-06	5.282020e-06	9.648880e-09	3.732910e+01	6.295105e+02
2.540000e-06	5.263996e-06	9.555518e-09	3.720173e+01	6.289060e+02
2.550000e-06	5.245244e-06	9.442806e-09	3.706921e+01	6.283029e+02
2.560000e-06	5.225705e-06	9.609144e-09	3.693111e+01	6.276520e+02
2.570000e-06	5.205466e-06	9.553243e-09	3.678808e+01	6.269066e+02
2.580000e-06	5.184184e-06	9.387561e-09	3.663768e+01	6.260376e+02
2.590000e-06	5.161539e-06	9.523842e-09	3.647764e+01	6.250418e+02
2.600000e-06	5.137958e-06	9.499761e-09	3.631099e+01	6.239399e+02
2.610000e-06	5.113579e-06	9.433855e-09	3.613870e+01	6.227661e+02
2.620000e-06	5.088178e-06	9.496270e-09	3.595918e+01	6.215524e+02
2.630000e-06	5.061887e-06	9.366464e-09	3.577338e+01	6.203164e+02
2.640000e-06	5.034857e-06	9.409487e-09	3.558236e+01	6.190544e+02
2.650000e-06	5.007096e-06	9.457577e-09	3.538616e+01	6.177448e+02
2.660000e-06	4.978438e-06	9.285811e-09	3.518363e+01	6.163581e+02
2.670000e-06	4.948491e-06	9.348271e-09	3.497199e+01	6.148712e+02
2.680000e-06	4.917344e-06	9.372962e-09	3.475186e+01	6.132771e+02
2.690000e-06	4.885393e-06	9.276052e-09	3.452606e+01	6.115892e+02
2.700000e-06	4.852606e-06	9.294988e-09	3.429435e+01	6.098354e+02
2.710000e-06	4.818975e-06	9.237082e-09	3.405667e+01	6.080472e+02
2.720000e-06	4.784550e-06	9.196645e-09	3.381339e+01	6.062462e+02
2.730000e-06	4.749378e-06	9.210669e-09	3.356481e+01	6.044350e+02
2.740000e-06	4.713532e-06	9.173632e-09	3.331148e+01	6.025961e+02
2.750000e-06	4.676758e-06	9.151289e-09	3.305160e+01	6.006983e+02
2.760000e-06	4.638873e-06	9.113712e-09	3.278385e+01	5.987097e+02
2.770000e-06	4.599962e-06	9.088083e-09	3.250887e+01	5.966098e+02
2.780000e-06	4.560261e-06	9.059555e-09	3.222829e+01	5.943978e+02
2.790000e-06	4.519928e-06	8.987508e-09	3.194325e+01	5.920922e+02
2.800000e-06	4.478867e-06	8.967083e-09	3.165306e+01	5.897227e+02
2.810000e-06	4.437051e-06	8.938973e-09	3.135754e+01	5.873175e+02
2.820000e-06	4.394477e-06	8.915386e-09	3.105666e+01	5.848914e+02
2.830000e-06	4.351223e-06	8.888272e-09	3.075098e+01	5.824396e+02
2.840000e-06	4.307472e-06	8.806837e-09	3.044178e+01	5.799396e+02
2.850000e-06	4.263043e-06	8.786523e-09	3.012779e+01	5.773607e+02
2.860000e-06	4.217815e-06	8.759979e-09	2.980815e+01	5.746772e+02
2.870000e-06	4.171728e-06	8.711499e-09	2.948244e+01	5.718794e+02
2.880000e-06	4.124873e-06	8.673800e-09	2.915131e+01	5.689777e+02
2.890000e-06	4.077408e-06	8.605570e-09	2.881587e+01	5.659992e+02
2.900000e-06	4.029122e-06	8.581886e-09	2.847462e+01	5.629761e+02
2.910000e-06	3.980049e-06	8.541720e-09	2.812781e+01	5.599323e+02
2.920000e-06	3.930357e-06	8.479295e-09	2.777663e+01	5.568725e+02
2.930000e-06	3.880026e-06	8.432026e-09	2.742093e+01	5.537789e+02
2.940000e-06	3.828978e-06	8.385219e-09	2.706016e+01	5.506168e+02
