# Temperatura_=_20.0
# Concentracion g/m^3_=_10000.0
# C_Vs_to_Am_M_A/Vsm_=_65563218390.804596
# pendiente_HvsI_1/m_=_3716.3
# ordenada_HvsI_A/m_=_1297.0
# frecuencia_Hz_=_212877.45953262394

Tiempo_(s)	Campo_(V.s)	Magnetizacion_(V.s)	Campo_(kA/m)	Magnetizacion_(A/m)
0.000000e+00	-5.436256e-06	-9.739470e-09	-3.843099e+01	-6.346748e+02
1.000000e-08	-5.435901e-06	-9.741004e-09	-3.842847e+01	-6.346239e+02
2.000000e-08	-5.434626e-06	-9.741856e-09	-3.841946e+01	-6.345641e+02
3.000000e-08	-5.432124e-06	-9.740107e-09	-3.840177e+01	-6.344847e+02
4.000000e-08	-5.428564e-06	-9.735634e-09	-3.837660e+01	-6.343657e+02
5.000000e-08	-5.424243e-06	-9.730282e-09	-3.834606e+01	-6.341849e+02
6.000000e-08	-5.419111e-06	-9.723444e-09	-3.830978e+01	-6.339268e+02
7.000000e-08	-5.413072e-06	-9.710529e-09	-3.826709e+01	-6.335883e+02
8.000000e-08	-5.406147e-06	-9.689276e-09	-3.821813e+01	-6.331806e+02
9.000000e-08	-5.398265e-06	-9.698567e-09	-3.816241e+01	-6.327258e+02
1.000000e-07	-5.389161e-06	-9.755776e-09	-3.809805e+01	-6.322504e+02
1.100000e-07	-5.378661e-06	-9.761152e-09	-3.802382e+01	-6.317777e+02
1.200000e-07	-5.367022e-06	-9.673444e-09	-3.794154e+01	-6.313224e+02
1.300000e-07	-5.354640e-06	-9.546415e-09	-3.785401e+01	-6.308877e+02
1.400000e-07	-5.341529e-06	-9.660909e-09	-3.776132e+01	-6.304670e+02
1.500000e-07	-5.327376e-06	-9.795271e-09	-3.766127e+01	-6.300472e+02
1.600000e-07	-5.312126e-06	-9.568921e-09	-3.755346e+01	-6.296129e+02
1.700000e-07	-5.295793e-06	-9.553551e-09	-3.743800e+01	-6.291496e+02
1.800000e-07	-5.278326e-06	-9.718203e-09	-3.731451e+01	-6.286448e+02
1.900000e-07	-5.260027e-06	-9.594506e-09	-3.718515e+01	-6.280876e+02
2.000000e-07	-5.241076e-06	-9.527064e-09	-3.705118e+01	-6.274676e+02
2.100000e-07	-5.221343e-06	-9.683640e-09	-3.691168e+01	-6.267749e+02
2.200000e-07	-5.200766e-06	-9.560314e-09	-3.676621e+01	-6.260004e+02
2.300000e-07	-5.179344e-06	-9.467297e-09	-3.661477e+01	-6.251381e+02
2.400000e-07	-5.156974e-06	-9.666236e-09	-3.645663e+01	-6.241872e+02
2.500000e-07	-5.133666e-06	-9.562435e-09	-3.629186e+01	-6.231527e+02
2.600000e-07	-5.109580e-06	-9.446191e-09	-3.612159e+01	-6.220445e+02
2.700000e-07	-5.084595e-06	-9.504831e-09	-3.594496e+01	-6.208739e+02
2.800000e-07	-5.058479e-06	-9.472553e-09	-3.576033e+01	-6.196500e+02
2.900000e-07	-5.031259e-06	-9.461923e-09	-3.556791e+01	-6.183754e+02
3.000000e-07	-5.003111e-06	-9.441790e-09	-3.536892e+01	-6.170457e+02
3.100000e-07	-4.974112e-06	-9.374092e-09	-3.516391e+01	-6.156513e+02
3.200000e-07	-4.944301e-06	-9.399610e-09	-3.495316e+01	-6.141812e+02
3.300000e-07	-4.913634e-06	-9.406368e-09	-3.473637e+01	-6.126288e+02
3.400000e-07	-4.882145e-06	-9.312124e-09	-3.451376e+01	-6.109949e+02
3.500000e-07	-4.849979e-06	-9.283745e-09	-3.428636e+01	-6.092891e+02
3.600000e-07	-4.817091e-06	-9.279987e-09	-3.405387e+01	-6.075263e+02
3.700000e-07	-4.783147e-06	-9.245587e-09	-3.381391e+01	-6.057213e+02
3.800000e-07	-4.747988e-06	-9.249548e-09	-3.356535e+01	-6.038828e+02
3.900000e-07	-4.711897e-06	-9.200281e-09	-3.331021e+01	-6.020091e+02
4.000000e-07	-4.675080e-06	-9.135560e-09	-3.304994e+01	-6.000876e+02
4.100000e-07	-4.637520e-06	-9.144477e-09	-3.278441e+01	-5.980989e+02
4.200000e-07	-4.599135e-06	-9.126963e-09	-3.251305e+01	-5.960237e+02
4.300000e-07	-4.559887e-06	-9.064920e-09	-3.223559e+01	-5.938494e+02
4.400000e-07	-4.519933e-06	-9.009715e-09	-3.195314e+01	-5.915752e+02
4.500000e-07	-4.479426e-06	-8.997538e-09	-3.166679e+01	-5.892125e+02
4.600000e-07	-4.438109e-06	-8.972650e-09	-3.137470e+01	-5.867806e+02
4.700000e-07	-4.395656e-06	-8.925640e-09	-3.107458e+01	-5.842998e+02
4.800000e-07	-4.352238e-06	-8.883108e-09	-3.076765e+01	-5.817834e+02
4.900000e-07	-4.308123e-06	-8.836075e-09	-3.045577e+01	-5.792337e+02
5.000000e-07	-4.263345e-06	-8.819681e-09	-3.013922e+01	-5.766406e+02
5.100000e-07	-4.217901e-06	-8.778550e-09	-2.981797e+01	-5.739862e+02
5.200000e-07	-4.171736e-06	-8.714415e-09	-2.949161e+01	-5.712516e+02
5.300000e-07	-4.124837e-06	-8.666755e-09	-2.916006e+01	-5.684240e+02
5.400000e-07	-4.077285e-06	-8.623928e-09	-2.882390e+01	-5.655012e+02
5.500000e-07	-4.029098e-06	-8.597981e-09	-2.848324e+01	-5.624919e+02
5.600000e-07	-3.980058e-06	-8.546213e-09	-2.813656e+01	-5.594111e+02
5.700000e-07	-3.930012e-06	-8.483420e-09	-2.778277e+01	-5.562740e+02
5.800000e-07	-3.879040e-06	-8.443152e-09	-2.742242e+01	-5.530891e+02
5.900000e-07	-3.827231e-06	-8.405298e-09	-2.705617e+01	-5.498543e+02
6.000000e-07	-3.774613e-06	-8.354754e-09	-2.668419e+01	-5.465573e+02
6.100000e-07	-3.721237e-06	-8.277990e-09	-2.630686e+01	-5.431797e+02
6.200000e-07	-3.667201e-06	-8.223916e-09	-2.592485e+01	-5.397036e+02
6.300000e-07	-3.612550e-06	-8.186120e-09	-2.553851e+01	-5.361169e+02
6.400000e-07	-3.557311e-06	-8.130173e-09	-2.514800e+01	-5.324170e+02
6.500000e-07	-3.501529e-06	-8.065250e-09	-2.475366e+01	-5.286101e+02
6.600000e-07	-3.445241e-06	-7.994026e-09	-2.435573e+01	-5.247071e+02
6.700000e-07	-3.388333e-06	-7.945526e-09	-2.395343e+01	-5.207188e+02
6.800000e-07	-3.330569e-06	-7.894547e-09	-2.354507e+01	-5.166509e+02
6.900000e-07	-3.271867e-06	-7.823513e-09	-2.313009e+01	-5.125023e+02
7.000000e-07	-3.212482e-06	-7.751122e-09	-2.271027e+01	-5.082661e+02
7.100000e-07	-3.152586e-06	-7.681590e-09	-2.228684e+01	-5.039328e+02
7.200000e-07	-3.092161e-06	-7.622713e-09	-2.185968e+01	-4.994953e+02
7.300000e-07	-3.031239e-06	-7.547711e-09	-2.142899e+01	-4.949505e+02
7.400000e-07	-2.969801e-06	-7.464118e-09	-2.099467e+01	-4.903008e+02
7.500000e-07	-2.907856e-06	-7.391579e-09	-2.055675e+01	-4.855508e+02
7.600000e-07	-2.845486e-06	-7.325790e-09	-2.011583e+01	-4.807043e+02
7.700000e-07	-2.782653e-06	-7.259713e-09	-1.967164e+01	-4.757607e+02
7.800000e-07	-2.719295e-06	-7.173253e-09	-1.922374e+01	-4.707138e+02
7.900000e-07	-2.655518e-06	-7.086743e-09	-1.877288e+01	-4.655534e+02
8.000000e-07	-2.591373e-06	-7.008808e-09	-1.831941e+01	-4.602686e+02
8.100000e-07	-2.526873e-06	-6.926658e-09	-1.786344e+01	-4.548525e+02
8.200000e-07	-2.462010e-06	-6.836639e-09	-1.740489e+01	-4.493044e+02
8.300000e-07	-2.396604e-06	-6.739170e-09	-1.694252e+01	-4.436305e+02
8.400000e-07	-2.330563e-06	-6.656093e-09	-1.647564e+01	-4.378412e+02
8.500000e-07	-2.264039e-06	-6.576565e-09	-1.600536e+01	-4.319466e+02
8.600000e-07	-2.197125e-06	-6.486556e-09	-1.553232e+01	-4.259518e+02
8.700000e-07	-2.129737e-06	-6.388880e-09	-1.505593e+01	-4.198547e+02
8.800000e-07	-2.061981e-06	-6.288756e-09	-1.457693e+01	-4.136464e+02
8.900000e-07	-1.994022e-06	-6.196878e-09	-1.409651e+01	-4.073141e+02
9.000000e-07	-1.925861e-06	-6.095742e-09	-1.361465e+01	-4.008454e+02
9.100000e-07	-1.857449e-06	-5.985385e-09	-1.313102e+01	-3.942324e+02
9.200000e-07	-1.788757e-06	-5.877324e-09	-1.264541e+01	-3.874730e+02
9.300000e-07	-1.719767e-06	-5.774151e-09	-1.215770e+01	-3.805691e+02
9.400000e-07	-1.650458e-06	-5.675196e-09	-1.166772e+01	-3.735234e+02
9.500000e-07	-1.580861e-06	-5.565114e-09	-1.117571e+01	-3.663347e+02
9.600000e-07	-1.510977e-06	-5.451024e-09	-1.068168e+01	-3.589961e+02
9.700000e-07	-1.440826e-06	-5.338430e-09	-1.018576e+01	-3.514951e+02
9.800000e-07	-1.370451e-06	-5.221699e-09	-9.688247e+00	-3.438171e+02
9.900000e-07	-1.299822e-06	-5.098446e-09	-9.188940e+00	-3.359509e+02
1.000000e-06	-1.228965e-06	-4.965285e-09	-8.688025e+00	-3.278926e+02
1.010000e-06	-1.157861e-06	-4.836414e-09	-8.185365e+00	-3.196473e+02
1.020000e-06	-1.086476e-06	-4.712787e-09	-7.680718e+00	-3.112266e+02
1.030000e-06	-1.014851e-06	-4.586276e-09	-7.174374e+00	-3.026433e+02
1.040000e-06	-9.430709e-07	-4.452560e-09	-6.666931e+00	-2.939041e+02
1.050000e-06	-8.712081e-07	-4.311862e-09	-6.158905e+00	-2.850049e+02
1.060000e-06	-7.992462e-07	-4.174394e-09	-5.650178e+00	-2.759298e+02
1.070000e-06	-7.271681e-07	-4.032722e-09	-5.140631e+00	-2.666542e+02
1.080000e-06	-6.550053e-07	-3.882178e-09	-4.630484e+00	-2.571527e+02
1.090000e-06	-5.827542e-07	-3.726210e-09	-4.119714e+00	-2.474065e+02
1.100000e-06	-5.103733e-07	-3.570436e-09	-3.608025e+00	-2.374093e+02
1.110000e-06	-4.379339e-07	-3.417936e-09	-3.095923e+00	-2.271681e+02
1.120000e-06	-3.654448e-07	-3.256493e-09	-2.583470e+00	-2.166980e+02
1.130000e-06	-2.928994e-07	-3.088312e-09	-2.070619e+00	-2.060148e+02
1.140000e-06	-2.203175e-07	-2.920135e-09	-1.557509e+00	-1.951257e+02
1.150000e-06	-1.476995e-07	-2.753284e-09	-1.044145e+00	-1.840242e+02
1.160000e-06	-7.505021e-08	-2.583792e-09	-5.305588e-01	-1.726904e+02
1.170000e-06	-2.382499e-09	-2.402337e-09	-1.684280e-02	-1.610971e+02
1.180000e-06	7.026796e-08	-2.216983e-09	4.967512e-01	-1.492189e+02
1.190000e-06	1.428944e-07	-2.028826e-09	1.010175e+00	-1.370418e+02
1.200000e-06	2.154449e-07	-1.837264e-09	1.523063e+00	-1.245683e+02
1.210000e-06	2.878743e-07	-1.642145e-09	2.035094e+00	-1.118156e+02
1.220000e-06	3.602190e-07	-1.440868e-09	2.546527e+00	-9.880871e+01
1.230000e-06	4.325030e-07	-1.239772e-09	3.057530e+00	-8.556921e+01
1.240000e-06	5.047331e-07	-1.037168e-09	3.568153e+00	-7.210598e+01
1.250000e-06	5.769424e-07	-8.314645e-10	4.078628e+00	-5.841060e+01
1.260000e-06	6.490665e-07	-6.173755e-10	4.588500e+00	-4.446025e+01
1.270000e-06	7.210723e-07	-3.957047e-10	5.097537e+00	-3.022729e+01
1.280000e-06	7.929829e-07	-1.727646e-10	5.605901e+00	-1.569200e+01
1.290000e-06	8.647763e-07	5.490131e-11	6.113436e+00	-8.537083e-01
1.300000e-06	9.363697e-07	2.863252e-10	6.619557e+00	1.426396e+01
1.310000e-06	1.007849e-06	5.207681e-10	7.124874e+00	2.961597e+01
1.320000e-06	1.079242e-06	7.555970e-10	7.629575e+00	4.514570e+01
1.330000e-06	1.150414e-06	9.904903e-10	8.132718e+00	6.079792e+01
1.340000e-06	1.221395e-06	1.228924e-09	8.634513e+00	7.652985e+01
1.350000e-06	1.292141e-06	1.470436e-09	9.134644e+00	9.231579e+01
1.360000e-06	1.362639e-06	1.713476e-09	9.633016e+00	1.081437e+02
1.370000e-06	1.432944e-06	1.956372e-09	1.013003e+01	1.240052e+02
1.380000e-06	1.503045e-06	2.199793e-09	1.062560e+01	1.398826e+02
1.390000e-06	1.572896e-06	2.443470e-09	1.111940e+01	1.557398e+02
1.400000e-06	1.642399e-06	2.683073e-09	1.161075e+01	1.715197e+02
1.410000e-06	1.711553e-06	2.918952e-09	1.209962e+01	1.871501e+02
1.420000e-06	1.780496e-06	3.150867e-09	1.258701e+01	2.025571e+02
1.430000e-06	1.849196e-06	3.380138e-09	1.307268e+01	2.176788e+02
1.440000e-06	1.917579e-06	3.605908e-09	1.355610e+01	2.324766e+02
1.450000e-06	1.985780e-06	3.823468e-09	1.403824e+01	2.469374e+02
1.460000e-06	2.053789e-06	4.037754e-09	1.451902e+01	2.610672e+02
1.470000e-06	2.121475e-06	4.248856e-09	1.499753e+01	2.748781e+02
1.480000e-06	2.188759e-06	4.457463e-09	1.547318e+01	2.883743e+02
1.490000e-06	2.255594e-06	4.658404e-09	1.594566e+01	3.015422e+02
1.500000e-06	2.321972e-06	4.847485e-09	1.641492e+01	3.143501e+02
1.510000e-06	2.387731e-06	5.030283e-09	1.687979e+01	3.267557e+02
1.520000e-06	2.452815e-06	5.208352e-09	1.733990e+01	3.387211e+02
1.530000e-06	2.517426e-06	5.380827e-09	1.779665e+01	3.502271e+02
1.540000e-06	2.581615e-06	5.547035e-09	1.825043e+01	3.612822e+02
1.550000e-06	2.645392e-06	5.710192e-09	1.870129e+01	3.719215e+02
1.560000e-06	2.708785e-06	5.871375e-09	1.914944e+01	3.821960e+02
1.570000e-06	2.771701e-06	6.027516e-09	1.959422e+01	3.921560e+02
1.580000e-06	2.834126e-06	6.175294e-09	2.003553e+01	4.018344e+02
1.590000e-06	2.896114e-06	6.314516e-09	2.047374e+01	4.112367e+02
1.600000e-06	2.957646e-06	6.451590e-09	2.090874e+01	4.203417e+02
1.610000e-06	3.018700e-06	6.586627e-09	2.134035e+01	4.291120e+02
1.620000e-06	3.079230e-06	6.713196e-09	2.176826e+01	4.375111e+02
1.630000e-06	3.139303e-06	6.830576e-09	2.219294e+01	4.455200e+02
1.640000e-06	3.198967e-06	6.942711e-09	2.261473e+01	4.531470e+02
1.650000e-06	3.258094e-06	7.054262e-09	2.303272e+01	4.604273e+02
1.660000e-06	3.316421e-06	7.161227e-09	2.344505e+01	4.674121e+02
1.670000e-06	3.373814e-06	7.261732e-09	2.385079e+01	4.741523e+02
1.680000e-06	3.430418e-06	7.359652e-09	2.425095e+01	4.806826e+02
1.690000e-06	3.486455e-06	7.455497e-09	2.464709e+01	4.870130e+02
1.700000e-06	3.542020e-06	7.547643e-09	2.503990e+01	4.931303e+02
1.710000e-06	3.597065e-06	7.633326e-09	2.542904e+01	4.990095e+02
1.720000e-06	3.651584e-06	7.714543e-09	2.581445e+01	5.046302e+02
1.730000e-06	3.705506e-06	7.794116e-09	2.619565e+01	5.099907e+02
1.740000e-06	3.758781e-06	7.873459e-09	2.657227e+01	5.151150e+02
1.750000e-06	3.811363e-06	7.950430e-09	2.694399e+01	5.200489e+02
1.760000e-06	3.863193e-06	8.022312e-09	2.731039e+01	5.248466e+02
1.770000e-06	3.914192e-06	8.092006e-09	2.767093e+01	5.295538e+02
1.780000e-06	3.964224e-06	8.160321e-09	2.802462e+01	5.341926e+02
1.790000e-06	4.013221e-06	8.228004e-09	2.837100e+01	5.387554e+02
1.800000e-06	4.061387e-06	8.294694e-09	2.871151e+01	5.432097e+02
1.810000e-06	4.108982e-06	8.358235e-09	2.904798e+01	5.475121e+02
1.820000e-06	4.155921e-06	8.420722e-09	2.937980e+01	5.516260e+02
1.830000e-06	4.202108e-06	8.482467e-09	2.970632e+01	5.555369e+02
1.840000e-06	4.247598e-06	8.538181e-09	3.002790e+01	5.592579e+02
1.850000e-06	4.292424e-06	8.587033e-09	3.034479e+01	5.628254e+02
1.860000e-06	4.336642e-06	8.634188e-09	3.065739e+01	5.662845e+02
1.870000e-06	4.380274e-06	8.682776e-09	3.096584e+01	5.696726e+02
1.880000e-06	4.423127e-06	8.731647e-09	3.126879e+01	5.730046e+02
1.890000e-06	4.464870e-06	8.779281e-09	3.156389e+01	5.762685e+02
1.900000e-06	4.505569e-06	8.825117e-09	3.185160e+01	5.794312e+02
1.910000e-06	4.545495e-06	8.870020e-09	3.213385e+01	5.824526e+02
1.920000e-06	4.584726e-06	8.912056e-09	3.241119e+01	5.853026e+02
1.930000e-06	4.623240e-06	8.946917e-09	3.268346e+01	5.879741e+02
1.940000e-06	4.660920e-06	8.977638e-09	3.294983e+01	5.904873e+02
1.950000e-06	4.697804e-06	9.009164e-09	3.321058e+01	5.928829e+02
1.960000e-06	4.734009e-06	9.041698e-09	3.346653e+01	5.952075e+02
1.970000e-06	4.769519e-06	9.072831e-09	3.371756e+01	5.974967e+02
1.980000e-06	4.804060e-06	9.103670e-09	3.396175e+01	5.997628e+02
1.990000e-06	4.837389e-06	9.136875e-09	3.419736e+01	6.019910e+02
2.000000e-06	4.869716e-06	9.170171e-09	3.442589e+01	6.041465e+02
2.010000e-06	4.901311e-06	9.200745e-09	3.464925e+01	6.061886e+02
2.020000e-06	4.932171e-06	9.228198e-09	3.486741e+01	6.080877e+02
2.030000e-06	4.962193e-06	9.252939e-09	3.507965e+01	6.098368e+02
2.040000e-06	4.991390e-06	9.275600e-09	3.528606e+01	6.114551e+02
2.050000e-06	5.019832e-06	9.295186e-09	3.548712e+01	6.129811e+02
2.060000e-06	5.047586e-06	9.312092e-09	3.568333e+01	6.144587e+02
2.070000e-06	5.074513e-06	9.330074e-09	3.587369e+01	6.159223e+02
2.080000e-06	5.100255e-06	9.352132e-09	3.605566e+01	6.173849e+02
2.090000e-06	5.124784e-06	9.376650e-09	3.622907e+01	6.188354e+02
2.100000e-06	5.148455e-06	9.400884e-09	3.639641e+01	6.202445e+02
2.110000e-06	5.171301e-06	9.423181e-09	3.655791e+01	6.215772e+02
2.120000e-06	5.193250e-06	9.442045e-09	3.671308e+01	6.228062e+02
2.130000e-06	5.214364e-06	9.455573e-09	3.686234e+01	6.239222e+02
2.140000e-06	5.234684e-06	9.464472e-09	3.700599e+01	6.249359e+02
2.150000e-06	5.254338e-06	9.472666e-09	3.714494e+01	6.258733e+02
2.160000e-06	5.273146e-06	9.483416e-09	3.727790e+01	6.267645e+02
2.170000e-06	5.290891e-06	9.497634e-09	3.740334e+01	6.276329e+02
2.180000e-06	5.307702e-06	9.513578e-09	3.752218e+01	6.284870e+02
2.190000e-06	5.323613e-06	9.529755e-09	3.763467e+01	6.293197e+02
2.200000e-06	5.338489e-06	9.544615e-09	3.773983e+01	6.301127e+02
2.210000e-06	5.352369e-06	9.557098e-09	3.783795e+01	6.308460e+02
2.220000e-06	5.365315e-06	9.565720e-09	3.792947e+01	6.315069e+02
2.230000e-06	5.377259e-06	9.571059e-09	3.801391e+01	6.320944e+02
2.240000e-06	5.388063e-06	9.575778e-09	3.809029e+01	6.326193e+02
2.250000e-06	5.397610e-06	9.581285e-09	3.815778e+01	6.330978e+02
2.260000e-06	5.406015e-06	9.588779e-09	3.821720e+01	6.335441e+02
2.270000e-06	5.413508e-06	9.598703e-09	3.827017e+01	6.339631e+02
2.280000e-06	5.420134e-06	9.610284e-09	3.831701e+01	6.343477e+02
2.290000e-06	5.425815e-06	9.620656e-09	3.835717e+01	6.346820e+02
2.300000e-06	5.430627e-06	9.627456e-09	3.839119e+01	6.349476e+02
2.310000e-06	5.434648e-06	9.629642e-09	3.841962e+01	6.351323e+02
2.320000e-06	5.437765e-06	9.627594e-09	3.844165e+01	6.352355e+02
2.330000e-06	5.439686e-06	9.624014e-09	3.845523e+01	6.352694e+02
2.340000e-06	5.440361e-06	9.621928e-09	3.846000e+01	6.352551e+02
2.350000e-06	5.440081e-06	9.622313e-09	3.845802e+01	6.352147e+02
2.360000e-06	5.438971e-06	9.626950e-09	3.845018e+01	6.351630e+02
2.370000e-06	5.437022e-06	9.630531e-09	3.843640e+01	6.351019e+02
2.380000e-06	5.434246e-06	9.631031e-09	3.841677e+01	6.350195e+02
2.390000e-06	5.430726e-06	9.629969e-09	3.839189e+01	6.348953e+02
2.400000e-06	5.426510e-06	9.625167e-09	3.836209e+01	6.347073e+02
2.410000e-06	5.421417e-06	9.619647e-09	3.832608e+01	6.344410e+02
2.420000e-06	5.415170e-06	9.629110e-09	3.828192e+01	6.340948e+02
2.430000e-06	5.407764e-06	9.639060e-09	3.822956e+01	6.336812e+02
2.440000e-06	5.399443e-06	9.566155e-09	3.817074e+01	6.332231e+02
2.450000e-06	5.389941e-06	9.507116e-09	3.810357e+01	6.327470e+02
2.460000e-06	5.378980e-06	9.556087e-09	3.802608e+01	6.322756e+02
2.470000e-06	5.367163e-06	9.716877e-09	3.794254e+01	6.318223e+02
2.480000e-06	5.355074e-06	9.650632e-09	3.785707e+01	6.313894e+02
2.490000e-06	5.342237e-06	9.422853e-09	3.776633e+01	6.309694e+02
2.500000e-06	5.327852e-06	9.567986e-09	3.766463e+01	6.305488e+02
2.510000e-06	5.312227e-06	9.700951e-09	3.755417e+01	6.301122e+02
2.520000e-06	5.295990e-06	9.485810e-09	3.743939e+01	6.296453e+02
2.530000e-06	5.278893e-06	9.520592e-09	3.731852e+01	6.291356e+02
2.540000e-06	5.260763e-06	9.692222e-09	3.719035e+01	6.285725e+02
2.550000e-06	5.241961e-06	9.466085e-09	3.705744e+01	6.279458e+02
2.560000e-06	5.222442e-06	9.479199e-09	3.691945e+01	6.272452e+02
2.570000e-06	5.202066e-06	9.665335e-09	3.677540e+01	6.264621e+02
2.580000e-06	5.180817e-06	9.442805e-09	3.662519e+01	6.255908e+02
2.590000e-06	5.158271e-06	9.401954e-09	3.646580e+01	6.246312e+02
2.600000e-06	5.134555e-06	9.572256e-09	3.629814e+01	6.235887e+02
2.610000e-06	5.110070e-06	9.455241e-09	3.612505e+01	6.224738e+02
2.620000e-06	5.084581e-06	9.447051e-09	3.594486e+01	6.212975e+02
2.630000e-06	5.058109e-06	9.460289e-09	3.575772e+01	6.200685e+02
2.640000e-06	5.030944e-06	9.337681e-09	3.556568e+01	6.187886e+02
2.650000e-06	5.003025e-06	9.470071e-09	3.536830e+01	6.174529e+02
2.660000e-06	4.974223e-06	9.400177e-09	3.516469e+01	6.160514e+02
2.670000e-06	4.944250e-06	9.248813e-09	3.495280e+01	6.145732e+02
2.680000e-06	4.913018e-06	9.400991e-09	3.473202e+01	6.130124e+02
2.690000e-06	4.880956e-06	9.323823e-09	3.450535e+01	6.113708e+02
2.700000e-06	4.848148e-06	9.266233e-09	3.427342e+01	6.096585e+02
2.710000e-06	4.814437e-06	9.294897e-09	3.403510e+01	6.078908e+02
2.720000e-06	4.779911e-06	9.174954e-09	3.379103e+01	6.060822e+02
2.730000e-06	4.744643e-06	9.202854e-09	3.354170e+01	6.042405e+02
2.740000e-06	4.708657e-06	9.196217e-09	3.328731e+01	6.023626e+02
2.750000e-06	4.671863e-06	9.141957e-09	3.302719e+01	6.004353e+02
2.760000e-06	4.633979e-06	9.119658e-09	3.275938e+01	5.984388e+02
2.770000e-06	4.594999e-06	9.074417e-09	3.248381e+01	5.963540e+02
2.780000e-06	4.555191e-06	9.081255e-09	3.220240e+01	5.941695e+02
2.790000e-06	4.514736e-06	9.005882e-09	3.191640e+01	5.918857e+02
2.800000e-06	4.473595e-06	8.953571e-09	3.162556e+01	5.895151e+02
2.810000e-06	4.431676e-06	8.945753e-09	3.132922e+01	5.870775e+02
2.820000e-06	4.389108e-06	8.903174e-09	3.102829e+01	5.845925e+02
2.830000e-06	4.345932e-06	8.894192e-09	3.072306e+01	5.820730e+02
2.840000e-06	4.302124e-06	8.818085e-09	3.041337e+01	5.795195e+02
2.850000e-06	4.257640e-06	8.770533e-09	3.009889e+01	5.769211e+02
2.860000e-06	4.212314e-06	8.759451e-09	2.977847e+01	5.742595e+02
2.870000e-06	4.166209e-06	8.709143e-09	2.945253e+01	5.715159e+02
2.880000e-06	4.119403e-06	8.678333e-09	2.912164e+01	5.686787e+02
2.890000e-06	4.071932e-06	8.610240e-09	2.878605e+01	5.657467e+02
2.900000e-06	4.023692e-06	8.562332e-09	2.844502e+01	5.627294e+02
2.910000e-06	3.974594e-06	8.538082e-09	2.809793e+01	5.596423e+02
2.920000e-06	3.924799e-06	8.483795e-09	2.774591e+01	5.565002e+02
2.930000e-06	3.874365e-06	8.425859e-09	2.738937e+01	5.533106e+02
2.940000e-06	3.823283e-06	8.368962e-09	2.702826e+01	5.500702e+02
