# Temperatura_=_20.0
# Concentracion g/m^3_=_10000.0
# C_Vs_to_Am_M_A/Vsm_=_65563218390.804596
# pendiente_HvsI_1/m_=_3716.3
# ordenada_HvsI_A/m_=_1297.0
# frecuencia_Hz_=_212855.75309350496

Tiempo_(s)	Campo_(V.s)	Magnetizacion_(V.s)	Campo_(kA/m)	Magnetizacion_(A/m)
0.000000e+00	-5.422389e-06	-1.079738e-10	-3.843280e+01	-4.932701e+00
1.000000e-08	-5.421570e-06	-1.109567e-10	-3.842700e+01	-4.953247e+00
2.000000e-08	-5.419656e-06	-1.143021e-10	-3.841343e+01	-4.984647e+00
3.000000e-08	-5.416493e-06	-1.167916e-10	-3.839101e+01	-5.015228e+00
4.000000e-08	-5.412423e-06	-1.185577e-10	-3.836217e+01	-5.034115e+00
5.000000e-08	-5.407601e-06	-1.183459e-10	-3.832798e+01	-5.035890e+00
6.000000e-08	-5.401955e-06	-1.153927e-10	-3.828797e+01	-5.022530e+00
7.000000e-08	-5.395339e-06	-1.082736e-10	-3.824108e+01	-5.001801e+00
8.000000e-08	-5.387756e-06	-1.213432e-10	-3.818733e+01	-4.982937e+00
9.000000e-08	-5.379205e-06	-1.418251e-10	-3.812673e+01	-4.971696e+00
1.000000e-07	-5.369369e-06	-1.366054e-10	-3.805701e+01	-4.967270e+00
1.100000e-07	-5.358195e-06	-9.276256e-11	-3.797780e+01	-4.962746e+00
1.200000e-07	-5.346122e-06	-7.675436e-11	-3.789224e+01	-4.949250e+00
1.300000e-07	-5.333295e-06	-1.512227e-10	-3.780132e+01	-4.922128e+00
1.400000e-07	-5.319580e-06	-1.651039e-10	-3.770411e+01	-4.886419e+00
1.500000e-07	-5.304995e-06	-6.855878e-11	-3.760073e+01	-4.858842e+00
1.600000e-07	-5.289412e-06	-1.100408e-10	-3.749029e+01	-4.864748e+00
1.700000e-07	-5.272626e-06	-1.400167e-10	-3.737131e+01	-4.930503e+00
1.800000e-07	-5.254790e-06	-5.096724e-11	-3.724490e+01	-5.073715e+00
1.900000e-07	-5.236169e-06	-8.310602e-11	-3.711291e+01	-5.294924e+00
2.000000e-07	-5.216739e-06	-1.043901e-10	-3.697520e+01	-5.574133e+00
2.100000e-07	-5.196552e-06	-3.931846e-11	-3.683211e+01	-5.873995e+00
2.200000e-07	-5.175607e-06	-6.753175e-11	-3.668366e+01	-6.149117e+00
2.300000e-07	-5.153736e-06	-1.275554e-10	-3.652865e+01	-6.358631e+00
2.400000e-07	-5.130981e-06	-7.473078e-11	-3.636736e+01	-6.477839e+00
2.500000e-07	-5.107378e-06	-6.776319e-11	-3.620007e+01	-6.504956e+00
2.600000e-07	-5.082897e-06	-8.928335e-11	-3.602655e+01	-6.460603e+00
2.700000e-07	-5.057478e-06	-7.148546e-11	-3.584639e+01	-6.380271e+00
2.800000e-07	-5.030965e-06	-8.753422e-11	-3.565847e+01	-6.302427e+00
2.900000e-07	-5.003333e-06	-5.185627e-11	-3.546261e+01	-6.256448e+00
3.000000e-07	-4.974751e-06	-4.933324e-11	-3.526004e+01	-6.254514e+00
3.100000e-07	-4.945357e-06	-1.030231e-10	-3.505170e+01	-6.290029e+00
3.200000e-07	-4.915185e-06	-8.023991e-11	-3.483785e+01	-6.342719e+00
3.300000e-07	-4.884148e-06	-6.340168e-11	-3.461786e+01	-6.388107e+00
3.400000e-07	-4.852302e-06	-7.570385e-11	-3.439214e+01	-6.407600e+00
3.500000e-07	-4.819766e-06	-6.482915e-11	-3.416153e+01	-6.395404e+00
3.600000e-07	-4.786389e-06	-6.079201e-11	-3.392496e+01	-6.359869e+00
3.700000e-07	-4.751909e-06	-6.871356e-11	-3.368058e+01	-6.319123e+00
3.800000e-07	-4.716364e-06	-6.056999e-11	-3.342864e+01	-6.293029e+00
3.900000e-07	-4.680001e-06	-5.428513e-11	-3.317090e+01	-6.294807e+00
4.000000e-07	-4.642914e-06	-8.217164e-11	-3.290804e+01	-6.325631e+00
4.100000e-07	-4.605035e-06	-8.020346e-11	-3.263956e+01	-6.374182e+00
4.200000e-07	-4.566248e-06	-5.909639e-11	-3.236465e+01	-6.421126e+00
4.300000e-07	-4.526679e-06	-6.267142e-11	-3.208419e+01	-6.446555e+00
4.400000e-07	-4.486493e-06	-6.556214e-11	-3.179936e+01	-6.437376e+00
4.500000e-07	-4.445586e-06	-7.299331e-11	-3.150942e+01	-6.391793e+00
4.600000e-07	-4.403796e-06	-7.033039e-11	-3.121322e+01	-6.319301e+00
4.700000e-07	-4.361014e-06	-6.430096e-11	-3.090999e+01	-6.236435e+00
4.800000e-07	-4.317328e-06	-7.002210e-11	-3.060035e+01	-6.160170e+00
4.900000e-07	-4.272944e-06	-7.529374e-11	-3.028577e+01	-6.101658e+00
5.000000e-07	-4.227915e-06	-6.982728e-11	-2.996661e+01	-6.062709e+00
5.100000e-07	-4.182188e-06	-5.652702e-11	-2.964250e+01	-6.036176e+00
5.200000e-07	-4.135671e-06	-5.850045e-11	-2.931280e+01	-6.009803e+00
5.300000e-07	-4.088465e-06	-6.262473e-11	-2.897821e+01	-5.971738e+00
5.400000e-07	-4.040654e-06	-6.319222e-11	-2.863934e+01	-5.915387e+00
5.500000e-07	-3.992157e-06	-6.157633e-11	-2.829561e+01	-5.841706e+00
5.600000e-07	-3.942779e-06	-5.598850e-11	-2.794563e+01	-5.758228e+00
5.700000e-07	-3.892400e-06	-6.352780e-11	-2.758855e+01	-5.675488e+00
5.800000e-07	-3.841048e-06	-6.695292e-11	-2.722457e+01	-5.602557e+00
5.900000e-07	-3.788837e-06	-6.003473e-11	-2.685452e+01	-5.543616e+00
6.000000e-07	-3.735852e-06	-5.454936e-11	-2.647897e+01	-5.496930e+00
6.100000e-07	-3.682136e-06	-5.397100e-11	-2.609824e+01	-5.456433e+00
6.200000e-07	-3.627798e-06	-5.823323e-11	-2.571310e+01	-5.415008e+00
6.300000e-07	-3.572863e-06	-5.394360e-11	-2.532374e+01	-5.367822e+00
6.400000e-07	-3.517377e-06	-5.054873e-11	-2.493046e+01	-5.314168e+00
6.500000e-07	-3.461346e-06	-5.085086e-11	-2.453333e+01	-5.257036e+00
6.600000e-07	-3.404799e-06	-5.471226e-11	-2.413253e+01	-5.200702e+00
6.700000e-07	-3.347628e-06	-6.089829e-11	-2.372731e+01	-5.147594e+00
6.800000e-07	-3.289639e-06	-5.522731e-11	-2.331630e+01	-5.096018e+00
6.900000e-07	-3.230847e-06	-5.206746e-11	-2.289959e+01	-5.039963e+00
7.000000e-07	-3.171347e-06	-5.251812e-11	-2.247787e+01	-4.971233e+00
7.100000e-07	-3.111207e-06	-5.197269e-11	-2.205161e+01	-4.883065e+00
7.200000e-07	-3.050552e-06	-4.900909e-11	-2.162170e+01	-4.773641e+00
7.300000e-07	-2.989433e-06	-4.170758e-11	-2.118850e+01	-4.647854e+00
7.400000e-07	-2.927849e-06	-4.270481e-11	-2.075201e+01	-4.516364e+00
7.500000e-07	-2.865822e-06	-4.475384e-11	-2.031237e+01	-4.392127e+00
7.600000e-07	-2.803320e-06	-4.368356e-11	-1.986937e+01	-4.285696e+00
7.700000e-07	-2.740287e-06	-4.103698e-11	-1.942260e+01	-4.201213e+00
7.800000e-07	-2.676771e-06	-3.916657e-11	-1.897242e+01	-4.134779e+00
7.900000e-07	-2.612854e-06	-4.154163e-11	-1.851938e+01	-4.076020e+00
8.000000e-07	-2.548566e-06	-3.811869e-11	-1.806372e+01	-4.012305e+00
8.100000e-07	-2.483914e-06	-3.366377e-11	-1.760548e+01	-3.933994e+00
8.200000e-07	-2.418802e-06	-3.030442e-11	-1.714398e+01	-3.838564e+00
8.300000e-07	-2.353228e-06	-3.076620e-11	-1.667921e+01	-3.731863e+00
8.400000e-07	-2.287193e-06	-3.623497e-11	-1.621116e+01	-3.625876e+00
8.500000e-07	-2.220588e-06	-3.770441e-11	-1.573908e+01	-3.533774e+00
8.600000e-07	-2.153452e-06	-3.915523e-11	-1.526323e+01	-3.464182e+00
8.700000e-07	-2.085913e-06	-3.791376e-11	-1.478453e+01	-3.416968e+00
8.800000e-07	-2.018037e-06	-3.592042e-11	-1.430344e+01	-3.382333e+00
8.900000e-07	-1.949938e-06	-3.246196e-11	-1.382077e+01	-3.343706e+00
9.000000e-07	-1.881651e-06	-2.679662e-11	-1.333676e+01	-3.283448e+00
9.100000e-07	-1.813104e-06	-2.692119e-11	-1.285091e+01	-3.189248e+00
9.200000e-07	-1.744278e-06	-2.740814e-11	-1.236309e+01	-3.058759e+00
9.300000e-07	-1.675240e-06	-2.830334e-11	-1.187377e+01	-2.900662e+00
9.400000e-07	-1.605995e-06	-2.767981e-11	-1.138297e+01	-2.731714e+00
9.500000e-07	-1.536367e-06	-2.464200e-11	-1.088946e+01	-2.570846e+00
9.600000e-07	-1.466406e-06	-2.539468e-11	-1.039359e+01	-2.432526e+00
9.700000e-07	-1.396264e-06	-2.387206e-11	-9.896440e+00	-2.321867e+00
9.800000e-07	-1.325890e-06	-2.084507e-11	-9.397641e+00	-2.233299e+00
9.900000e-07	-1.255278e-06	-1.730856e-11	-8.897160e+00	-2.153242e+00
1.000000e-06	-1.184415e-06	-1.619848e-11	-8.394893e+00	-2.065731e+00
1.010000e-06	-1.113293e-06	-1.873925e-11	-7.890797e+00	-1.958837e+00
1.020000e-06	-1.041964e-06	-1.882894e-11	-7.385229e+00	-1.829455e+00
1.030000e-06	-9.704713e-07	-1.724795e-11	-6.878505e+00	-1.684725e+00
1.040000e-06	-8.987907e-07	-1.381040e-11	-6.370448e+00	-1.539588e+00
1.050000e-06	-8.269202e-07	-1.079938e-11	-5.861044e+00	-1.411471e+00
1.060000e-06	-7.549098e-07	-9.290061e-12	-5.350649e+00	-1.314078e+00
1.070000e-06	-6.827941e-07	-6.372957e-12	-4.839507e+00	-1.252549e+00
1.080000e-06	-6.106129e-07	-3.313289e-12	-4.327901e+00	-1.221643e+00
1.090000e-06	-5.383877e-07	3.304200e-13	-3.815984e+00	-1.207494e+00
1.100000e-06	-4.660776e-07	8.035382e-13	-3.303465e+00	-1.192157e+00
1.110000e-06	-3.936811e-07	2.499925e-13	-2.790333e+00	-1.159272e+00
1.120000e-06	-3.212798e-07	1.201249e-12	-2.277167e+00	-1.098892e+00
1.130000e-06	-2.488002e-07	6.809060e-13	-1.763446e+00	-1.009949e+00
1.140000e-06	-1.762519e-07	2.548142e-12	-1.249238e+00	-8.997852e-01
1.150000e-06	-1.037432e-07	4.881342e-12	-7.353109e-01	-7.811710e-01
1.160000e-06	-3.124618e-08	8.349821e-12	-2.214666e-01	-6.680318e-01
1.170000e-06	4.121176e-08	1.207357e-11	2.921006e-01	-5.713424e-01
1.180000e-06	1.136413e-07	1.332900e-11	8.054664e-01	-4.963931e-01
1.190000e-06	1.861208e-07	1.334173e-11	1.319187e+00	-4.420097e-01
1.200000e-06	2.585519e-07	1.219863e-11	1.832564e+00	-4.016175e-01
1.210000e-06	3.308668e-07	1.172935e-11	2.345117e+00	-3.655247e-01
1.220000e-06	4.031506e-07	1.163812e-11	2.857451e+00	-3.236021e-01
1.230000e-06	4.753929e-07	1.257834e-11	3.369489e+00	-2.676445e-01
1.240000e-06	5.475310e-07	1.550099e-11	3.880790e+00	-1.929781e-01
1.250000e-06	6.195485e-07	1.894701e-11	4.391235e+00	-9.917143e-02
1.260000e-06	6.914185e-07	2.130217e-11	4.900635e+00	1.009983e-02
1.270000e-06	7.631337e-07	2.166438e-11	5.408938e+00	1.279205e-01
1.280000e-06	8.347612e-07	2.277443e-11	5.916619e+00	2.456079e-01
1.290000e-06	9.062779e-07	2.351411e-11	6.423516e+00	3.546243e-01
1.300000e-06	9.776558e-07	2.459214e-11	6.929428e+00	4.486423e-01
1.310000e-06	1.048926e-06	2.663959e-11	7.434574e+00	5.253127e-01
1.320000e-06	1.120049e-06	2.666314e-11	7.938682e+00	5.871780e-01
1.330000e-06	1.190953e-06	2.702178e-11	8.441232e+00	6.412557e-01
1.340000e-06	1.261592e-06	2.843148e-11	8.941912e+00	6.971415e-01
1.350000e-06	1.331994e-06	2.905959e-11	9.440903e+00	7.639912e-01
1.360000e-06	1.402227e-06	2.978146e-11	9.938706e+00	8.472551e-01
1.370000e-06	1.472208e-06	2.998272e-11	1.043471e+01	9.463227e-01
1.380000e-06	1.541855e-06	2.990976e-11	1.092836e+01	1.054100e+00
1.390000e-06	1.611248e-06	2.952022e-11	1.142020e+01	1.158966e+00
1.400000e-06	1.680402e-06	2.983206e-11	1.191035e+01	1.248675e+00
1.410000e-06	1.749320e-06	3.294796e-11	1.239882e+01	1.314942e+00
1.420000e-06	1.817959e-06	3.646430e-11	1.288533e+01	1.357013e+00
1.430000e-06	1.886357e-06	3.847010e-11	1.337012e+01	1.382673e+00
1.440000e-06	1.954525e-06	3.674116e-11	1.385328e+01	1.406023e+00
1.450000e-06	2.022442e-06	3.403961e-11	1.433466e+01	1.442544e+00
1.460000e-06	2.090088e-06	3.310100e-11	1.481412e+01	1.503095e+00
1.470000e-06	2.157369e-06	3.244568e-11	1.529100e+01	1.589128e+00
1.480000e-06	2.224231e-06	3.333997e-11	1.576490e+01	1.691116e+00
1.490000e-06	2.290526e-06	3.513090e-11	1.623479e+01	1.791135e+00
1.500000e-06	2.356157e-06	3.751957e-11	1.669997e+01	1.869005e+00
1.510000e-06	2.421208e-06	3.935416e-11	1.716103e+01	1.909905e+00
1.520000e-06	2.485795e-06	3.851486e-11	1.761881e+01	1.910694e+00
1.530000e-06	2.549986e-06	3.587727e-11	1.807379e+01	1.882371e+00
1.540000e-06	2.613828e-06	3.310864e-11	1.852628e+01	1.847469e+00
1.550000e-06	2.677293e-06	3.168164e-11	1.897611e+01	1.832975e+00
1.560000e-06	2.740282e-06	3.083523e-11	1.942257e+01	1.861137e+00
1.570000e-06	2.802764e-06	3.213810e-11	1.986543e+01	1.941433e+00
1.580000e-06	2.864794e-06	3.592348e-11	2.030508e+01	2.066721e+00
1.590000e-06	2.926365e-06	3.982532e-11	2.074148e+01	2.215143e+00
1.600000e-06	2.987442e-06	4.347098e-11	2.117439e+01	2.357282e+00
1.610000e-06	3.048047e-06	4.604374e-11	2.160394e+01	2.466126e+00
1.620000e-06	3.108262e-06	4.731331e-11	2.203074e+01	2.526248e+00
1.630000e-06	3.168079e-06	4.544746e-11	2.245470e+01	2.538904e+00
1.640000e-06	3.227252e-06	4.115920e-11	2.287411e+01	2.521158e+00
1.650000e-06	3.285525e-06	3.833184e-11	2.328714e+01	2.499408e+00
1.660000e-06	3.342889e-06	3.819731e-11	2.369372e+01	2.499712e+00
1.670000e-06	3.399510e-06	4.093861e-11	2.409504e+01	2.538536e+00
1.680000e-06	3.455584e-06	4.399748e-11	2.449249e+01	2.617309e+00
1.690000e-06	3.511259e-06	4.645067e-11	2.488710e+01	2.722732e+00
1.700000e-06	3.566410e-06	4.829413e-11	2.527799e+01	2.832536e+00
1.710000e-06	3.620959e-06	4.870426e-11	2.566463e+01	2.924346e+00
1.720000e-06	3.674932e-06	4.778563e-11	2.604718e+01	2.984153e+00
1.730000e-06	3.728241e-06	4.559295e-11	2.642502e+01	3.011152e+00
1.740000e-06	3.780841e-06	4.428346e-11	2.679784e+01	3.017182e+00
1.750000e-06	3.832714e-06	4.479843e-11	2.716551e+01	3.021200e+00
1.760000e-06	3.883800e-06	4.625535e-11	2.752759e+01	3.041157e+00
1.770000e-06	3.933897e-06	4.756227e-11	2.788267e+01	3.086642e+00
1.780000e-06	3.982986e-06	4.842784e-11	2.823060e+01	3.155270e+00
1.790000e-06	4.031317e-06	4.999583e-11	2.857316e+01	3.234205e+00
1.800000e-06	4.079018e-06	5.180657e-11	2.891126e+01	3.306089e+00
1.810000e-06	4.126101e-06	5.221224e-11	2.924498e+01	3.356833e+00
1.820000e-06	4.172523e-06	5.260125e-11	2.957401e+01	3.381949e+00
1.830000e-06	4.218241e-06	5.333790e-11	2.989804e+01	3.388757e+00
1.840000e-06	4.263273e-06	5.293080e-11	3.021722e+01	3.393464e+00
1.850000e-06	4.307695e-06	5.286113e-11	3.053207e+01	3.414309e+00
1.860000e-06	4.351549e-06	5.328035e-11	3.084291e+01	3.463586e+00
1.870000e-06	4.394653e-06	5.373764e-11	3.114841e+01	3.541908e+00
1.880000e-06	4.436685e-06	5.478721e-11	3.144633e+01	3.637195e+00
1.890000e-06	4.477628e-06	5.792203e-11	3.173652e+01	3.728951e+00
1.900000e-06	4.517774e-06	6.076214e-11	3.202107e+01	3.796236e+00
1.910000e-06	4.557211e-06	6.168590e-11	3.230060e+01	3.826155e+00
1.920000e-06	4.595903e-06	6.109566e-11	3.257483e+01	3.819404e+00
1.930000e-06	4.633821e-06	5.870501e-11	3.284359e+01	3.790520e+00
1.940000e-06	4.670947e-06	5.739730e-11	3.310673e+01	3.762582e+00
1.950000e-06	4.707374e-06	5.639239e-11	3.336492e+01	3.758337e+00
1.960000e-06	4.743094e-06	5.497059e-11	3.361810e+01	3.791227e+00
1.970000e-06	4.777897e-06	5.442822e-11	3.386477e+01	3.859896e+00
1.980000e-06	4.811585e-06	5.674274e-11	3.410354e+01	3.948435e+00
1.990000e-06	4.844227e-06	6.061212e-11	3.433491e+01	4.032406e+00
2.000000e-06	4.876070e-06	6.233092e-11	3.456060e+01	4.088357e+00
2.010000e-06	4.907163e-06	6.187579e-11	3.478098e+01	4.103159e+00
2.020000e-06	4.937477e-06	6.061240e-11	3.499584e+01	4.079492e+00
2.030000e-06	4.966947e-06	5.915493e-11	3.520472e+01	4.035299e+00
2.040000e-06	4.995602e-06	5.768356e-11	3.540782e+01	3.997330e+00
2.050000e-06	5.023604e-06	5.594191e-11	3.560630e+01	3.991232e+00
2.060000e-06	5.050757e-06	5.436515e-11	3.579875e+01	4.031958e+00
2.070000e-06	5.076726e-06	5.509780e-11	3.598281e+01	4.118169e+00
2.080000e-06	5.101593e-06	5.795383e-11	3.615907e+01	4.232730e+00
2.090000e-06	5.125571e-06	6.046785e-11	3.632902e+01	4.349063e+00
2.100000e-06	5.148722e-06	6.268354e-11	3.649311e+01	4.440884e+00
2.110000e-06	5.171005e-06	6.397161e-11	3.665104e+01	4.491574e+00
2.120000e-06	5.192370e-06	6.358216e-11	3.680247e+01	4.499683e+00
2.130000e-06	5.212946e-06	6.056679e-11	3.694831e+01	4.478609e+00
2.140000e-06	5.232866e-06	5.540942e-11	3.708950e+01	4.450780e+00
2.150000e-06	5.251981e-06	5.262844e-11	3.722499e+01	4.438796e+00
2.160000e-06	5.270040e-06	5.368502e-11	3.735298e+01	4.457015e+00
2.170000e-06	5.287169e-06	5.609263e-11	3.747439e+01	4.506817e+00
2.180000e-06	5.303420e-06	5.827408e-11	3.758957e+01	4.577166e+00
2.190000e-06	5.318712e-06	5.917903e-11	3.769796e+01	4.649964e+00
2.200000e-06	5.333019e-06	5.900152e-11	3.779937e+01	4.707826e+00
2.210000e-06	5.346281e-06	5.716944e-11	3.789336e+01	4.741042e+00
2.220000e-06	5.358607e-06	5.343159e-11	3.798072e+01	4.750982e+00
2.230000e-06	5.369854e-06	4.957108e-11	3.806044e+01	4.748732e+00
2.240000e-06	5.379781e-06	4.860201e-11	3.813081e+01	4.749775e+00
2.250000e-06	5.388577e-06	5.081137e-11	3.819315e+01	4.767078e+00
2.260000e-06	5.396516e-06	5.362440e-11	3.824942e+01	4.805533e+00
2.270000e-06	5.403562e-06	5.564137e-11	3.829936e+01	4.860017e+00
2.280000e-06	5.409564e-06	5.670768e-11	3.834190e+01	4.917757e+00
2.290000e-06	5.414634e-06	5.791386e-11	3.837784e+01	4.963870e+00
2.300000e-06	5.418998e-06	5.646724e-11	3.840877e+01	4.987653e+00
2.310000e-06	5.422557e-06	5.237735e-11	3.843399e+01	4.986955e+00
2.320000e-06	5.424918e-06	4.947102e-11	3.845073e+01	4.968857e+00
2.330000e-06	5.426024e-06	4.920128e-11	3.845856e+01	4.946468e+00
2.340000e-06	5.426226e-06	5.026767e-11	3.846000e+01	4.933314e+00
2.350000e-06	5.425608e-06	5.126937e-11	3.845562e+01	4.937759e+00
2.360000e-06	5.424092e-06	5.193194e-11	3.844487e+01	4.959828e+00
2.370000e-06	5.421673e-06	5.406173e-11	3.842773e+01	4.991705e+00
2.380000e-06	5.418445e-06	5.510110e-11	3.840485e+01	5.021550e+00
2.390000e-06	5.414499e-06	5.437369e-11	3.837688e+01	5.038856e+00
2.400000e-06	5.409690e-06	5.207209e-11	3.834279e+01	5.038912e+00
2.410000e-06	5.403826e-06	5.376393e-11	3.830123e+01	5.024405e+00
2.420000e-06	5.396869e-06	5.424180e-11	3.825192e+01	5.003473e+00
2.430000e-06	5.389003e-06	2.695826e-11	3.819617e+01	4.985210e+00
2.440000e-06	5.380074e-06	2.784855e-11	3.813288e+01	4.974808e+00
2.450000e-06	5.369747e-06	6.298199e-11	3.805969e+01	4.970762e+00
2.460000e-06	5.358343e-06	1.088622e-10	3.797886e+01	4.965726e+00
2.470000e-06	5.346491e-06	5.443984e-11	3.789485e+01	4.950955e+00
2.480000e-06	5.334088e-06	-6.852538e-12	3.780694e+01	4.922559e+00
2.490000e-06	5.320354e-06	8.209077e-11	3.770960e+01	4.886731e+00
2.500000e-06	5.305287e-06	6.521839e-11	3.760280e+01	4.861277e+00
2.510000e-06	5.289455e-06	1.287220e-11	3.749059e+01	4.872052e+00
2.520000e-06	5.272703e-06	9.784953e-11	3.737186e+01	4.944992e+00
2.530000e-06	5.254933e-06	1.135969e-10	3.724590e+01	5.096315e+00
2.540000e-06	5.236438e-06	4.120869e-11	3.711482e+01	5.324562e+00
2.550000e-06	5.217205e-06	1.128805e-10	3.697850e+01	5.607743e+00
2.560000e-06	5.197230e-06	1.392318e-10	3.683692e+01	5.907205e+00
2.570000e-06	5.176408e-06	4.734643e-11	3.668934e+01	6.177423e+00
2.580000e-06	5.154338e-06	1.055072e-10	3.653291e+01	6.378675e+00
2.590000e-06	5.131114e-06	1.348935e-10	3.636830e+01	6.488359e+00
2.600000e-06	5.107051e-06	9.307370e-11	3.619775e+01	6.507080e+00
2.610000e-06	5.082000e-06	1.131559e-10	3.602019e+01	6.457386e+00
2.620000e-06	5.055981e-06	9.545190e-11	3.583578e+01	6.375637e+00
2.630000e-06	5.029193e-06	1.066276e-10	3.564591e+01	6.299901e+00
2.640000e-06	5.001682e-06	1.475708e-10	3.545092e+01	6.258104e+00
2.650000e-06	4.973391e-06	8.851381e-11	3.525040e+01	6.260501e+00
2.660000e-06	4.943960e-06	8.450387e-11	3.504179e+01	6.298801e+00
2.670000e-06	4.913306e-06	1.336462e-10	3.482452e+01	6.351843e+00
2.680000e-06	4.881760e-06	9.619339e-11	3.460094e+01	6.395309e+00
2.690000e-06	4.849357e-06	1.074574e-10	3.437127e+01	6.411655e+00
2.700000e-06	4.816081e-06	1.179648e-10	3.413542e+01	6.396541e+00
2.710000e-06	4.781987e-06	8.809378e-11	3.389376e+01	6.359574e+00
2.720000e-06	4.747130e-06	1.199646e-10	3.364670e+01	6.319453e+00
2.730000e-06	4.711583e-06	1.074605e-10	3.339475e+01	6.295725e+00
2.740000e-06	4.675205e-06	1.013195e-10	3.313691e+01	6.300579e+00
2.750000e-06	4.637884e-06	1.093508e-10	3.287239e+01	6.333870e+00
2.760000e-06	4.599583e-06	9.863868e-11	3.260092e+01	6.383207e+00
2.770000e-06	4.560315e-06	1.255392e-10	3.232259e+01	6.428839e+00
2.780000e-06	4.520282e-06	1.001419e-10	3.203885e+01	6.451235e+00
2.790000e-06	4.479578e-06	9.412975e-11	3.175035e+01	6.438299e+00
2.800000e-06	4.438136e-06	1.029335e-10	3.145662e+01	6.389441e+00
2.810000e-06	4.395951e-06	9.349496e-11	3.115761e+01	6.315108e+00
2.820000e-06	4.353068e-06	1.099737e-10	3.085367e+01	6.232195e+00
2.830000e-06	4.309578e-06	8.256884e-11	3.054542e+01	6.157346e+00
2.840000e-06	4.265420e-06	9.053250e-11	3.023244e+01	6.100877e+00
2.850000e-06	4.220476e-06	1.073141e-10	2.991389e+01	6.063619e+00
2.860000e-06	4.174689e-06	9.274373e-11	2.958936e+01	6.037695e+00
2.870000e-06	4.128201e-06	9.740714e-11	2.925986e+01	6.010634e+00
2.880000e-06	4.081090e-06	7.817820e-11	2.892595e+01	5.970924e+00
2.890000e-06	4.033264e-06	8.970706e-11	2.858697e+01	5.912674e+00
2.900000e-06	3.984672e-06	9.431324e-11	2.824256e+01	5.837595e+00
2.910000e-06	3.935341e-06	8.068082e-11	2.789291e+01	5.753710e+00
2.920000e-06	3.885356e-06	8.342207e-11	2.753862e+01	5.671607e+00
2.930000e-06	3.834724e-06	7.481621e-11	2.717975e+01	5.599989e+00
2.940000e-06	3.783362e-06	8.959304e-11	2.681571e+01	5.542448e+00
2.950000e-06	3.731151e-06	8.459992e-11	2.644565e+01	5.496703e+00
