# Temperatura_=_20.0
# Concentracion g/m^3_=_10000.0
# C_Vs_to_Am_M_A/Vsm_=_65563218390.804596
# pendiente_HvsI_1/m_=_3716.3
# ordenada_HvsI_A/m_=_1297.0
# frecuencia_Hz_=_212870.57944920845

Tiempo_(s)	Campo_(V.s)	Magnetizacion_(V.s)	Campo_(kA/m)	Magnetizacion_(A/m)
0.000000e+00	-5.441611e-06	-9.731441e-09	-3.842814e+01	-6.339582e+02
1.000000e-08	-5.441112e-06	-9.732905e-09	-3.842461e+01	-6.338727e+02
2.000000e-08	-5.439557e-06	-9.732869e-09	-3.841363e+01	-6.337596e+02
3.000000e-08	-5.436743e-06	-9.728106e-09	-3.839376e+01	-6.336363e+02
4.000000e-08	-5.432985e-06	-9.718605e-09	-3.836722e+01	-6.335053e+02
5.000000e-08	-5.428526e-06	-9.711672e-09	-3.833573e+01	-6.333519e+02
6.000000e-08	-5.423231e-06	-9.707673e-09	-3.829834e+01	-6.331489e+02
7.000000e-08	-5.417008e-06	-9.701015e-09	-3.825439e+01	-6.328659e+02
8.000000e-08	-5.409854e-06	-9.677906e-09	-3.820387e+01	-6.324820e+02
9.000000e-08	-5.401754e-06	-9.691593e-09	-3.814667e+01	-6.319948e+02
1.000000e-07	-5.392346e-06	-9.727484e-09	-3.808023e+01	-6.314255e+02
1.100000e-07	-5.381490e-06	-9.741563e-09	-3.800357e+01	-6.308151e+02
1.200000e-07	-5.369662e-06	-9.661730e-09	-3.792004e+01	-6.302142e+02
1.300000e-07	-5.357132e-06	-9.553304e-09	-3.783156e+01	-6.296694e+02
1.400000e-07	-5.343715e-06	-9.650290e-09	-3.773681e+01	-6.292104e+02
1.500000e-07	-5.329265e-06	-9.751826e-09	-3.763476e+01	-6.288421e+02
1.600000e-07	-5.313802e-06	-9.553724e-09	-3.752556e+01	-6.285441e+02
1.700000e-07	-5.297212e-06	-9.581756e-09	-3.740840e+01	-6.282771e+02
1.800000e-07	-5.279543e-06	-9.748179e-09	-3.728363e+01	-6.279944e+02
1.900000e-07	-5.261111e-06	-9.548320e-09	-3.715347e+01	-6.276535e+02
2.000000e-07	-5.241987e-06	-9.567927e-09	-3.701841e+01	-6.272252e+02
2.100000e-07	-5.222005e-06	-9.699899e-09	-3.687730e+01	-6.266958e+02
2.200000e-07	-5.201229e-06	-9.519623e-09	-3.673058e+01	-6.260650e+02
2.300000e-07	-5.179661e-06	-9.511822e-09	-3.657827e+01	-6.253384e+02
2.400000e-07	-5.157095e-06	-9.666971e-09	-3.641891e+01	-6.245200e+02
2.500000e-07	-5.133602e-06	-9.526924e-09	-3.625300e+01	-6.236081e+02
2.600000e-07	-5.109370e-06	-9.455642e-09	-3.608189e+01	-6.225944e+02
2.700000e-07	-5.084181e-06	-9.544189e-09	-3.590400e+01	-6.214686e+02
2.800000e-07	-5.057819e-06	-9.466405e-09	-3.571783e+01	-6.202249e+02
2.900000e-07	-5.030379e-06	-9.464139e-09	-3.552406e+01	-6.188673e+02
3.000000e-07	-5.002005e-06	-9.455341e-09	-3.532368e+01	-6.174125e+02
3.100000e-07	-4.972804e-06	-9.364471e-09	-3.511746e+01	-6.158864e+02
3.200000e-07	-4.942784e-06	-9.407373e-09	-3.490547e+01	-6.143172e+02
3.300000e-07	-4.911908e-06	-9.396299e-09	-3.468742e+01	-6.127266e+02
3.400000e-07	-4.880265e-06	-9.315268e-09	-3.446397e+01	-6.111228e+02
3.500000e-07	-4.847933e-06	-9.296413e-09	-3.423564e+01	-6.094978e+02
3.600000e-07	-4.814770e-06	-9.291541e-09	-3.400145e+01	-6.078302e+02
3.700000e-07	-4.780525e-06	-9.266623e-09	-3.375961e+01	-6.060933e+02
3.800000e-07	-4.745168e-06	-9.227958e-09	-3.350992e+01	-6.042650e+02
3.900000e-07	-4.708894e-06	-9.202242e-09	-3.325376e+01	-6.023353e+02
4.000000e-07	-4.671807e-06	-9.148198e-09	-3.299185e+01	-6.003098e+02
4.100000e-07	-4.633975e-06	-9.132107e-09	-3.272469e+01	-5.982074e+02
4.200000e-07	-4.595357e-06	-9.129699e-09	-3.245197e+01	-5.960525e+02
4.300000e-07	-4.555983e-06	-9.058995e-09	-3.217392e+01	-5.938657e+02
4.400000e-07	-4.515968e-06	-9.019577e-09	-3.189133e+01	-5.916554e+02
4.500000e-07	-4.475222e-06	-8.995573e-09	-3.160359e+01	-5.894150e+02
4.600000e-07	-4.433508e-06	-8.967487e-09	-3.130901e+01	-5.871253e+02
4.700000e-07	-4.390771e-06	-8.930082e-09	-3.100721e+01	-5.847612e+02
4.800000e-07	-4.347194e-06	-8.878360e-09	-3.069947e+01	-5.823017e+02
4.900000e-07	-4.302922e-06	-8.849976e-09	-3.038682e+01	-5.797367e+02
5.000000e-07	-4.257976e-06	-8.817637e-09	-3.006942e+01	-5.770709e+02
5.100000e-07	-4.212309e-06	-8.776259e-09	-2.974692e+01	-5.743210e+02
5.200000e-07	-4.165914e-06	-8.712667e-09	-2.941929e+01	-5.715088e+02
5.300000e-07	-4.118871e-06	-8.659134e-09	-2.908708e+01	-5.686525e+02
5.400000e-07	-4.071206e-06	-8.630157e-09	-2.875047e+01	-5.657599e+02
5.500000e-07	-4.022836e-06	-8.586543e-09	-2.840888e+01	-5.628250e+02
5.600000e-07	-3.973556e-06	-8.542953e-09	-2.806087e+01	-5.598309e+02
5.700000e-07	-3.923183e-06	-8.489028e-09	-2.770515e+01	-5.567561e+02
5.800000e-07	-3.871811e-06	-8.443009e-09	-2.734236e+01	-5.535824e+02
5.900000e-07	-3.819601e-06	-8.404747e-09	-2.697366e+01	-5.503008e+02
6.000000e-07	-3.766671e-06	-8.342071e-09	-2.659987e+01	-5.469142e+02
6.100000e-07	-3.713065e-06	-8.278262e-09	-2.622131e+01	-5.434338e+02
6.200000e-07	-3.658785e-06	-8.222677e-09	-2.583799e+01	-5.398739e+02
6.300000e-07	-3.603871e-06	-8.182968e-09	-2.545019e+01	-5.362442e+02
6.400000e-07	-3.548422e-06	-8.128333e-09	-2.505862e+01	-5.325453e+02
6.500000e-07	-3.492482e-06	-8.055794e-09	-2.466357e+01	-5.287681e+02
6.600000e-07	-3.435939e-06	-7.996974e-09	-2.426427e+01	-5.248971e+02
6.700000e-07	-3.378646e-06	-7.940974e-09	-2.385967e+01	-5.209171e+02
6.800000e-07	-3.320481e-06	-7.887879e-09	-2.344892e+01	-5.168195e+02
6.900000e-07	-3.261509e-06	-7.815034e-09	-2.303246e+01	-5.126066e+02
7.000000e-07	-3.201965e-06	-7.737192e-09	-2.261197e+01	-5.082902e+02
7.100000e-07	-3.141922e-06	-7.674022e-09	-2.218795e+01	-5.038873e+02
7.200000e-07	-3.081352e-06	-7.607355e-09	-2.176021e+01	-4.994127e+02
7.300000e-07	-3.020311e-06	-7.539228e-09	-2.132914e+01	-4.948722e+02
7.400000e-07	-2.958776e-06	-7.460139e-09	-2.089460e+01	-4.902590e+02
7.500000e-07	-2.896712e-06	-7.390412e-09	-2.045630e+01	-4.855555e+02
7.600000e-07	-2.834092e-06	-7.327828e-09	-2.001409e+01	-4.807383e+02
7.700000e-07	-2.771027e-06	-7.250427e-09	-1.956873e+01	-4.757865e+02
7.800000e-07	-2.707642e-06	-7.165576e-09	-1.912111e+01	-4.706886e+02
7.900000e-07	-2.643817e-06	-7.074313e-09	-1.867039e+01	-4.654458e+02
8.000000e-07	-2.579549e-06	-6.996651e-09	-1.821653e+01	-4.600705e+02
8.100000e-07	-2.514940e-06	-6.918463e-09	-1.776027e+01	-4.545805e+02
8.200000e-07	-2.449910e-06	-6.828129e-09	-1.730103e+01	-4.489914e+02
8.300000e-07	-2.384346e-06	-6.739835e-09	-1.683803e+01	-4.433098e+02
8.400000e-07	-2.318219e-06	-6.652676e-09	-1.637104e+01	-4.375305e+02
8.500000e-07	-2.251576e-06	-6.570297e-09	-1.590041e+01	-4.316388e+02
8.600000e-07	-2.184519e-06	-6.474129e-09	-1.542687e+01	-4.256161e+02
8.700000e-07	-2.117089e-06	-6.371441e-09	-1.495068e+01	-4.194478e+02
8.800000e-07	-2.049330e-06	-6.275248e-09	-1.447217e+01	-4.131289e+02
8.900000e-07	-1.981306e-06	-6.177994e-09	-1.399179e+01	-4.066657e+02
9.000000e-07	-1.913002e-06	-6.078573e-09	-1.350944e+01	-4.000728e+02
9.100000e-07	-1.844428e-06	-5.967724e-09	-1.302517e+01	-3.933662e+02
9.200000e-07	-1.775589e-06	-5.860709e-09	-1.253904e+01	-3.865552e+02
9.300000e-07	-1.706464e-06	-5.760182e-09	-1.205089e+01	-3.796367e+02
9.400000e-07	-1.637117e-06	-5.654490e-09	-1.156117e+01	-3.725943e+02
9.500000e-07	-1.567534e-06	-5.543788e-09	-1.106977e+01	-3.654021e+02
9.600000e-07	-1.497623e-06	-5.427397e-09	-1.057607e+01	-3.580328e+02
9.700000e-07	-1.427346e-06	-5.316105e-09	-1.007978e+01	-3.504665e+02
9.800000e-07	-1.356762e-06	-5.198795e-09	-9.581326e+00	-3.426962e+02
9.900000e-07	-1.285939e-06	-5.072187e-09	-9.081177e+00	-3.347296e+02
1.000000e-06	-1.214881e-06	-4.944966e-09	-8.579373e+00	-3.265843e+02
1.010000e-06	-1.143644e-06	-4.817694e-09	-8.076305e+00	-3.182798e+02
1.020000e-06	-1.072215e-06	-4.695263e-09	-7.571882e+00	-3.098285e+02
1.030000e-06	-1.000608e-06	-4.565049e-09	-7.066198e+00	-3.012294e+02
1.040000e-06	-9.288744e-07	-4.427601e-09	-6.559622e+00	-2.924672e+02
1.050000e-06	-8.569889e-07	-4.288624e-09	-6.051974e+00	-2.835160e+02
1.060000e-06	-7.849688e-07	-4.147099e-09	-5.543375e+00	-2.743480e+02
1.070000e-06	-7.128186e-07	-4.005013e-09	-5.033857e+00	-2.649418e+02
1.080000e-06	-6.406048e-07	-3.852098e-09	-4.523890e+00	-2.552886e+02
1.090000e-06	-5.682976e-07	-3.696387e-09	-4.013264e+00	-2.453930e+02
1.100000e-06	-4.958788e-07	-3.542810e-09	-3.501849e+00	-2.352688e+02
1.110000e-06	-4.233846e-07	-3.385379e-09	-2.989902e+00	-2.249309e+02
1.120000e-06	-3.507690e-07	-3.223664e-09	-2.477097e+00	-2.143875e+02
1.130000e-06	-2.781100e-07	-3.055021e-09	-1.963986e+00	-2.036343e+02
1.140000e-06	-2.054268e-07	-2.887510e-09	-1.450704e+00	-1.926550e+02
1.150000e-06	-1.327590e-07	-2.716817e-09	-9.375312e-01	-1.814254e+02
1.160000e-06	-6.005974e-08	-2.539828e-09	-4.241361e-01	-1.699222e+02
1.170000e-06	1.272920e-08	-2.356334e-09	8.989241e-02	-1.581308e+02
1.180000e-06	8.550724e-08	-2.167127e-09	6.038439e-01	-1.460498e+02
1.190000e-06	1.582439e-07	-1.978540e-09	1.117503e+00	-1.336910e+02
1.200000e-06	2.308540e-07	-1.785844e-09	1.630269e+00	-1.210732e+02
1.210000e-06	3.032969e-07	-1.590578e-09	2.141854e+00	-1.082144e+02
1.220000e-06	3.756965e-07	-1.391069e-09	2.653133e+00	-9.512328e+01
1.230000e-06	4.480522e-07	-1.186994e-09	3.164102e+00	-8.179493e+01
1.240000e-06	5.202925e-07	-9.811890e-10	3.674256e+00	-6.821205e+01
1.250000e-06	5.924274e-07	-7.680902e-10	4.183666e+00	-5.435141e+01
1.260000e-06	6.644820e-07	-5.518275e-10	4.692509e+00	-4.019331e+01
1.270000e-06	7.364422e-07	-3.309986e-10	5.200684e+00	-2.573052e+01
1.280000e-06	8.082770e-07	-1.062167e-10	5.707975e+00	-1.097356e+01
1.290000e-06	8.799921e-07	1.216381e-10	6.214420e+00	4.049725e+00
1.300000e-06	9.516250e-07	3.558676e-10	6.720285e+00	1.929994e+01
1.310000e-06	1.023138e-06	5.921037e-10	7.225301e+00	3.473487e+01
1.320000e-06	1.094476e-06	8.303900e-10	7.729082e+00	5.031781e+01
1.330000e-06	1.165633e-06	1.069211e-09	8.231592e+00	6.602216e+01
1.340000e-06	1.236649e-06	1.308701e-09	8.733099e+00	8.183062e+01
1.350000e-06	1.307485e-06	1.553135e-09	9.233335e+00	9.772932e+01
1.360000e-06	1.378062e-06	1.796913e-09	9.731745e+00	1.136992e+02
1.370000e-06	1.448389e-06	2.038514e-09	1.022839e+01	1.297084e+02
1.380000e-06	1.518440e-06	2.279970e-09	1.072308e+01	1.457085e+02
1.390000e-06	1.588199e-06	2.522988e-09	1.121571e+01	1.616368e+02
1.400000e-06	1.657688e-06	2.764872e-09	1.170643e+01	1.774235e+02
1.410000e-06	1.726904e-06	3.000628e-09	1.219523e+01	1.930026e+02
1.420000e-06	1.795793e-06	3.232917e-09	1.268172e+01	2.083207e+02
1.430000e-06	1.864377e-06	3.460528e-09	1.316605e+01	2.233431e+02
1.440000e-06	1.932700e-06	3.685222e-09	1.364855e+01	2.380528e+02
1.450000e-06	2.000800e-06	3.903457e-09	1.412946e+01	2.524451e+02
1.460000e-06	2.068691e-06	4.115169e-09	1.460890e+01	2.665181e+02
1.470000e-06	2.136355e-06	4.324360e-09	1.508673e+01	2.802644e+02
1.480000e-06	2.203758e-06	4.529447e-09	1.556273e+01	2.936661e+02
1.490000e-06	2.270717e-06	4.726720e-09	1.603559e+01	3.066957e+02
1.500000e-06	2.337074e-06	4.914499e-09	1.650419e+01	3.193218e+02
1.510000e-06	2.402745e-06	5.096522e-09	1.696796e+01	3.315187e+02
1.520000e-06	2.467724e-06	5.275152e-09	1.742683e+01	3.432743e+02
1.530000e-06	2.532197e-06	5.447188e-09	1.788213e+01	3.545946e+02
1.540000e-06	2.596319e-06	5.611998e-09	1.833496e+01	3.655026e+02
1.550000e-06	2.660113e-06	5.770120e-09	1.878546e+01	3.760318e+02
1.560000e-06	2.723486e-06	5.925106e-09	1.923300e+01	3.862157e+02
1.570000e-06	2.786415e-06	6.078115e-09	1.967740e+01	3.960788e+02
1.580000e-06	2.848891e-06	6.223949e-09	2.011859e+01	4.056300e+02
1.590000e-06	2.910875e-06	6.364140e-09	2.055632e+01	4.148631e+02
1.600000e-06	2.972365e-06	6.500922e-09	2.099056e+01	4.237615e+02
1.610000e-06	3.033342e-06	6.633472e-09	2.142117e+01	4.323075e+02
1.620000e-06	3.093813e-06	6.758714e-09	2.184821e+01	4.404915e+02
1.630000e-06	3.153856e-06	6.873059e-09	2.227223e+01	4.483181e+02
1.640000e-06	3.213493e-06	6.981268e-09	2.269338e+01	4.558067e+02
1.650000e-06	3.272586e-06	7.088840e-09	2.311069e+01	4.629874e+02
1.660000e-06	3.330874e-06	7.194200e-09	2.352232e+01	4.698932e+02
1.670000e-06	3.388157e-06	7.294292e-09	2.392684e+01	4.765507e+02
1.680000e-06	3.444627e-06	7.389136e-09	2.432562e+01	4.829756e+02
1.690000e-06	3.500608e-06	7.482810e-09	2.472096e+01	4.891710e+02
1.700000e-06	3.556185e-06	7.575066e-09	2.511344e+01	4.951318e+02
1.710000e-06	3.611205e-06	7.660715e-09	2.550198e+01	5.008526e+02
1.720000e-06	3.665597e-06	7.739453e-09	2.588610e+01	5.063349e+02
1.730000e-06	3.719426e-06	7.815623e-09	2.626623e+01	5.115923e+02
1.740000e-06	3.772656e-06	7.892388e-09	2.664214e+01	5.166508e+02
1.750000e-06	3.825188e-06	7.967680e-09	2.701311e+01	5.215439e+02
1.760000e-06	3.876987e-06	8.039226e-09	2.737891e+01	5.263040e+02
1.770000e-06	3.927936e-06	8.109043e-09	2.773871e+01	5.309540e+02
1.780000e-06	3.977767e-06	8.177966e-09	2.809061e+01	5.355013e+02
1.790000e-06	4.026547e-06	8.244470e-09	2.843509e+01	5.399373e+02
1.800000e-06	4.074628e-06	8.307186e-09	2.877463e+01	5.442417e+02
1.810000e-06	4.122113e-06	8.366729e-09	2.910997e+01	5.483916e+02
1.820000e-06	4.168932e-06	8.425194e-09	2.944060e+01	5.523708e+02
1.830000e-06	4.215084e-06	8.482590e-09	2.976652e+01	5.561772e+02
1.840000e-06	4.260589e-06	8.535089e-09	3.008787e+01	5.598244e+02
1.850000e-06	4.305344e-06	8.584179e-09	3.040393e+01	5.633385e+02
1.860000e-06	4.349461e-06	8.633702e-09	3.071548e+01	5.667494e+02
1.870000e-06	4.393075e-06	8.682617e-09	3.102347e+01	5.700810e+02
1.880000e-06	4.435884e-06	8.730112e-09	3.132579e+01	5.733439e+02
1.890000e-06	4.477566e-06	8.775931e-09	3.162014e+01	5.765313e+02
1.900000e-06	4.518186e-06	8.820297e-09	3.190699e+01	5.796225e+02
1.910000e-06	4.558068e-06	8.864656e-09	3.218864e+01	5.825904e+02
1.920000e-06	4.597264e-06	8.905770e-09	3.246544e+01	5.854119e+02
1.930000e-06	4.635661e-06	8.939682e-09	3.273659e+01	5.880764e+02
1.940000e-06	4.673268e-06	8.971781e-09	3.300217e+01	5.905907e+02
1.950000e-06	4.710063e-06	9.006500e-09	3.326202e+01	5.929774e+02
1.960000e-06	4.746139e-06	9.040022e-09	3.351678e+01	5.952678e+02
1.970000e-06	4.781534e-06	9.070615e-09	3.376673e+01	5.974924e+02
1.980000e-06	4.815915e-06	9.100866e-09	3.400953e+01	5.996710e+02
1.990000e-06	4.849065e-06	9.133534e-09	3.424364e+01	6.018067e+02
2.000000e-06	4.881263e-06	9.165849e-09	3.447101e+01	6.038865e+02
2.010000e-06	4.912791e-06	9.194743e-09	3.469366e+01	6.058865e+02
2.020000e-06	4.943522e-06	9.221209e-09	3.491068e+01	6.077814e+02
2.030000e-06	4.973425e-06	9.245606e-09	3.512185e+01	6.095545e+02
2.040000e-06	5.002544e-06	9.268204e-09	3.532749e+01	6.112039e+02
2.050000e-06	5.030871e-06	9.288046e-09	3.552753e+01	6.127447e+02
2.060000e-06	5.058519e-06	9.305639e-09	3.572278e+01	6.142036e+02
2.070000e-06	5.085223e-06	9.324185e-09	3.591136e+01	6.156105e+02
2.080000e-06	5.110688e-06	9.346194e-09	3.609119e+01	6.169892e+02
2.090000e-06	5.135064e-06	9.370079e-09	3.626333e+01	6.183495e+02
2.100000e-06	5.158605e-06	9.392724e-09	3.642957e+01	6.196850e+02
2.110000e-06	5.181259e-06	9.412324e-09	3.658956e+01	6.209765e+02
2.120000e-06	5.203006e-06	9.429677e-09	3.674313e+01	6.221999e+02
2.130000e-06	5.223938e-06	9.443917e-09	3.689095e+01	6.233349e+02
2.140000e-06	5.244136e-06	9.454582e-09	3.703359e+01	6.243728e+02
2.150000e-06	5.263621e-06	9.467064e-09	3.717119e+01	6.253192e+02
2.160000e-06	5.282182e-06	9.481988e-09	3.730227e+01	6.261920e+02
2.170000e-06	5.299735e-06	9.496580e-09	3.742622e+01	6.270141e+02
2.180000e-06	5.316404e-06	9.509865e-09	3.754393e+01	6.278054e+02
2.190000e-06	5.332075e-06	9.522518e-09	3.765460e+01	6.285757e+02
2.200000e-06	5.346676e-06	9.534376e-09	3.775772e+01	6.293218e+02
2.210000e-06	5.360377e-06	9.544743e-09	3.785447e+01	6.300299e+02
2.220000e-06	5.373123e-06	9.554186e-09	3.794448e+01	6.306818e+02
2.230000e-06	5.384909e-06	9.561908e-09	3.802771e+01	6.312630e+02
2.240000e-06	5.395561e-06	9.569017e-09	3.810293e+01	6.317690e+02
2.250000e-06	5.404874e-06	9.576490e-09	3.816870e+01	6.322075e+02
2.260000e-06	5.413107e-06	9.583473e-09	3.822684e+01	6.325956e+02
2.270000e-06	5.420480e-06	9.590358e-09	3.827891e+01	6.329531e+02
2.280000e-06	5.426973e-06	9.597496e-09	3.832477e+01	6.332948e+02
2.290000e-06	5.432532e-06	9.604687e-09	3.836402e+01	6.336234e+02
2.300000e-06	5.437152e-06	9.609994e-09	3.839665e+01	6.339289e+02
2.310000e-06	5.440990e-06	9.612849e-09	3.842375e+01	6.341912e+02
2.320000e-06	5.443945e-06	9.613848e-09	3.844462e+01	6.343880e+02
2.330000e-06	5.445621e-06	9.614279e-09	3.845646e+01	6.345037e+02
2.340000e-06	5.446123e-06	9.615537e-09	3.846000e+01	6.345356e+02
2.350000e-06	5.445812e-06	9.616727e-09	3.845781e+01	6.344957e+02
2.360000e-06	5.444659e-06	9.619764e-09	3.844966e+01	6.344063e+02
2.370000e-06	5.442641e-06	9.619480e-09	3.843541e+01	6.342916e+02
2.380000e-06	5.439773e-06	9.617140e-09	3.841516e+01	6.341677e+02
2.390000e-06	5.436061e-06	9.613653e-09	3.838894e+01	6.340353e+02
2.400000e-06	5.431606e-06	9.609301e-09	3.835748e+01	6.338783e+02
2.410000e-06	5.426296e-06	9.606819e-09	3.831999e+01	6.336686e+02
2.420000e-06	5.419822e-06	9.617114e-09	3.827427e+01	6.333762e+02
2.430000e-06	5.412231e-06	9.633069e-09	3.822066e+01	6.329816e+02
2.440000e-06	5.403675e-06	9.562806e-09	3.816024e+01	6.324848e+02
2.450000e-06	5.393867e-06	9.517918e-09	3.809097e+01	6.319093e+02
2.460000e-06	5.382727e-06	9.552963e-09	3.801230e+01	6.312975e+02
2.470000e-06	5.370850e-06	9.675035e-09	3.792843e+01	6.307003e+02
2.480000e-06	5.358682e-06	9.611452e-09	3.784250e+01	6.301630e+02
2.490000e-06	5.345600e-06	9.385249e-09	3.775012e+01	6.297133e+02
2.500000e-06	5.330909e-06	9.583865e-09	3.764637e+01	6.293533e+02
2.510000e-06	5.315108e-06	9.653969e-09	3.753479e+01	6.290603e+02
2.520000e-06	5.298709e-06	9.422414e-09	3.741898e+01	6.287938e+02
2.530000e-06	5.281318e-06	9.556689e-09	3.729616e+01	6.285070e+02
2.540000e-06	5.262968e-06	9.656456e-09	3.716658e+01	6.281584e+02
2.550000e-06	5.244000e-06	9.420441e-09	3.703263e+01	6.277203e+02
2.560000e-06	5.224245e-06	9.530904e-09	3.689312e+01	6.271806e+02
2.570000e-06	5.203641e-06	9.651584e-09	3.674762e+01	6.265399e+02
2.580000e-06	5.182017e-06	9.374194e-09	3.659491e+01	6.258039e+02
2.590000e-06	5.159043e-06	9.480083e-09	3.643267e+01	6.249764e+02
2.600000e-06	5.135086e-06	9.589144e-09	3.626348e+01	6.240547e+02
2.610000e-06	5.110393e-06	9.420194e-09	3.608911e+01	6.230302e+02
2.620000e-06	5.084641e-06	9.496195e-09	3.590725e+01	6.218927e+02
2.630000e-06	5.058017e-06	9.453087e-09	3.571924e+01	6.206372e+02
2.640000e-06	5.030749e-06	9.372935e-09	3.552667e+01	6.192689e+02
2.650000e-06	5.002651e-06	9.478373e-09	3.532825e+01	6.178057e+02
2.660000e-06	4.973600e-06	9.363024e-09	3.512309e+01	6.162740e+02
2.670000e-06	4.943317e-06	9.287973e-09	3.490924e+01	6.147018e+02
2.680000e-06	4.911868e-06	9.388409e-09	3.468714e+01	6.131098e+02
2.690000e-06	4.879657e-06	9.324497e-09	3.445967e+01	6.115045e+02
2.700000e-06	4.846610e-06	9.274680e-09	3.422630e+01	6.098762e+02
2.710000e-06	4.812667e-06	9.275265e-09	3.398659e+01	6.082028e+02
2.720000e-06	4.777959e-06	9.210625e-09	3.374149e+01	6.064577e+02
2.730000e-06	4.742547e-06	9.214705e-09	3.349142e+01	6.046194e+02
2.740000e-06	4.706438e-06	9.191538e-09	3.323642e+01	6.026795e+02
2.750000e-06	4.669372e-06	9.152920e-09	3.297466e+01	6.006453e+02
2.760000e-06	4.631233e-06	9.123846e-09	3.270532e+01	5.985365e+02
2.770000e-06	4.592086e-06	9.073312e-09	3.242887e+01	5.963776e+02
2.780000e-06	4.552102e-06	9.078559e-09	3.214651e+01	5.941882e+02
2.790000e-06	4.511479e-06	9.007627e-09	3.185963e+01	5.919754e+02
2.800000e-06	4.470163e-06	8.968167e-09	3.156786e+01	5.897312e+02
2.810000e-06	4.428119e-06	8.970033e-09	3.127096e+01	5.874351e+02
2.820000e-06	4.385361e-06	8.913898e-09	3.096900e+01	5.850622e+02
2.830000e-06	4.341909e-06	8.902294e-09	3.066215e+01	5.825923e+02
2.840000e-06	4.297860e-06	8.825032e-09	3.035108e+01	5.800168e+02
2.850000e-06	4.253144e-06	8.780181e-09	3.003529e+01	5.773417e+02
2.860000e-06	4.207623e-06	8.779838e-09	2.971383e+01	5.745845e+02
2.870000e-06	4.161340e-06	8.715827e-09	2.938698e+01	5.717671e+02
2.880000e-06	4.114363e-06	8.686500e-09	2.905524e+01	5.689071e+02
2.890000e-06	4.066649e-06	8.623532e-09	2.871829e+01	5.660106e+02
2.900000e-06	4.018172e-06	8.583697e-09	2.837595e+01	5.630707e+02
2.910000e-06	3.968978e-06	8.553500e-09	2.802854e+01	5.600695e+02
2.920000e-06	3.919035e-06	8.488269e-09	2.767585e+01	5.569854e+02
2.930000e-06	3.868418e-06	8.450115e-09	2.731840e+01	5.538011e+02
2.940000e-06	3.817142e-06	8.390733e-09	2.695629e+01	5.505087e+02
2.950000e-06	3.765073e-06	8.360981e-09	2.658859e+01	5.471120e+02
