# Temperatura_=_20.0
# Concentracion g/m^3_=_10000.0
# C_Vs_to_Am_M_A/Vsm_=_65563218390.804596
# pendiente_HvsI_1/m_=_3716.3
# ordenada_HvsI_A/m_=_1297.0
# frecuencia_Hz_=_300968.64696212596
# Promedio de 31 ciclos

Tiempo_(s)	Campo_(V.s)	Magnetizacion_(V.s)	Campo_(kA/m)	Magnetizacion_(A/m)
0.000000e+00	-5.497628e-09	-9.736718e-09	-3.826646e+01	-6.276988e+02
1.000000e-08	-5.495540e-09	-9.734690e-09	-3.825193e+01	-6.263292e+02
2.000000e-08	-5.491533e-09	-9.732086e-09	-3.822404e+01	-6.249606e+02
3.000000e-08	-5.485812e-09	-9.728272e-09	-3.818422e+01	-6.235999e+02
4.000000e-08	-5.478460e-09	-9.721613e-09	-3.813305e+01	-6.222531e+02
5.000000e-08	-5.469352e-09	-9.712521e-09	-3.806966e+01	-6.209256e+02
6.000000e-08	-5.458233e-09	-9.700966e-09	-3.799227e+01	-6.196221e+02
7.000000e-08	-5.445068e-09	-9.679002e-09	-3.790063e+01	-6.183461e+02
8.000000e-08	-5.429787e-09	-9.670452e-09	-3.779428e+01	-6.171007e+02
9.000000e-08	-5.412188e-09	-9.691074e-09	-3.767178e+01	-6.158881e+02
1.000000e-07	-5.392405e-09	-9.679305e-09	-3.753408e+01	-6.147095e+02
1.100000e-07	-5.370677e-09	-9.650071e-09	-3.738285e+01	-6.135653e+02
1.200000e-07	-5.347206e-09	-9.619407e-09	-3.721947e+01	-6.124553e+02
1.300000e-07	-5.322219e-09	-9.542998e-09	-3.704556e+01	-6.113781e+02
1.400000e-07	-5.295652e-09	-9.564716e-09	-3.686064e+01	-6.103319e+02
1.500000e-07	-5.267315e-09	-9.599938e-09	-3.666340e+01	-6.093137e+02
1.600000e-07	-5.237310e-09	-9.501809e-09	-3.645455e+01	-6.083199e+02
1.700000e-07	-5.205616e-09	-9.510788e-09	-3.623395e+01	-6.073460e+02
1.800000e-07	-5.171889e-09	-9.513340e-09	-3.599920e+01	-6.063869e+02
1.900000e-07	-5.136272e-09	-9.430283e-09	-3.575128e+01	-6.054366e+02
2.000000e-07	-5.099122e-09	-9.458112e-09	-3.549270e+01	-6.044885e+02
2.100000e-07	-5.060265e-09	-9.419974e-09	-3.522224e+01	-6.035350e+02
2.200000e-07	-5.019515e-09	-9.334029e-09	-3.493860e+01	-6.025682e+02
2.300000e-07	-4.976814e-09	-9.339957e-09	-3.464138e+01	-6.015792e+02
2.400000e-07	-4.932210e-09	-9.323239e-09	-3.433092e+01	-6.005589e+02
2.500000e-07	-4.885818e-09	-9.288207e-09	-3.400800e+01	-5.994971e+02
2.600000e-07	-4.837451e-09	-9.218437e-09	-3.367135e+01	-5.983836e+02
2.700000e-07	-4.786967e-09	-9.144307e-09	-3.331996e+01	-5.972072e+02
2.800000e-07	-4.734512e-09	-9.131884e-09	-3.295484e+01	-5.959566e+02
2.900000e-07	-4.680274e-09	-9.104520e-09	-3.257732e+01	-5.946198e+02
3.000000e-07	-4.624393e-09	-9.060104e-09	-3.218836e+01	-5.931847e+02
3.100000e-07	-4.566798e-09	-9.002095e-09	-3.178748e+01	-5.916387e+02
3.200000e-07	-4.507430e-09	-8.949896e-09	-3.137424e+01	-5.899688e+02
3.300000e-07	-4.446490e-09	-8.912970e-09	-3.095007e+01	-5.881621e+02
3.400000e-07	-4.384116e-09	-8.852671e-09	-3.051591e+01	-5.862051e+02
3.500000e-07	-4.320269e-09	-8.781828e-09	-3.007151e+01	-5.840844e+02
3.600000e-07	-4.254802e-09	-8.700499e-09	-2.961583e+01	-5.817866e+02
3.700000e-07	-4.187630e-09	-8.654306e-09	-2.914827e+01	-5.792979e+02
3.800000e-07	-4.118901e-09	-8.629018e-09	-2.866989e+01	-5.766050e+02
3.900000e-07	-4.048764e-09	-8.564272e-09	-2.818170e+01	-5.736942e+02
4.000000e-07	-3.977283e-09	-8.484317e-09	-2.768415e+01	-5.705522e+02
4.100000e-07	-3.904421e-09	-8.401907e-09	-2.717699e+01	-5.671658e+02
4.200000e-07	-3.830027e-09	-8.343222e-09	-2.665917e+01	-5.635219e+02
4.300000e-07	-3.754052e-09	-8.278647e-09	-2.613035e+01	-5.596078e+02
4.400000e-07	-3.676517e-09	-8.183963e-09	-2.559067e+01	-5.554112e+02
4.500000e-07	-3.597380e-09	-8.089941e-09	-2.503984e+01	-5.509198e+02
4.600000e-07	-3.516718e-09	-8.014705e-09	-2.447839e+01	-5.461221e+02
4.700000e-07	-3.434803e-09	-7.954061e-09	-2.390822e+01	-5.410069e+02
4.800000e-07	-3.351808e-09	-7.871673e-09	-2.333053e+01	-5.355634e+02
4.900000e-07	-3.267753e-09	-7.767543e-09	-2.274546e+01	-5.297817e+02
5.000000e-07	-3.182666e-09	-7.665106e-09	-2.215321e+01	-5.236520e+02
5.100000e-07	-3.096578e-09	-7.577497e-09	-2.155400e+01	-5.171656e+02
5.200000e-07	-3.009548e-09	-7.487992e-09	-2.094822e+01	-5.103141e+02
5.300000e-07	-2.921597e-09	-7.374170e-09	-2.033603e+01	-5.030900e+02
5.400000e-07	-2.832573e-09	-7.252812e-09	-1.971638e+01	-4.954866e+02
5.500000e-07	-2.742306e-09	-7.147660e-09	-1.908808e+01	-4.874978e+02
5.600000e-07	-2.650879e-09	-7.052699e-09	-1.845170e+01	-4.791184e+02
5.700000e-07	-2.558519e-09	-6.942926e-09	-1.780882e+01	-4.703441e+02
5.800000e-07	-2.465311e-09	-6.811927e-09	-1.716004e+01	-4.611712e+02
5.900000e-07	-2.371228e-09	-6.678958e-09	-1.650518e+01	-4.515972e+02
6.000000e-07	-2.276368e-09	-6.556557e-09	-1.584491e+01	-4.416204e+02
6.100000e-07	-2.180829e-09	-6.432106e-09	-1.517990e+01	-4.312399e+02
6.200000e-07	-2.084561e-09	-6.290257e-09	-1.450982e+01	-4.204559e+02
6.300000e-07	-1.987487e-09	-6.138398e-09	-1.383414e+01	-4.092694e+02
6.400000e-07	-1.889555e-09	-5.995872e-09	-1.315248e+01	-3.976824e+02
6.500000e-07	-1.790790e-09	-5.861053e-09	-1.246503e+01	-3.856979e+02
6.600000e-07	-1.691303e-09	-5.715343e-09	-1.177255e+01	-3.733198e+02
6.700000e-07	-1.591221e-09	-5.550326e-09	-1.107592e+01	-3.605531e+02
6.800000e-07	-1.490634e-09	-5.379648e-09	-1.037578e+01	-3.474035e+02
6.900000e-07	-1.389594e-09	-5.215704e-09	-9.672490e+00	-3.338780e+02
7.000000e-07	-1.288117e-09	-5.048881e-09	-8.966152e+00	-3.199842e+02
7.100000e-07	-1.186175e-09	-4.865384e-09	-8.256580e+00	-3.057308e+02
7.200000e-07	-1.083786e-09	-4.669011e-09	-7.543901e+00	-2.911274e+02
7.300000e-07	-9.810358e-10	-4.475979e-09	-6.828705e+00	-2.761845e+02
7.400000e-07	-8.779861e-10	-4.287833e-09	-6.111424e+00	-2.609136e+02
7.500000e-07	-7.746479e-10	-4.090862e-09	-5.392135e+00	-2.453267e+02
7.600000e-07	-6.710385e-10	-3.877532e-09	-4.670957e+00	-2.294370e+02
7.700000e-07	-5.672052e-10	-3.656711e-09	-3.948220e+00	-2.132583e+02
7.800000e-07	-4.632204e-10	-3.437492e-09	-3.224428e+00	-1.968052e+02
7.900000e-07	-3.591160e-10	-3.213674e-09	-2.499804e+00	-1.800931e+02
8.000000e-07	-2.548672e-10	-2.973247e-09	-1.774176e+00	-1.631380e+02
8.100000e-07	-1.504882e-10	-2.716910e-09	-1.047641e+00	-1.459566e+02
8.200000e-07	-4.604677e-11	-2.458276e-09	-3.206719e-01	-1.285663e+02
8.300000e-07	5.839049e-11	-2.200864e-09	4.062685e-01	-1.109849e+02
8.400000e-07	1.628001e-10	-1.934996e-09	1.133016e+00	-9.323092e+01
8.500000e-07	2.671683e-10	-1.652423e-09	1.859477e+00	-7.532326e+01
8.600000e-07	3.714459e-10	-1.358260e-09	2.585306e+00	-5.728128e+01
8.700000e-07	4.755651e-10	-1.061511e-09	3.310034e+00	-3.912473e+01
8.800000e-07	5.795002e-10	-7.598929e-10	4.033480e+00	-2.087372e+01
8.900000e-07	6.832620e-10	-4.446384e-10	4.755719e+00	-2.548638e+00
9.000000e-07	7.868192e-10	-1.140275e-10	5.476535e+00	1.582989e+01
9.100000e-07	8.901242e-10	2.219064e-10	6.195594e+00	3.424106e+01
9.200000e-07	9.931357e-10	5.568265e-10	6.912611e+00	5.266391e+01
9.300000e-07	1.095813e-09	8.956629e-10	7.627302e+00	7.107743e+01
9.400000e-07	1.198112e-09	1.245177e-09	8.339355e+00	8.946055e+01
9.500000e-07	1.299977e-09	1.600926e-09	9.048396e+00	1.077923e+02
9.600000e-07	1.401391e-09	1.952539e-09	9.754287e+00	1.260516e+02
9.700000e-07	1.502362e-09	2.297954e-09	1.045710e+01	1.442178e+02
9.800000e-07	1.602881e-09	2.644049e-09	1.115677e+01	1.622702e+02
9.900000e-07	1.702893e-09	2.993364e-09	1.185291e+01	1.801885e+02
1.000000e-06	1.802299e-09	3.336389e-09	1.254483e+01	1.979526e+02
1.010000e-06	1.900961e-09	3.664169e-09	1.323157e+01	2.155427e+02
1.020000e-06	1.998775e-09	3.977917e-09	1.391241e+01	2.329395e+02
1.030000e-06	2.095733e-09	4.283909e-09	1.458729e+01	2.501241e+02
1.040000e-06	2.191896e-09	4.580671e-09	1.525663e+01	2.670782e+02
1.050000e-06	2.287309e-09	4.860795e-09	1.592076e+01	2.837838e+02
1.060000e-06	2.381967e-09	5.122460e-09	1.657964e+01	3.002238e+02
1.070000e-06	2.475840e-09	5.371747e-09	1.723305e+01	3.163813e+02
1.080000e-06	2.568946e-09	5.614800e-09	1.788111e+01	3.322406e+02
1.090000e-06	2.661284e-09	5.849251e-09	1.852384e+01	3.477862e+02
1.100000e-06	2.752697e-09	6.070459e-09	1.916012e+01	3.630036e+02
1.110000e-06	2.842961e-09	6.278400e-09	1.978841e+01	3.778791e+02
1.120000e-06	2.932044e-09	6.477644e-09	2.040848e+01	3.923997e+02
1.130000e-06	3.020070e-09	6.668021e-09	2.102119e+01	4.065533e+02
1.140000e-06	3.107090e-09	6.845656e-09	2.162689e+01	4.203287e+02
1.150000e-06	3.193075e-09	7.009368e-09	2.222540e+01	4.337153e+02
1.160000e-06	3.278036e-09	7.163556e-09	2.281678e+01	4.467039e+02
1.170000e-06	3.361992e-09	7.314053e-09	2.340116e+01	4.592858e+02
1.180000e-06	3.444816e-09	7.460118e-09	2.397766e+01	4.714535e+02
1.190000e-06	3.526342e-09	7.597225e-09	2.454513e+01	4.832003e+02
1.200000e-06	3.606543e-09	7.724514e-09	2.510337e+01	4.945205e+02
1.210000e-06	3.685431e-09	7.847353e-09	2.565247e+01	5.054094e+02
1.220000e-06	3.763020e-09	7.967208e-09	2.619254e+01	5.158633e+02
1.230000e-06	3.839258e-09	8.079550e-09	2.672320e+01	5.258794e+02
1.240000e-06	3.913940e-09	8.180744e-09	2.724303e+01	5.354559e+02
1.250000e-06	3.986989e-09	8.274169e-09	2.775149e+01	5.445921e+02
1.260000e-06	4.058573e-09	8.365983e-09	2.824975e+01	5.532880e+02
1.270000e-06	4.128777e-09	8.457647e-09	2.873842e+01	5.615448e+02
1.280000e-06	4.197615e-09	8.544365e-09	2.921756e+01	5.693645e+02
1.290000e-06	4.265002e-09	8.624069e-09	2.968661e+01	5.767500e+02
1.300000e-06	4.330729e-09	8.700685e-09	3.014412e+01	5.837051e+02
1.310000e-06	4.394842e-09	8.776409e-09	3.059038e+01	5.902347e+02
1.320000e-06	4.457493e-09	8.848107e-09	3.102646e+01	5.963442e+02
1.330000e-06	4.518729e-09	8.911328e-09	3.145270e+01	6.020400e+02
1.340000e-06	4.578517e-09	8.968676e-09	3.186886e+01	6.073294e+02
1.350000e-06	4.636603e-09	9.025874e-09	3.227317e+01	6.122204e+02
1.360000e-06	4.692886e-09	9.082965e-09	3.266494e+01	6.167215e+02
1.370000e-06	4.747494e-09	9.136072e-09	3.304504e+01	6.208421e+02
1.380000e-06	4.800342e-09	9.184318e-09	3.341289e+01	6.245923e+02
1.390000e-06	4.851178e-09	9.231208e-09	3.376674e+01	6.279828e+02
1.400000e-06	4.899982e-09	9.279098e-09	3.410645e+01	6.310247e+02
1.410000e-06	4.946992e-09	9.324393e-09	3.443366e+01	6.337297e+02
1.420000e-06	4.992374e-09	9.363380e-09	3.474955e+01	6.361101e+02
1.430000e-06	5.036068e-09	9.398423e-09	3.505369e+01	6.381785e+02
1.440000e-06	5.077862e-09	9.433157e-09	3.534459e+01	6.399479e+02
1.450000e-06	5.117790e-09	9.467938e-09	3.562252e+01	6.414317e+02
1.460000e-06	5.156036e-09	9.499887e-09	3.588874e+01	6.426436e+02
1.470000e-06	5.192607e-09	9.527524e-09	3.614329e+01	6.435974e+02
1.480000e-06	5.227310e-09	9.553685e-09	3.638485e+01	6.443073e+02
1.490000e-06	5.260040e-09	9.580946e-09	3.661267e+01	6.447873e+02
1.500000e-06	5.290967e-09	9.607538e-09	3.682794e+01	6.450519e+02
1.510000e-06	5.320205e-09	9.630269e-09	3.703145e+01	6.451153e+02
1.520000e-06	5.347590e-09	9.648772e-09	3.722207e+01	6.449918e+02
1.530000e-06	5.372893e-09	9.665402e-09	3.739820e+01	6.446956e+02
1.540000e-06	5.396210e-09	9.681248e-09	3.756050e+01	6.442409e+02
1.550000e-06	5.417755e-09	9.695848e-09	3.771047e+01	6.436416e+02
1.560000e-06	5.437553e-09	9.709097e-09	3.784828e+01	6.429113e+02
1.570000e-06	5.455448e-09	9.720741e-09	3.797284e+01	6.420636e+02
1.580000e-06	5.471316e-09	9.731760e-09	3.808329e+01	6.411115e+02
1.590000e-06	5.485160e-09	9.742509e-09	3.817966e+01	6.400677e+02
1.600000e-06	5.496866e-09	9.751392e-09	3.826114e+01	6.389447e+02
1.610000e-06	5.506369e-09	9.757406e-09	3.832728e+01	6.377543e+02
1.620000e-06	5.513866e-09	9.761418e-09	3.837947e+01	6.365080e+02
1.630000e-06	5.519537e-09	9.765433e-09	3.841895e+01	6.352165e+02
1.640000e-06	5.523338e-09	9.769404e-09	3.844541e+01	6.338902e+02
1.650000e-06	5.525125e-09	9.772000e-09	3.845785e+01	6.325388e+02
1.660000e-06	5.524965e-09	9.770632e-09	3.845674e+01	6.311713e+02
1.670000e-06	5.523050e-09	9.765992e-09	3.844341e+01	6.297961e+02
1.680000e-06	5.519430e-09	9.763465e-09	3.841822e+01	6.284209e+02
1.690000e-06	5.513937e-09	9.759669e-09	3.837999e+01	6.270528e+02
1.700000e-06	5.506537e-09	9.752648e-09	3.832848e+01	6.256978e+02
1.710000e-06	5.497440e-09	9.744738e-09	3.826516e+01	6.243615e+02
1.720000e-06	5.486626e-09	9.743806e-09	3.818989e+01	6.230485e+02
1.730000e-06	5.473858e-09	9.752468e-09	3.810103e+01	6.217626e+02
1.740000e-06	5.459042e-09	9.715910e-09	3.799790e+01	6.205071e+02
1.750000e-06	5.442052e-09	9.672290e-09	3.787964e+01	6.192840e+02
1.760000e-06	5.422458e-09	9.661980e-09	3.774327e+01	6.180948e+02
1.770000e-06	5.400251e-09	9.652945e-09	3.758870e+01	6.169400e+02
1.780000e-06	5.376228e-09	9.702571e-09	3.742148e+01	6.158195e+02
1.790000e-06	5.351218e-09	9.667646e-09	3.724740e+01	6.147320e+02
1.800000e-06	5.325112e-09	9.565610e-09	3.706569e+01	6.136758e+02
1.810000e-06	5.296993e-09	9.628170e-09	3.686997e+01	6.126480e+02
1.820000e-06	5.266759e-09	9.594645e-09	3.665953e+01	6.116451e+02
1.830000e-06	5.234934e-09	9.529577e-09	3.643802e+01	6.106628e+02
1.840000e-06	5.201353e-09	9.594576e-09	3.620428e+01	6.096960e+02
1.850000e-06	5.165932e-09	9.494030e-09	3.595773e+01	6.087389e+02
1.860000e-06	5.128685e-09	9.444310e-09	3.569847e+01	6.077847e+02
1.870000e-06	5.089469e-09	9.513547e-09	3.542551e+01	6.068263e+02
1.880000e-06	5.048516e-09	9.422106e-09	3.514046e+01	6.058556e+02
1.890000e-06	5.005845e-09	9.364722e-09	3.484345e+01	6.048639e+02
1.900000e-06	4.961391e-09	9.323017e-09	3.453403e+01	6.038421e+02
1.910000e-06	4.915250e-09	9.288848e-09	3.421286e+01	6.027803e+02
1.920000e-06	4.867219e-09	9.336545e-09	3.387854e+01	6.016680e+02
1.930000e-06	4.817324e-09	9.249289e-09	3.353125e+01	6.004944e+02
1.940000e-06	4.765574e-09	9.192065e-09	3.317104e+01	5.992481e+02
1.950000e-06	4.711775e-09	9.158927e-09	3.279658e+01	5.979172e+02
1.960000e-06	4.656142e-09	9.092222e-09	3.240935e+01	5.964896e+02
1.970000e-06	4.598857e-09	9.072468e-09	3.201062e+01	5.949527e+02
1.980000e-06	4.540029e-09	8.987891e-09	3.160115e+01	5.932937e+02
1.990000e-06	4.479630e-09	8.949212e-09	3.118073e+01	5.914996e+02
2.000000e-06	4.417484e-09	8.910591e-09	3.074817e+01	5.895569e+02
2.010000e-06	4.353736e-09	8.865308e-09	3.030445e+01	5.874524e+02
2.020000e-06	4.288485e-09	8.831964e-09	2.985027e+01	5.851725e+02
2.030000e-06	4.221756e-09	8.712768e-09	2.938580e+01	5.827035e+02
2.040000e-06	4.153470e-09	8.653909e-09	2.891050e+01	5.800321e+02
2.050000e-06	4.083508e-09	8.602178e-09	2.842352e+01	5.771445e+02
2.060000e-06	4.012043e-09	8.546309e-09	2.792609e+01	5.740275e+02
2.070000e-06	3.939186e-09	8.476865e-09	2.741898e+01	5.706678e+02
2.080000e-06	3.864917e-09	8.371081e-09	2.690202e+01	5.670523e+02
2.090000e-06	3.789113e-09	8.324805e-09	2.637439e+01	5.631683e+02
2.100000e-06	3.711665e-09	8.258732e-09	2.583532e+01	5.590033e+02
2.110000e-06	3.632741e-09	8.186947e-09	2.528596e+01	5.545452e+02
2.120000e-06	3.552576e-09	8.085206e-09	2.472797e+01	5.497822e+02
2.130000e-06	3.471263e-09	7.984486e-09	2.416199e+01	5.447032e+02
2.140000e-06	3.388807e-09	7.918504e-09	2.358806e+01	5.392973e+02
2.150000e-06	3.305210e-09	7.828171e-09	2.300617e+01	5.335545e+02
2.160000e-06	3.220347e-09	7.732132e-09	2.241548e+01	5.274649e+02
2.170000e-06	3.134149e-09	7.614592e-09	2.181550e+01	5.210197e+02
2.180000e-06	3.046781e-09	7.523652e-09	2.120738e+01	5.142105e+02
2.190000e-06	2.958422e-09	7.439220e-09	2.059235e+01	5.070296e+02
2.200000e-06	2.869132e-09	7.332985e-09	1.997085e+01	4.994703e+02
2.210000e-06	2.778927e-09	7.211247e-09	1.934297e+01	4.915263e+02
2.220000e-06	2.687824e-09	7.084598e-09	1.870884e+01	4.831924e+02
2.230000e-06	2.595800e-09	6.983090e-09	1.806831e+01	4.744640e+02
2.240000e-06	2.502797e-09	6.871335e-09	1.742096e+01	4.653376e+02
2.250000e-06	2.408762e-09	6.744264e-09	1.676643e+01	4.558104e+02
2.260000e-06	2.313756e-09	6.605203e-09	1.610514e+01	4.458804e+02
2.270000e-06	2.217935e-09	6.476964e-09	1.543817e+01	4.355469e+02
2.280000e-06	2.121411e-09	6.356102e-09	1.476632e+01	4.248098e+02
2.290000e-06	2.024221e-09	6.217463e-09	1.408982e+01	4.136700e+02
2.300000e-06	1.926364e-09	6.063086e-09	1.340868e+01	4.021293e+02
2.310000e-06	1.827874e-09	5.905577e-09	1.272314e+01	3.901908e+02
2.320000e-06	1.728831e-09	5.761877e-09	1.203375e+01	3.778581e+02
2.330000e-06	1.629300e-09	5.613099e-09	1.134095e+01	3.651361e+02
2.340000e-06	1.529228e-09	5.447448e-09	1.064440e+01	3.520304e+02
2.350000e-06	1.428488e-09	5.269940e-09	9.943200e+00	3.385478e+02
2.360000e-06	1.327072e-09	5.097453e-09	9.237293e+00	3.246958e+02
2.370000e-06	1.225089e-09	4.929225e-09	8.527438e+00	3.104831e+02
2.380000e-06	1.122647e-09	4.747643e-09	7.814391e+00	2.959191e+02
2.390000e-06	1.019765e-09	4.551229e-09	7.098275e+00	2.810142e+02
2.400000e-06	9.164458e-10	4.350480e-09	6.379118e+00	2.657796e+02
2.410000e-06	8.127821e-10	4.156556e-09	5.657562e+00	2.502275e+02
2.420000e-06	7.088864e-10	3.957099e-09	4.934392e+00	2.343708e+02
2.430000e-06	6.048224e-10	3.739870e-09	4.210050e+00	2.182232e+02
2.440000e-06	5.005785e-10	3.510057e-09	3.484457e+00	2.017993e+02
2.450000e-06	3.961812e-10	3.280509e-09	2.757795e+00	1.851143e+02
2.460000e-06	2.916861e-10	3.051719e-09	2.030453e+00	1.681842e+02
2.470000e-06	1.870916e-10	2.809417e-09	1.302418e+00	1.510256e+02
2.480000e-06	8.241265e-11	2.549079e-09	5.737967e-01	1.336557e+02
2.490000e-06	-2.229427e-11	2.280743e-09	-1.550201e-01	1.160924e+02
2.500000e-06	-1.269578e-10	2.014425e-09	-8.835351e-01	9.835410e+01
2.510000e-06	-2.315440e-10	1.744010e-09	-1.611511e+00	8.045956e+01
2.520000e-06	-3.360483e-10	1.458965e-09	-2.338918e+00	6.242813e+01
2.530000e-06	-4.404521e-10	1.159624e-09	-3.065625e+00	4.427953e+01
2.540000e-06	-5.447081e-10	8.536646e-10	-3.791303e+00	2.603381e+01
2.550000e-06	-6.487734e-10	5.441741e-10	-4.515655e+00	7.711318e+00
2.560000e-06	-7.526249e-10	2.240834e-10	-5.238518e+00	-1.066734e+01
2.570000e-06	-8.562228e-10	-1.106874e-10	-5.959617e+00	-2.908137e+01
2.580000e-06	-9.595033e-10	-4.541848e-10	-6.678505e+00	-4.750984e+01
2.590000e-06	-1.062385e-09	-7.969854e-10	-7.394615e+00	-6.593174e+01
2.600000e-06	-1.164795e-09	-1.139017e-09	-8.107445e+00	-8.432601e+01
2.610000e-06	-1.266682e-09	-1.488549e-09	-8.816632e+00	-1.026716e+02
2.620000e-06	-1.367995e-09	-1.845602e-09	-9.521828e+00	-1.209476e+02
2.630000e-06	-1.468699e-09	-2.200296e-09	-1.022278e+01	-1.391332e+02
2.640000e-06	-1.568795e-09	-2.545729e-09	-1.091950e+01	-1.572077e+02
2.650000e-06	-1.668315e-09	-2.885332e-09	-1.161222e+01	-1.751507e+02
2.660000e-06	-1.767291e-09	-3.224576e-09	-1.230114e+01	-1.929421e+02
2.670000e-06	-1.865719e-09	-3.559785e-09	-1.298626e+01	-2.105621e+02
2.680000e-06	-1.963547e-09	-3.881187e-09	-1.366720e+01	-2.279914e+02
2.690000e-06	-2.060699e-09	-4.185995e-09	-1.434343e+01	-2.452109e+02
2.700000e-06	-2.157156e-09	-4.480175e-09	-1.501482e+01	-2.622023e+02
2.710000e-06	-2.252970e-09	-4.765893e-09	-1.568174e+01	-2.789475e+02
2.720000e-06	-2.348137e-09	-5.038275e-09	-1.634415e+01	-2.954293e+02
2.730000e-06	-2.442482e-09	-5.293024e-09	-1.700085e+01	-3.116309e+02
2.740000e-06	-2.535792e-09	-5.533743e-09	-1.765033e+01	-3.275362e+02
2.750000e-06	-2.628025e-09	-5.768534e-09	-1.829233e+01	-3.431298e+02
2.760000e-06	-2.719256e-09	-5.996906e-09	-1.892735e+01	-3.583971e+02
2.770000e-06	-2.809507e-09	-6.210769e-09	-1.955554e+01	-3.733243e+02
2.780000e-06	-2.898744e-09	-6.407891e-09	-2.017668e+01	-3.878982e+02
2.790000e-06	-2.987008e-09	-6.595283e-09	-2.079105e+01	-4.021067e+02
2.800000e-06	-3.074360e-09	-6.778290e-09	-2.139907e+01	-4.159383e+02
2.810000e-06	-3.160656e-09	-6.951476e-09	-2.199974e+01	-4.293826e+02
2.820000e-06	-3.245651e-09	-7.108014e-09	-2.259135e+01	-4.424300e+02
2.830000e-06	-3.329382e-09	-7.251861e-09	-2.317417e+01	-4.550718e+02
2.840000e-06	-3.412005e-09	-7.392321e-09	-2.374927e+01	-4.673003e+02
2.850000e-06	-3.493512e-09	-7.531744e-09	-2.431661e+01	-4.791088e+02
2.860000e-06	-3.573855e-09	-7.664300e-09	-2.487584e+01	-4.904913e+02
2.870000e-06	-3.652939e-09	-7.786125e-09	-2.542631e+01	-5.014432e+02
2.880000e-06	-3.730540e-09	-7.901243e-09	-2.596645e+01	-5.119604e+02
2.890000e-06	-3.806569e-09	-8.013807e-09	-2.649565e+01	-5.220402e+02
2.900000e-06	-3.881139e-09	-8.121011e-09	-2.701470e+01	-5.316806e+02
2.910000e-06	-3.954312e-09	-8.219155e-09	-2.752403e+01	-5.408807e+02
2.920000e-06	-4.026125e-09	-8.310011e-09	-2.802389e+01	-5.496405e+02
2.930000e-06	-4.096514e-09	-8.398201e-09	-2.851384e+01	-5.579609e+02
2.940000e-06	-4.165300e-09	-8.485087e-09	-2.899263e+01	-5.658439e+02
