# Temperatura_=_20.0
# Concentracion g/m^3_=_10000.0
# C_Vs_to_Am_M_A/Vsm_=_65563218390.804596
# pendiente_HvsI_1/m_=_3716.3
# ordenada_HvsI_A/m_=_1297.0
# frecuencia_Hz_=_135204.5665745486

Tiempo_(s)	Campo_(V.s)	Magnetizacion_(V.s)	Campo_(kA/m)	Magnetizacion_(A/m)
0.000000e+00	-2.129912e-06	-4.628567e-09	-1.614184e+01	-2.982879e+02
1.000000e-08	-2.129893e-06	-4.644661e-09	-1.614169e+01	-2.985014e+02
2.000000e-08	-2.129666e-06	-4.655879e-09	-1.613997e+01	-2.986944e+02
3.000000e-08	-2.129215e-06	-4.635015e-09	-1.613655e+01	-2.988662e+02
4.000000e-08	-2.128621e-06	-4.609278e-09	-1.613206e+01	-2.990164e+02
5.000000e-08	-2.128038e-06	-4.571279e-09	-1.612764e+01	-2.991446e+02
6.000000e-08	-2.127445e-06	-4.638223e-09	-1.612314e+01	-2.992507e+02
7.000000e-08	-2.126703e-06	-4.648592e-09	-1.611752e+01	-2.993347e+02
8.000000e-08	-2.125729e-06	-4.646003e-09	-1.611013e+01	-2.993969e+02
9.000000e-08	-2.124531e-06	-4.647780e-09	-1.610106e+01	-2.994376e+02
1.000000e-07	-2.123162e-06	-4.643823e-09	-1.609068e+01	-2.994570e+02
1.100000e-07	-2.121566e-06	-4.639608e-09	-1.607858e+01	-2.994554e+02
1.200000e-07	-2.119687e-06	-4.597885e-09	-1.606435e+01	-2.994330e+02
1.300000e-07	-2.117616e-06	-4.612632e-09	-1.604865e+01	-2.993898e+02
1.400000e-07	-2.115518e-06	-4.619845e-09	-1.603275e+01	-2.993259e+02
1.500000e-07	-2.113431e-06	-4.626583e-09	-1.601693e+01	-2.992413e+02
1.600000e-07	-2.111205e-06	-4.608613e-09	-1.600007e+01	-2.991364e+02
1.700000e-07	-2.108717e-06	-4.621264e-09	-1.598121e+01	-2.990116e+02
1.800000e-07	-2.106008e-06	-4.628402e-09	-1.596068e+01	-2.988679e+02
1.900000e-07	-2.103165e-06	-4.613188e-09	-1.593913e+01	-2.987066e+02
2.000000e-07	-2.100203e-06	-4.585707e-09	-1.591669e+01	-2.985293e+02
2.100000e-07	-2.097054e-06	-4.588437e-09	-1.589282e+01	-2.983380e+02
2.200000e-07	-2.093709e-06	-4.608742e-09	-1.586747e+01	-2.981344e+02
2.300000e-07	-2.090204e-06	-4.623399e-09	-1.584091e+01	-2.979204e+02
2.400000e-07	-2.086556e-06	-4.604526e-09	-1.581326e+01	-2.976973e+02
2.500000e-07	-2.082737e-06	-4.583334e-09	-1.578432e+01	-2.974656e+02
2.600000e-07	-2.078752e-06	-4.569219e-09	-1.575411e+01	-2.972254e+02
2.700000e-07	-2.074650e-06	-4.564121e-09	-1.572303e+01	-2.969754e+02
2.800000e-07	-2.070437e-06	-4.551831e-09	-1.569110e+01	-2.967140e+02
2.900000e-07	-2.066079e-06	-4.553274e-09	-1.565807e+01	-2.964386e+02
3.000000e-07	-2.061578e-06	-4.559184e-09	-1.562396e+01	-2.961462e+02
3.100000e-07	-2.056961e-06	-4.554910e-09	-1.558897e+01	-2.958340e+02
3.200000e-07	-2.052202e-06	-4.537653e-09	-1.555290e+01	-2.954993e+02
3.300000e-07	-2.047293e-06	-4.529307e-09	-1.551570e+01	-2.951400e+02
3.400000e-07	-2.042260e-06	-4.526590e-09	-1.547756e+01	-2.947552e+02
3.500000e-07	-2.037135e-06	-4.509527e-09	-1.543872e+01	-2.943448e+02
3.600000e-07	-2.031883e-06	-4.495084e-09	-1.539891e+01	-2.939100e+02
3.700000e-07	-2.026407e-06	-4.492392e-09	-1.535741e+01	-2.934531e+02
3.800000e-07	-2.020712e-06	-4.493280e-09	-1.531425e+01	-2.929769e+02
3.900000e-07	-2.014891e-06	-4.469623e-09	-1.527014e+01	-2.924849e+02
4.000000e-07	-2.008947e-06	-4.456782e-09	-1.522509e+01	-2.919804e+02
4.100000e-07	-2.002820e-06	-4.461446e-09	-1.517866e+01	-2.914665e+02
4.200000e-07	-1.996529e-06	-4.465211e-09	-1.513098e+01	-2.909455e+02
4.300000e-07	-1.990139e-06	-4.436718e-09	-1.508255e+01	-2.904187e+02
4.400000e-07	-1.983649e-06	-4.414685e-09	-1.503336e+01	-2.898862e+02
4.500000e-07	-1.977056e-06	-4.407322e-09	-1.498340e+01	-2.893472e+02
4.600000e-07	-1.970355e-06	-4.399848e-09	-1.493261e+01	-2.887998e+02
4.700000e-07	-1.963491e-06	-4.375316e-09	-1.488060e+01	-2.882415e+02
4.800000e-07	-1.956426e-06	-4.364143e-09	-1.482705e+01	-2.876693e+02
4.900000e-07	-1.949160e-06	-4.363918e-09	-1.477199e+01	-2.870803e+02
5.000000e-07	-1.941761e-06	-4.357461e-09	-1.471591e+01	-2.864719e+02
5.100000e-07	-1.934273e-06	-4.342713e-09	-1.465916e+01	-2.858422e+02
5.200000e-07	-1.926655e-06	-4.332095e-09	-1.460143e+01	-2.851898e+02
5.300000e-07	-1.918870e-06	-4.322099e-09	-1.454243e+01	-2.845142e+02
5.400000e-07	-1.910933e-06	-4.306302e-09	-1.448228e+01	-2.838158e+02
5.500000e-07	-1.902871e-06	-4.295895e-09	-1.442118e+01	-2.830954e+02
5.600000e-07	-1.894714e-06	-4.284346e-09	-1.435936e+01	-2.823543e+02
5.700000e-07	-1.886464e-06	-4.266465e-09	-1.429683e+01	-2.815942e+02
5.800000e-07	-1.878080e-06	-4.247866e-09	-1.423330e+01	-2.808167e+02
5.900000e-07	-1.869500e-06	-4.239994e-09	-1.416827e+01	-2.800235e+02
6.000000e-07	-1.860708e-06	-4.226432e-09	-1.410164e+01	-2.792159e+02
6.100000e-07	-1.851767e-06	-4.210323e-09	-1.403388e+01	-2.783953e+02
6.200000e-07	-1.842728e-06	-4.199237e-09	-1.396538e+01	-2.775627e+02
6.300000e-07	-1.833582e-06	-4.193776e-09	-1.389606e+01	-2.767192e+02
6.400000e-07	-1.824309e-06	-4.178001e-09	-1.382579e+01	-2.758658e+02
6.500000e-07	-1.814903e-06	-4.156916e-09	-1.375450e+01	-2.750035e+02
6.600000e-07	-1.805366e-06	-4.137254e-09	-1.368222e+01	-2.741331e+02
6.700000e-07	-1.795714e-06	-4.123849e-09	-1.360907e+01	-2.732554e+02
6.800000e-07	-1.785947e-06	-4.108726e-09	-1.353506e+01	-2.723710e+02
6.900000e-07	-1.776059e-06	-4.091290e-09	-1.346011e+01	-2.714799e+02
7.000000e-07	-1.766002e-06	-4.075175e-09	-1.338389e+01	-2.705820e+02
7.100000e-07	-1.755743e-06	-4.064333e-09	-1.330614e+01	-2.696761e+02
7.200000e-07	-1.745296e-06	-4.058172e-09	-1.322697e+01	-2.687606e+02
7.300000e-07	-1.734696e-06	-4.046750e-09	-1.314663e+01	-2.678335e+02
7.400000e-07	-1.723974e-06	-4.024992e-09	-1.306538e+01	-2.668920e+02
7.500000e-07	-1.713131e-06	-4.003179e-09	-1.298321e+01	-2.659335e+02
7.600000e-07	-1.702170e-06	-3.989595e-09	-1.290014e+01	-2.649553e+02
7.700000e-07	-1.691091e-06	-3.972468e-09	-1.281617e+01	-2.639553e+02
7.800000e-07	-1.679883e-06	-3.949728e-09	-1.273123e+01	-2.629324e+02
7.900000e-07	-1.668568e-06	-3.928514e-09	-1.264548e+01	-2.618864e+02
8.000000e-07	-1.657160e-06	-3.915505e-09	-1.255902e+01	-2.608184e+02
8.100000e-07	-1.645656e-06	-3.902389e-09	-1.247184e+01	-2.597307e+02
8.200000e-07	-1.634015e-06	-3.884444e-09	-1.238361e+01	-2.586267e+02
8.300000e-07	-1.622201e-06	-3.862230e-09	-1.229408e+01	-2.575105e+02
8.400000e-07	-1.610242e-06	-3.841016e-09	-1.220344e+01	-2.563864e+02
8.500000e-07	-1.598158e-06	-3.820878e-09	-1.211187e+01	-2.552582e+02
8.600000e-07	-1.585978e-06	-3.800102e-09	-1.201956e+01	-2.541293e+02
8.700000e-07	-1.573725e-06	-3.778034e-09	-1.192669e+01	-2.530015e+02
8.800000e-07	-1.561370e-06	-3.758169e-09	-1.183306e+01	-2.518751e+02
8.900000e-07	-1.548906e-06	-3.741302e-09	-1.173860e+01	-2.507487e+02
9.000000e-07	-1.536325e-06	-3.723706e-09	-1.164326e+01	-2.496193e+02
9.100000e-07	-1.523634e-06	-3.703009e-09	-1.154708e+01	-2.484822e+02
9.200000e-07	-1.510859e-06	-3.684284e-09	-1.145026e+01	-2.473322e+02
9.300000e-07	-1.497986e-06	-3.667553e-09	-1.135270e+01	-2.461632e+02
9.400000e-07	-1.485006e-06	-3.646701e-09	-1.125433e+01	-2.449698e+02
9.500000e-07	-1.471937e-06	-3.622691e-09	-1.115528e+01	-2.437470e+02
9.600000e-07	-1.458759e-06	-3.597597e-09	-1.105541e+01	-2.424914e+02
9.700000e-07	-1.445450e-06	-3.576201e-09	-1.095455e+01	-2.412011e+02
9.800000e-07	-1.432006e-06	-3.556347e-09	-1.085266e+01	-2.398760e+02
9.900000e-07	-1.418435e-06	-3.533122e-09	-1.074981e+01	-2.385179e+02
1.000000e-06	-1.404760e-06	-3.508303e-09	-1.064617e+01	-2.371299e+02
1.010000e-06	-1.391006e-06	-3.486490e-09	-1.054194e+01	-2.357164e+02
1.020000e-06	-1.377181e-06	-3.468853e-09	-1.043716e+01	-2.342823e+02
1.030000e-06	-1.363283e-06	-3.450785e-09	-1.033183e+01	-2.328326e+02
1.040000e-06	-1.349307e-06	-3.428933e-09	-1.022591e+01	-2.313720e+02
1.050000e-06	-1.335227e-06	-3.403515e-09	-1.011921e+01	-2.299043e+02
1.060000e-06	-1.321037e-06	-3.377161e-09	-1.001167e+01	-2.284322e+02
1.070000e-06	-1.306757e-06	-3.352266e-09	-9.903439e+00	-2.269572e+02
1.080000e-06	-1.292380e-06	-3.325371e-09	-9.794485e+00	-2.254797e+02
1.090000e-06	-1.277909e-06	-3.299326e-09	-9.684814e+00	-2.239990e+02
1.100000e-06	-1.263363e-06	-3.277504e-09	-9.574572e+00	-2.225137e+02
1.110000e-06	-1.248757e-06	-3.259396e-09	-9.463882e+00	-2.210219e+02
1.120000e-06	-1.234085e-06	-3.240241e-09	-9.352688e+00	-2.195215e+02
1.130000e-06	-1.219327e-06	-3.216587e-09	-9.240839e+00	-2.180105e+02
1.140000e-06	-1.204453e-06	-3.191512e-09	-9.128120e+00	-2.164875e+02
1.150000e-06	-1.189421e-06	-3.166719e-09	-9.014191e+00	-2.149510e+02
1.160000e-06	-1.174250e-06	-3.142757e-09	-8.899219e+00	-2.134004e+02
1.170000e-06	-1.158992e-06	-3.117382e-09	-8.783587e+00	-2.118353e+02
1.180000e-06	-1.143646e-06	-3.090502e-09	-8.667283e+00	-2.102559e+02
1.190000e-06	-1.128229e-06	-3.066024e-09	-8.550445e+00	-2.086624e+02
1.200000e-06	-1.112738e-06	-3.046374e-09	-8.433044e+00	-2.070555e+02
1.210000e-06	-1.097145e-06	-3.026454e-09	-8.314868e+00	-2.054358e+02
1.220000e-06	-1.081471e-06	-3.002387e-09	-8.196081e+00	-2.038039e+02
1.230000e-06	-1.065740e-06	-2.976779e-09	-8.076865e+00	-2.021607e+02
1.240000e-06	-1.049924e-06	-2.950542e-09	-7.956997e+00	-2.005069e+02
1.250000e-06	-1.034016e-06	-2.922814e-09	-7.836438e+00	-1.988434e+02
1.260000e-06	-1.018022e-06	-2.893573e-09	-7.715224e+00	-1.971710e+02
1.270000e-06	-1.001927e-06	-2.867122e-09	-7.593243e+00	-1.954906e+02
1.280000e-06	-9.857201e-07	-2.844949e-09	-7.470419e+00	-1.938028e+02
1.290000e-06	-9.694267e-07	-2.824762e-09	-7.346937e+00	-1.921083e+02
1.300000e-06	-9.530803e-07	-2.804512e-09	-7.223054e+00	-1.904072e+02
1.310000e-06	-9.366726e-07	-2.782873e-09	-7.098706e+00	-1.886993e+02
1.320000e-06	-9.202068e-07	-2.759357e-09	-6.973918e+00	-1.869839e+02
1.330000e-06	-9.036903e-07	-2.735017e-09	-6.848744e+00	-1.852597e+02
1.340000e-06	-8.871084e-07	-2.706251e-09	-6.723076e+00	-1.835249e+02
1.350000e-06	-8.704822e-07	-2.674452e-09	-6.597072e+00	-1.817771e+02
1.360000e-06	-8.538208e-07	-2.645127e-09	-6.470801e+00	-1.800140e+02
1.370000e-06	-8.370733e-07	-2.618190e-09	-6.343878e+00	-1.782332e+02
1.380000e-06	-8.202358e-07	-2.592412e-09	-6.216273e+00	-1.764326e+02
1.390000e-06	-8.033295e-07	-2.566144e-09	-6.088146e+00	-1.746108e+02
1.400000e-06	-7.863776e-07	-2.539322e-09	-5.959674e+00	-1.727675e+02
1.410000e-06	-7.694056e-07	-2.512336e-09	-5.831049e+00	-1.709031e+02
1.420000e-06	-7.524092e-07	-2.486890e-09	-5.702240e+00	-1.690196e+02
1.430000e-06	-7.353908e-07	-2.459404e-09	-5.573263e+00	-1.671197e+02
1.440000e-06	-7.183454e-07	-2.427517e-09	-5.444082e+00	-1.652071e+02
1.450000e-06	-7.012560e-07	-2.394863e-09	-5.314568e+00	-1.632863e+02
1.460000e-06	-6.841205e-07	-2.364163e-09	-5.184704e+00	-1.613614e+02
1.470000e-06	-6.669262e-07	-2.333134e-09	-5.054394e+00	-1.594367e+02
1.480000e-06	-6.496668e-07	-2.301294e-09	-4.923591e+00	-1.575155e+02
1.490000e-06	-6.323533e-07	-2.269485e-09	-4.792379e+00	-1.555998e+02
1.500000e-06	-6.150013e-07	-2.239763e-09	-4.660874e+00	-1.536905e+02
1.510000e-06	-5.976096e-07	-2.210851e-09	-4.529069e+00	-1.517867e+02
1.520000e-06	-5.801875e-07	-2.182072e-09	-4.397033e+00	-1.498860e+02
1.530000e-06	-5.627516e-07	-2.156553e-09	-4.264893e+00	-1.479848e+02
1.540000e-06	-5.452699e-07	-2.130140e-09	-4.132405e+00	-1.460784e+02
1.550000e-06	-5.277353e-07	-2.099948e-09	-3.999516e+00	-1.441616e+02
1.560000e-06	-5.101618e-07	-2.066909e-09	-3.866334e+00	-1.422290e+02
1.570000e-06	-4.925492e-07	-2.034457e-09	-3.732854e+00	-1.402756e+02
1.580000e-06	-4.748944e-07	-2.002513e-09	-3.599054e+00	-1.382973e+02
1.590000e-06	-4.571976e-07	-1.969907e-09	-3.464937e+00	-1.362911e+02
1.600000e-06	-4.394730e-07	-1.937935e-09	-3.330608e+00	-1.342554e+02
1.610000e-06	-4.217246e-07	-1.907745e-09	-3.196100e+00	-1.321901e+02
1.620000e-06	-4.039507e-07	-1.878879e-09	-3.061397e+00	-1.300963e+02
1.630000e-06	-3.861606e-07	-1.848534e-09	-2.926572e+00	-1.279765e+02
1.640000e-06	-3.683675e-07	-1.816991e-09	-2.791725e+00	-1.258340e+02
1.650000e-06	-3.505638e-07	-1.784351e-09	-2.656797e+00	-1.236727e+02
1.660000e-06	-3.327541e-07	-1.751277e-09	-2.521824e+00	-1.214966e+02
1.670000e-06	-3.149480e-07	-1.717504e-09	-2.386878e+00	-1.193095e+02
1.680000e-06	-2.971252e-07	-1.683152e-09	-2.251805e+00	-1.171147e+02
1.690000e-06	-2.792877e-07	-1.650259e-09	-2.116621e+00	-1.149145e+02
1.700000e-06	-2.614404e-07	-1.620389e-09	-1.981363e+00	-1.127104e+02
1.710000e-06	-2.435701e-07	-1.593253e-09	-1.845930e+00	-1.105027e+02
1.720000e-06	-2.256875e-07	-1.562364e-09	-1.710405e+00	-1.082907e+02
1.730000e-06	-2.078064e-07	-1.526991e-09	-1.574890e+00	-1.060728e+02
1.740000e-06	-1.899148e-07	-1.490868e-09	-1.439297e+00	-1.038463e+02
1.750000e-06	-1.719960e-07	-1.456938e-09	-1.303496e+00	-1.016086e+02
1.760000e-06	-1.540582e-07	-1.425877e-09	-1.167552e+00	-9.935629e+01
1.770000e-06	-1.361226e-07	-1.394161e-09	-1.031624e+00	-9.708644e+01
1.780000e-06	-1.181657e-07	-1.360521e-09	-8.955355e-01	-9.479637e+01
1.790000e-06	-1.001761e-07	-1.324391e-09	-7.591990e-01	-9.248408e+01
1.800000e-06	-8.218129e-08	-1.288973e-09	-6.228225e-01	-9.014843e+01
1.810000e-06	-6.419332e-08	-1.253705e-09	-4.864982e-01	-8.778925e+01
1.820000e-06	-4.621355e-08	-1.216060e-09	-3.502359e-01	-8.540744e+01
1.830000e-06	-2.821569e-08	-1.180881e-09	-2.138366e-01	-8.300486e+01
1.840000e-06	-1.020959e-08	-1.151236e-09	-7.737486e-02	-8.058418e+01
1.850000e-06	7.805960e-09	-1.122248e-09	5.915857e-02	-7.814870e+01
1.860000e-06	2.584012e-08	-1.090606e-09	1.958330e-01	-7.570198e+01
1.870000e-06	4.387147e-08	-1.055517e-09	3.324862e-01	-7.324755e+01
1.880000e-06	6.188877e-08	-1.015158e-09	4.690328e-01	-7.078857e+01
1.890000e-06	7.988531e-08	-9.727787e-10	6.054221e-01	-6.832748e+01
1.900000e-06	9.785422e-08	-9.329192e-10	7.416021e-01	-6.586579e+01
1.910000e-06	1.158085e-07	-8.965357e-10	8.776708e-01	-6.340388e+01
1.920000e-06	1.337493e-07	-8.633723e-10	1.013638e+00	-6.094103e+01
1.930000e-06	1.516653e-07	-8.334509e-10	1.149417e+00	-5.847539e+01
1.940000e-06	1.695758e-07	-8.050434e-10	1.285154e+00	-5.600426e+01
1.950000e-06	1.874717e-07	-7.735738e-10	1.420781e+00	-5.352432e+01
1.960000e-06	2.053642e-07	-7.361023e-10	1.556381e+00	-5.103199e+01
1.970000e-06	2.232484e-07	-6.948637e-10	1.691920e+00	-4.852377e+01
1.980000e-06	2.411159e-07	-6.527070e-10	1.827331e+00	-4.599663e+01
1.990000e-06	2.589903e-07	-6.114457e-10	1.962795e+00	-4.344826e+01
2.000000e-06	2.768471e-07	-5.739540e-10	2.098125e+00	-4.087729e+01
2.010000e-06	2.946657e-07	-5.402996e-10	2.233166e+00	-3.828335e+01
2.020000e-06	3.124654e-07	-5.088605e-10	2.368063e+00	-3.566707e+01
2.030000e-06	3.302630e-07	-4.767960e-10	2.502945e+00	-3.302993e+01
2.040000e-06	3.480627e-07	-4.406025e-10	2.637842e+00	-3.037403e+01
2.050000e-06	3.658488e-07	-3.991547e-10	2.772637e+00	-2.770183e+01
2.060000e-06	3.836105e-07	-3.541136e-10	2.907246e+00	-2.501585e+01
2.070000e-06	4.013644e-07	-3.096663e-10	3.041797e+00	-2.231844e+01
2.080000e-06	4.191099e-07	-2.671126e-10	3.176283e+00	-1.961154e+01
2.090000e-06	4.368283e-07	-2.278929e-10	3.310565e+00	-1.689662e+01
2.100000e-06	4.545137e-07	-1.926171e-10	3.444596e+00	-1.417456e+01
2.110000e-06	4.721891e-07	-1.573862e-10	3.578552e+00	-1.144578e+01
2.120000e-06	4.898422e-07	-1.200020e-10	3.712338e+00	-8.710294e+00
2.130000e-06	5.074457e-07	-8.068253e-11	3.845749e+00	-5.967868e+00
2.140000e-06	5.249888e-07	-3.856138e-11	3.978702e+00	-3.218189e+00
2.150000e-06	5.424845e-07	5.462237e-12	4.111296e+00	-4.609776e-01
2.160000e-06	5.599496e-07	4.833900e-11	4.243657e+00	2.303926e+00
2.170000e-06	5.773694e-07	8.987838e-11	4.375676e+00	5.076533e+00
2.180000e-06	5.947544e-07	1.319397e-10	4.507430e+00	7.856739e+00
2.190000e-06	6.121068e-07	1.742038e-10	4.638938e+00	1.064440e+01
2.200000e-06	6.294269e-07	2.145757e-10	4.770201e+00	1.343944e+01
2.210000e-06	6.466967e-07	2.525346e-10	4.901082e+00	1.624194e+01
2.220000e-06	6.638988e-07	2.909193e-10	5.031451e+00	1.905221e+01
2.230000e-06	6.810402e-07	3.313143e-10	5.161360e+00	2.187080e+01
2.240000e-06	6.981247e-07	3.731562e-10	5.290837e+00	2.469849e+01
2.250000e-06	7.151644e-07	4.161504e-10	5.419975e+00	2.753616e+01
2.260000e-06	7.321796e-07	4.616023e-10	5.548927e+00	3.038464e+01
2.270000e-06	7.491791e-07	5.094753e-10	5.677759e+00	3.324455e+01
2.280000e-06	7.661560e-07	5.577769e-10	5.806421e+00	3.611611e+01
2.290000e-06	7.831049e-07	6.031776e-10	5.934871e+00	3.899903e+01
2.300000e-06	8.000164e-07	6.433537e-10	6.063037e+00	4.189244e+01
2.310000e-06	8.168790e-07	6.795712e-10	6.190833e+00	4.479490e+01
2.320000e-06	8.336653e-07	7.181511e-10	6.318050e+00	4.770451e+01
2.330000e-06	8.503565e-07	7.616307e-10	6.444547e+00	5.061908e+01
2.340000e-06	8.669726e-07	8.056430e-10	6.570475e+00	5.353642e+01
2.350000e-06	8.835131e-07	8.500303e-10	6.695829e+00	5.645451e+01
2.360000e-06	8.999786e-07	8.956099e-10	6.820615e+00	5.937181e+01
2.370000e-06	9.163919e-07	9.409114e-10	6.945005e+00	6.228738e+01
2.380000e-06	9.327627e-07	9.846047e-10	7.069074e+00	6.520099e+01
2.390000e-06	9.490796e-07	1.026529e-09	7.192734e+00	6.811307e+01
2.400000e-06	9.653334e-07	1.065348e-09	7.315916e+00	7.102457e+01
2.410000e-06	9.815327e-07	1.101660e-09	7.438684e+00	7.393676e+01
2.420000e-06	9.976421e-07	1.139658e-09	7.560772e+00	7.685090e+01
2.430000e-06	1.013653e-06	1.182330e-09	7.682112e+00	7.976796e+01
2.440000e-06	1.029589e-06	1.228465e-09	7.802885e+00	8.268835e+01
2.450000e-06	1.045450e-06	1.274001e-09	7.923093e+00	8.561177e+01
2.460000e-06	1.061242e-06	1.317646e-09	8.042776e+00	8.853708e+01
2.470000e-06	1.076970e-06	1.361872e-09	8.161973e+00	9.146241e+01
2.480000e-06	1.092607e-06	1.407469e-09	8.280476e+00	9.438535e+01
2.490000e-06	1.108144e-06	1.451177e-09	8.398224e+00	9.730318e+01
2.500000e-06	1.123611e-06	1.489800e-09	8.515444e+00	1.002133e+02
2.510000e-06	1.139023e-06	1.528561e-09	8.632245e+00	1.031134e+02
2.520000e-06	1.154371e-06	1.572222e-09	8.748565e+00	1.060021e+02
2.530000e-06	1.169624e-06	1.614831e-09	8.864162e+00	1.088788e+02
2.540000e-06	1.184741e-06	1.652917e-09	8.978729e+00	1.117438e+02
2.550000e-06	1.199708e-06	1.689237e-09	9.092154e+00	1.145983e+02
2.560000e-06	1.214542e-06	1.728467e-09	9.204578e+00	1.174443e+02
2.570000e-06	1.229261e-06	1.773042e-09	9.316125e+00	1.202837e+02
2.580000e-06	1.243897e-06	1.817671e-09	9.427052e+00	1.231185e+02
2.590000e-06	1.258489e-06	1.860746e-09	9.537639e+00	1.259501e+02
2.600000e-06	1.273012e-06	1.904687e-09	9.647705e+00	1.287789e+02
2.610000e-06	1.287425e-06	1.948068e-09	9.756935e+00	1.316041e+02
2.620000e-06	1.301736e-06	1.986352e-09	9.865387e+00	1.344238e+02
2.630000e-06	1.315962e-06	2.020131e-09	9.973204e+00	1.372349e+02
2.640000e-06	1.330104e-06	2.057061e-09	1.008038e+01	1.400332e+02
2.650000e-06	1.344155e-06	2.098952e-09	1.018687e+01	1.428144e+02
2.660000e-06	1.358108e-06	2.141390e-09	1.029262e+01	1.455739e+02
2.670000e-06	1.371976e-06	2.183766e-09	1.039772e+01	1.483080e+02
2.680000e-06	1.385786e-06	2.226140e-09	1.050237e+01	1.510136e+02
2.690000e-06	1.399532e-06	2.266114e-09	1.060655e+01	1.536890e+02
2.700000e-06	1.413176e-06	2.303457e-09	1.070996e+01	1.563340e+02
2.710000e-06	1.426676e-06	2.338829e-09	1.081227e+01	1.589500e+02
2.720000e-06	1.440016e-06	2.372927e-09	1.091336e+01	1.615392e+02
2.730000e-06	1.453222e-06	2.407764e-09	1.101345e+01	1.641050e+02
2.740000e-06	1.466328e-06	2.443663e-09	1.111277e+01	1.666511e+02
2.750000e-06	1.479343e-06	2.481746e-09	1.121141e+01	1.691811e+02
2.760000e-06	1.492280e-06	2.522790e-09	1.130946e+01	1.716981e+02
2.770000e-06	1.505128e-06	2.562951e-09	1.140682e+01	1.742040e+02
2.780000e-06	1.517867e-06	2.601755e-09	1.150337e+01	1.766999e+02
2.790000e-06	1.530500e-06	2.639387e-09	1.159911e+01	1.791854e+02
2.800000e-06	1.543045e-06	2.675610e-09	1.169418e+01	1.816590e+02
2.810000e-06	1.555509e-06	2.710725e-09	1.178865e+01	1.841183e+02
2.820000e-06	1.567868e-06	2.745356e-09	1.188231e+01	1.865603e+02
2.830000e-06	1.580120e-06	2.779817e-09	1.197516e+01	1.889817e+02
2.840000e-06	1.592290e-06	2.813966e-09	1.206739e+01	1.913797e+02
2.850000e-06	1.604395e-06	2.849231e-09	1.215913e+01	1.937516e+02
2.860000e-06	1.616366e-06	2.884973e-09	1.224986e+01	1.960956e+02
2.870000e-06	1.628118e-06	2.920732e-09	1.233892e+01	1.984109e+02
2.880000e-06	1.639680e-06	2.954825e-09	1.242654e+01	2.006972e+02
2.890000e-06	1.651127e-06	2.989356e-09	1.251330e+01	2.029551e+02
2.900000e-06	1.662492e-06	3.025583e-09	1.259943e+01	2.051854e+02
