# Temperatura_=_20.0
# Concentracion g/m^3_=_10000.0
# C_Vs_to_Am_M_A/Vsm_=_65563218390.804596
# pendiente_HvsI_1/m_=_3716.3
# ordenada_HvsI_A/m_=_1297.0
# frecuencia_Hz_=_135207.1067270992

Tiempo_(s)	Campo_(V.s)	Magnetizacion_(V.s)	Campo_(kA/m)	Magnetizacion_(A/m)
0.000000e+00	-2.127939e-06	-4.609777e-09	-1.614273e+01	-2.976969e+02
1.000000e-08	-2.127943e-06	-4.612857e-09	-1.614276e+01	-2.979140e+02
2.000000e-08	-2.127748e-06	-4.620210e-09	-1.614128e+01	-2.981149e+02
3.000000e-08	-2.127294e-06	-4.612129e-09	-1.613783e+01	-2.982973e+02
4.000000e-08	-2.126658e-06	-4.615080e-09	-1.613301e+01	-2.984587e+02
5.000000e-08	-2.126059e-06	-4.591500e-09	-1.612847e+01	-2.985972e+02
6.000000e-08	-2.125508e-06	-4.631352e-09	-1.612428e+01	-2.987113e+02
7.000000e-08	-2.124819e-06	-4.623572e-09	-1.611905e+01	-2.988002e+02
8.000000e-08	-2.123880e-06	-4.611779e-09	-1.611194e+01	-2.988639e+02
9.000000e-08	-2.122709e-06	-4.621968e-09	-1.610305e+01	-2.989030e+02
1.000000e-07	-2.121356e-06	-4.600641e-09	-1.609278e+01	-2.989190e+02
1.100000e-07	-2.119798e-06	-4.624039e-09	-1.608097e+01	-2.989134e+02
1.200000e-07	-2.117954e-06	-4.588039e-09	-1.606698e+01	-2.988880e+02
1.300000e-07	-2.115892e-06	-4.611191e-09	-1.605134e+01	-2.988443e+02
1.400000e-07	-2.113804e-06	-4.611986e-09	-1.603550e+01	-2.987834e+02
1.500000e-07	-2.111744e-06	-4.629061e-09	-1.601987e+01	-2.987060e+02
1.600000e-07	-2.109547e-06	-4.613344e-09	-1.600320e+01	-2.986124e+02
1.700000e-07	-2.107068e-06	-4.608808e-09	-1.598439e+01	-2.985023e+02
1.800000e-07	-2.104344e-06	-4.606128e-09	-1.596374e+01	-2.983753e+02
1.900000e-07	-2.101511e-06	-4.594083e-09	-1.594224e+01	-2.982310e+02
2.000000e-07	-2.098567e-06	-4.582174e-09	-1.591991e+01	-2.980692e+02
2.100000e-07	-2.095408e-06	-4.577375e-09	-1.589594e+01	-2.978897e+02
2.200000e-07	-2.092028e-06	-4.591824e-09	-1.587030e+01	-2.976930e+02
2.300000e-07	-2.088518e-06	-4.596926e-09	-1.584367e+01	-2.974797e+02
2.400000e-07	-2.084888e-06	-4.586531e-09	-1.581614e+01	-2.972507e+02
2.500000e-07	-2.081065e-06	-4.564075e-09	-1.578714e+01	-2.970070e+02
2.600000e-07	-2.077060e-06	-4.558289e-09	-1.575675e+01	-2.967493e+02
2.700000e-07	-2.072958e-06	-4.550302e-09	-1.572564e+01	-2.964781e+02
2.800000e-07	-2.068763e-06	-4.543532e-09	-1.569381e+01	-2.961931e+02
2.900000e-07	-2.064411e-06	-4.532655e-09	-1.566080e+01	-2.958940e+02
3.000000e-07	-2.059909e-06	-4.538248e-09	-1.562665e+01	-2.955795e+02
3.100000e-07	-2.055294e-06	-4.531280e-09	-1.559163e+01	-2.952484e+02
3.200000e-07	-2.050550e-06	-4.518857e-09	-1.555564e+01	-2.948993e+02
3.300000e-07	-2.045639e-06	-4.497890e-09	-1.551839e+01	-2.945312e+02
3.400000e-07	-2.040587e-06	-4.492974e-09	-1.548006e+01	-2.941436e+02
3.500000e-07	-2.035461e-06	-4.480344e-09	-1.544118e+01	-2.937368e+02
3.600000e-07	-2.030224e-06	-4.475080e-09	-1.540145e+01	-2.933117e+02
3.700000e-07	-2.024760e-06	-4.464989e-09	-1.536000e+01	-2.928704e+02
3.800000e-07	-2.019074e-06	-4.462858e-09	-1.531687e+01	-2.924153e+02
3.900000e-07	-2.013265e-06	-4.448689e-09	-1.527280e+01	-2.919491e+02
4.000000e-07	-2.007330e-06	-4.440402e-09	-1.522777e+01	-2.914744e+02
4.100000e-07	-2.001230e-06	-4.432162e-09	-1.518150e+01	-2.909930e+02
4.200000e-07	-1.994982e-06	-4.424269e-09	-1.513410e+01	-2.905058e+02
4.300000e-07	-1.988613e-06	-4.403787e-09	-1.508579e+01	-2.900125e+02
4.400000e-07	-1.982121e-06	-4.392702e-09	-1.503654e+01	-2.895113e+02
4.500000e-07	-1.975514e-06	-4.386701e-09	-1.498642e+01	-2.889991e+02
4.600000e-07	-1.968828e-06	-4.376408e-09	-1.493569e+01	-2.884721e+02
4.700000e-07	-1.961999e-06	-4.357636e-09	-1.488389e+01	-2.879256e+02
4.800000e-07	-1.954930e-06	-4.343090e-09	-1.483026e+01	-2.873554e+02
4.900000e-07	-1.947651e-06	-4.333966e-09	-1.477505e+01	-2.867577e+02
5.000000e-07	-1.940261e-06	-4.318730e-09	-1.471899e+01	-2.861300e+02
5.100000e-07	-1.932781e-06	-4.300888e-09	-1.466224e+01	-2.854716e+02
5.200000e-07	-1.925160e-06	-4.286265e-09	-1.460443e+01	-2.847831e+02
5.300000e-07	-1.917374e-06	-4.278581e-09	-1.454536e+01	-2.840672e+02
5.400000e-07	-1.909448e-06	-4.266625e-09	-1.448524e+01	-2.833279e+02
5.500000e-07	-1.901409e-06	-4.255393e-09	-1.442425e+01	-2.825700e+02
5.600000e-07	-1.893258e-06	-4.240599e-09	-1.436241e+01	-2.817986e+02
5.700000e-07	-1.884997e-06	-4.228225e-09	-1.429975e+01	-2.810183e+02
5.800000e-07	-1.876612e-06	-4.214314e-09	-1.423614e+01	-2.802330e+02
5.900000e-07	-1.868050e-06	-4.202946e-09	-1.417119e+01	-2.794450e+02
6.000000e-07	-1.859285e-06	-4.184845e-09	-1.410469e+01	-2.786549e+02
6.100000e-07	-1.850358e-06	-4.170172e-09	-1.403697e+01	-2.778619e+02
6.200000e-07	-1.841323e-06	-4.159467e-09	-1.396843e+01	-2.770638e+02
6.300000e-07	-1.832179e-06	-4.148924e-09	-1.389906e+01	-2.762572e+02
6.400000e-07	-1.822916e-06	-4.130971e-09	-1.382879e+01	-2.754389e+02
6.500000e-07	-1.813539e-06	-4.112961e-09	-1.375766e+01	-2.746054e+02
6.600000e-07	-1.804033e-06	-4.097699e-09	-1.368555e+01	-2.737543e+02
6.700000e-07	-1.794395e-06	-4.086045e-09	-1.361243e+01	-2.728842e+02
6.800000e-07	-1.784645e-06	-4.071918e-09	-1.353847e+01	-2.719948e+02
6.900000e-07	-1.774771e-06	-4.057043e-09	-1.346356e+01	-2.710872e+02
7.000000e-07	-1.764730e-06	-4.041915e-09	-1.338739e+01	-2.701633e+02
7.100000e-07	-1.754492e-06	-4.024667e-09	-1.330973e+01	-2.692252e+02
7.200000e-07	-1.744069e-06	-4.009796e-09	-1.323066e+01	-2.682751e+02
7.300000e-07	-1.733496e-06	-3.995293e-09	-1.315045e+01	-2.673148e+02
7.400000e-07	-1.722793e-06	-3.980459e-09	-1.306925e+01	-2.663447e+02
7.500000e-07	-1.711964e-06	-3.966281e-09	-1.298710e+01	-2.653645e+02
7.600000e-07	-1.701025e-06	-3.952879e-09	-1.290412e+01	-2.643725e+02
7.700000e-07	-1.689967e-06	-3.934316e-09	-1.282023e+01	-2.633662e+02
7.800000e-07	-1.678771e-06	-3.915387e-09	-1.273530e+01	-2.623427e+02
7.900000e-07	-1.667469e-06	-3.897843e-09	-1.264956e+01	-2.612993e+02
8.000000e-07	-1.656083e-06	-3.881150e-09	-1.256319e+01	-2.602341e+02
8.100000e-07	-1.644600e-06	-3.862401e-09	-1.247608e+01	-2.591461e+02
8.200000e-07	-1.632998e-06	-3.844914e-09	-1.238806e+01	-2.580363e+02
8.300000e-07	-1.621237e-06	-3.828999e-09	-1.229884e+01	-2.569068e+02
8.400000e-07	-1.609294e-06	-3.814340e-09	-1.220824e+01	-2.557615e+02
8.500000e-07	-1.597205e-06	-3.797628e-09	-1.211654e+01	-2.546052e+02
8.600000e-07	-1.585018e-06	-3.778059e-09	-1.202408e+01	-2.534429e+02
8.700000e-07	-1.572754e-06	-3.757719e-09	-1.193105e+01	-2.522791e+02
8.800000e-07	-1.560406e-06	-3.739665e-09	-1.183737e+01	-2.511174e+02
8.900000e-07	-1.547959e-06	-3.722914e-09	-1.174295e+01	-2.499595e+02
9.000000e-07	-1.535412e-06	-3.702436e-09	-1.164776e+01	-2.488049e+02
9.100000e-07	-1.522761e-06	-3.680510e-09	-1.155179e+01	-2.476510e+02
9.200000e-07	-1.510003e-06	-3.663875e-09	-1.145501e+01	-2.464931e+02
9.300000e-07	-1.497142e-06	-3.648995e-09	-1.135745e+01	-2.453251e+02
9.400000e-07	-1.484184e-06	-3.629204e-09	-1.125914e+01	-2.441401e+02
9.500000e-07	-1.471140e-06	-3.606814e-09	-1.116019e+01	-2.429314e+02
9.600000e-07	-1.458016e-06	-3.584983e-09	-1.106063e+01	-2.416935e+02
9.700000e-07	-1.444779e-06	-3.566645e-09	-1.096021e+01	-2.404226e+02
9.800000e-07	-1.431392e-06	-3.548871e-09	-1.085866e+01	-2.391171e+02
9.900000e-07	-1.417848e-06	-3.526270e-09	-1.075591e+01	-2.377780e+02
1.000000e-06	-1.404168e-06	-3.502580e-09	-1.065214e+01	-2.364089e+02
1.010000e-06	-1.390403e-06	-3.480518e-09	-1.054771e+01	-2.350149e+02
1.020000e-06	-1.376579e-06	-3.459836e-09	-1.044284e+01	-2.336025e+02
1.030000e-06	-1.362699e-06	-3.438091e-09	-1.033755e+01	-2.321785e+02
1.040000e-06	-1.348746e-06	-3.416083e-09	-1.023170e+01	-2.307492e+02
1.050000e-06	-1.334701e-06	-3.394704e-09	-1.012515e+01	-2.293194e+02
1.060000e-06	-1.320545e-06	-3.372873e-09	-1.001777e+01	-2.278918e+02
1.070000e-06	-1.306284e-06	-3.349770e-09	-9.909578e+00	-2.264673e+02
1.080000e-06	-1.291925e-06	-3.324756e-09	-9.800653e+00	-2.250442e+02
1.090000e-06	-1.277480e-06	-3.299706e-09	-9.691072e+00	-2.236190e+02
1.100000e-06	-1.262947e-06	-3.275465e-09	-9.580821e+00	-2.221871e+02
1.110000e-06	-1.248337e-06	-3.252792e-09	-9.469988e+00	-2.207430e+02
1.120000e-06	-1.233677e-06	-3.229839e-09	-9.358780e+00	-2.192819e+02
1.130000e-06	-1.218963e-06	-3.206340e-09	-9.247160e+00	-2.177995e+02
1.140000e-06	-1.204139e-06	-3.184527e-09	-9.134704e+00	-2.162933e+02
1.150000e-06	-1.189155e-06	-3.161919e-09	-9.021030e+00	-2.147623e+02
1.160000e-06	-1.174024e-06	-3.138094e-09	-8.906248e+00	-2.132077e+02
1.170000e-06	-1.158776e-06	-3.114031e-09	-8.790576e+00	-2.116319e+02
1.180000e-06	-1.143437e-06	-3.089509e-09	-8.674212e+00	-2.100387e+02
1.190000e-06	-1.128029e-06	-3.065342e-09	-8.557320e+00	-2.084321e+02
1.200000e-06	-1.112553e-06	-3.042744e-09	-8.439918e+00	-2.068163e+02
1.210000e-06	-1.096995e-06	-3.020119e-09	-8.321898e+00	-2.051948e+02
1.220000e-06	-1.081343e-06	-2.993948e-09	-8.203163e+00	-2.035700e+02
1.230000e-06	-1.065609e-06	-2.968139e-09	-8.083802e+00	-2.019430e+02
1.240000e-06	-1.049823e-06	-2.941843e-09	-7.964043e+00	-2.003134e+02
1.250000e-06	-1.033968e-06	-2.914644e-09	-7.843771e+00	-1.986799e+02
1.260000e-06	-1.018008e-06	-2.888018e-09	-7.722698e+00	-1.970400e+02
1.270000e-06	-1.001939e-06	-2.865144e-09	-7.600795e+00	-1.953912e+02
1.280000e-06	-9.857419e-07	-2.844596e-09	-7.477921e+00	-1.937307e+02
1.290000e-06	-9.694385e-07	-2.823250e-09	-7.354242e+00	-1.920561e+02
1.300000e-06	-9.530852e-07	-2.799997e-09	-7.230185e+00	-1.903659e+02
1.310000e-06	-9.366700e-07	-2.775036e-09	-7.105658e+00	-1.886590e+02
1.320000e-06	-9.201997e-07	-2.749409e-09	-6.980713e+00	-1.869354e+02
1.330000e-06	-9.036849e-07	-2.724558e-09	-6.855430e+00	-1.851955e+02
1.340000e-06	-8.871179e-07	-2.699939e-09	-6.729751e+00	-1.834404e+02
1.350000e-06	-8.705049e-07	-2.673648e-09	-6.603724e+00	-1.816710e+02
1.360000e-06	-8.538198e-07	-2.647675e-09	-6.477150e+00	-1.798882e+02
1.370000e-06	-8.370705e-07	-2.620340e-09	-6.350088e+00	-1.780928e+02
1.380000e-06	-8.202409e-07	-2.589977e-09	-6.222417e+00	-1.762852e+02
1.390000e-06	-8.033304e-07	-2.559782e-09	-6.094133e+00	-1.744654e+02
1.400000e-06	-7.863755e-07	-2.533785e-09	-5.965512e+00	-1.726334e+02
1.410000e-06	-7.693893e-07	-2.508137e-09	-5.836652e+00	-1.707893e+02
1.420000e-06	-7.523880e-07	-2.481526e-09	-5.707679e+00	-1.689334e+02
1.430000e-06	-7.353636e-07	-2.453833e-09	-5.578530e+00	-1.670664e+02
1.440000e-06	-7.183200e-07	-2.425918e-09	-5.449236e+00	-1.651896e+02
1.450000e-06	-7.012617e-07	-2.398142e-09	-5.319831e+00	-1.633048e+02
1.460000e-06	-6.841560e-07	-2.371518e-09	-5.190066e+00	-1.614141e+02
1.470000e-06	-6.669848e-07	-2.343674e-09	-5.059803e+00	-1.595197e+02
1.480000e-06	-6.497459e-07	-2.313851e-09	-4.929028e+00	-1.576235e+02
1.490000e-06	-6.324471e-07	-2.283029e-09	-4.797798e+00	-1.557270e+02
1.500000e-06	-6.151088e-07	-2.251501e-09	-4.666267e+00	-1.538307e+02
1.510000e-06	-5.977354e-07	-2.219288e-09	-4.534472e+00	-1.519341e+02
1.520000e-06	-5.803302e-07	-2.187855e-09	-4.402434e+00	-1.500355e+02
1.530000e-06	-5.628983e-07	-2.161578e-09	-4.270194e+00	-1.481321e+02
1.540000e-06	-5.454243e-07	-2.135233e-09	-4.137635e+00	-1.462203e+02
1.550000e-06	-5.279285e-07	-2.108116e-09	-4.004910e+00	-1.442959e+02
1.560000e-06	-5.104089e-07	-2.078859e-09	-3.872005e+00	-1.423548e+02
1.570000e-06	-4.928142e-07	-2.047407e-09	-3.738530e+00	-1.403932e+02
1.580000e-06	-4.751643e-07	-2.014351e-09	-3.604637e+00	-1.384078e+02
1.590000e-06	-4.574909e-07	-1.980132e-09	-3.470565e+00	-1.363968e+02
1.600000e-06	-4.397881e-07	-1.945245e-09	-3.336270e+00	-1.343595e+02
1.610000e-06	-4.220458e-07	-1.913118e-09	-3.201675e+00	-1.322964e+02
1.620000e-06	-4.042738e-07	-1.882831e-09	-3.066855e+00	-1.302094e+02
1.630000e-06	-3.864930e-07	-1.851818e-09	-2.931969e+00	-1.281011e+02
1.640000e-06	-3.687005e-07	-1.820938e-09	-2.796993e+00	-1.259748e+02
1.650000e-06	-3.508946e-07	-1.789862e-09	-2.661916e+00	-1.238339e+02
1.660000e-06	-3.330807e-07	-1.758644e-09	-2.526778e+00	-1.216818e+02
1.670000e-06	-3.152645e-07	-1.726493e-09	-2.391623e+00	-1.195212e+02
1.680000e-06	-2.974474e-07	-1.693509e-09	-2.256462e+00	-1.173542e+02
1.690000e-06	-2.796212e-07	-1.658500e-09	-2.121230e+00	-1.151820e+02
1.700000e-06	-2.617884e-07	-1.624364e-09	-1.985949e+00	-1.130048e+02
1.710000e-06	-2.439446e-07	-1.592085e-09	-1.850585e+00	-1.108222e+02
1.720000e-06	-2.260738e-07	-1.559371e-09	-1.715015e+00	-1.086329e+02
1.730000e-06	-2.081762e-07	-1.524776e-09	-1.579242e+00	-1.064354e+02
1.740000e-06	-1.902662e-07	-1.489987e-09	-1.443376e+00	-1.042276e+02
1.750000e-06	-1.723631e-07	-1.457883e-09	-1.307561e+00	-1.020074e+02
1.760000e-06	-1.544540e-07	-1.428236e-09	-1.171701e+00	-9.977274e+01
1.770000e-06	-1.365151e-07	-1.398363e-09	-1.035615e+00	-9.752150e+01
1.780000e-06	-1.185655e-07	-1.366220e-09	-8.994481e-01	-9.525183e+01
1.790000e-06	-1.006184e-07	-1.330314e-09	-7.632994e-01	-9.296208e+01
1.800000e-06	-8.267988e-08	-1.293283e-09	-6.272165e-01	-9.065087e+01
1.810000e-06	-6.474790e-08	-1.254967e-09	-4.911831e-01	-8.831719e+01
1.820000e-06	-4.680370e-08	-1.215884e-09	-3.550569e-01	-8.596046e+01
1.830000e-06	-2.884302e-08	-1.181493e-09	-2.188056e-01	-8.358059e+01
1.840000e-06	-1.087108e-08	-1.152519e-09	-8.246892e-02	-8.117806e+01
1.850000e-06	7.092574e-09	-1.124014e-09	5.380487e-02	-7.875399e+01
1.860000e-06	2.505546e-08	-1.092322e-09	1.900728e-01	-7.631007e+01
1.870000e-06	4.302619e-08	-1.055835e-09	3.264003e-01	-7.384855e+01
1.880000e-06	6.099683e-08	-1.014952e-09	4.627271e-01	-7.137203e+01
1.890000e-06	7.895901e-08	-9.731054e-10	5.989898e-01	-6.888329e+01
1.900000e-06	9.690571e-08	-9.330564e-10	7.351349e-01	-6.638497e+01
1.910000e-06	1.148381e-07	-8.964998e-10	8.711717e-01	-6.387934e+01
1.920000e-06	1.327599e-07	-8.638731e-10	1.007128e+00	-6.136797e+01
1.930000e-06	1.506835e-07	-8.319152e-10	1.143098e+00	-5.885160e+01
1.940000e-06	1.685960e-07	-7.992631e-10	1.278984e+00	-5.632999e+01
1.950000e-06	1.864841e-07	-7.640399e-10	1.414684e+00	-5.380198e+01
1.960000e-06	2.043596e-07	-7.250842e-10	1.550289e+00	-5.126565e+01
1.970000e-06	2.222256e-07	-6.851267e-10	1.685822e+00	-4.871857e+01
1.980000e-06	2.400760e-07	-6.462742e-10	1.821237e+00	-4.615824e+01
1.990000e-06	2.579109e-07	-6.079811e-10	1.956534e+00	-4.358242e+01
2.000000e-06	2.757374e-07	-5.705075e-10	2.091768e+00	-4.098954e+01
2.010000e-06	2.935592e-07	-5.357407e-10	2.226965e+00	-3.837900e+01
2.020000e-06	3.113692e-07	-5.022279e-10	2.362073e+00	-3.575127e+01
2.030000e-06	3.291682e-07	-4.656153e-10	2.497098e+00	-3.310795e+01
2.040000e-06	3.469595e-07	-4.262405e-10	2.632065e+00	-3.045152e+01
2.050000e-06	3.647419e-07	-3.873305e-10	2.766963e+00	-2.778501e+01
2.060000e-06	3.825016e-07	-3.481451e-10	2.901690e+00	-2.511161e+01
2.070000e-06	4.002358e-07	-3.080023e-10	3.036223e+00	-2.243410e+01
2.080000e-06	4.179638e-07	-2.685649e-10	3.170709e+00	-1.975449e+01
2.090000e-06	4.356704e-07	-2.322496e-10	3.305033e+00	-1.707365e+01
2.100000e-06	4.533364e-07	-1.982533e-10	3.439049e+00	-1.439113e+01
2.110000e-06	4.709746e-07	-1.629927e-10	3.572853e+00	-1.170524e+01
2.120000e-06	4.885828e-07	-1.251788e-10	3.706431e+00	-9.013244e+00
2.130000e-06	5.061457e-07	-8.614132e-11	3.839664e+00	-6.311789e+00
2.140000e-06	5.236643e-07	-4.584566e-11	3.972562e+00	-3.597422e+00
2.150000e-06	5.411534e-07	-4.338919e-12	4.105235e+00	-8.671383e-01
2.160000e-06	5.586137e-07	3.730418e-11	4.237691e+00	1.881114e+00
2.170000e-06	5.760356e-07	7.735413e-11	4.369855e+00	4.648072e+00
2.180000e-06	5.934254e-07	1.165774e-10	4.501775e+00	7.432987e+00
2.190000e-06	6.107813e-07	1.571751e-10	4.633438e+00	1.023368e+01
2.200000e-06	6.280795e-07	1.982011e-10	4.764664e+00	1.304683e+01
2.210000e-06	6.453164e-07	2.378229e-10	4.895425e+00	1.586844e+01
2.220000e-06	6.625037e-07	2.792134e-10	5.025809e+00	1.869440e+01
2.230000e-06	6.796397e-07	3.228071e-10	5.155804e+00	2.152112e+01
2.240000e-06	6.967256e-07	3.665284e-10	5.285419e+00	2.434605e+01
2.250000e-06	7.137783e-07	4.091902e-10	5.414783e+00	2.716811e+01
2.260000e-06	7.308050e-07	4.507155e-10	5.543949e+00	2.998777e+01
2.270000e-06	7.478122e-07	4.919263e-10	5.672967e+00	3.280709e+01
2.280000e-06	7.648064e-07	5.324354e-10	5.801886e+00	3.562933e+01
2.290000e-06	7.817677e-07	5.738612e-10	5.930556e+00	3.845846e+01
2.300000e-06	7.986639e-07	6.151376e-10	6.058732e+00	4.129858e+01
2.310000e-06	8.154805e-07	6.552226e-10	6.186304e+00	4.415328e+01
2.320000e-06	8.322314e-07	6.966688e-10	6.313378e+00	4.702507e+01
2.330000e-06	8.489115e-07	7.395923e-10	6.439914e+00	4.991501e+01
2.340000e-06	8.655180e-07	7.831136e-10	6.565893e+00	5.282256e+01
2.350000e-06	8.820729e-07	8.277978e-10	6.691480e+00	5.574561e+01
2.360000e-06	8.985590e-07	8.731093e-10	6.816544e+00	5.868087e+01
2.370000e-06	9.149781e-07	9.178146e-10	6.941101e+00	6.162427e+01
2.380000e-06	9.313499e-07	9.604701e-10	7.065299e+00	6.457161e+01
2.390000e-06	9.476689e-07	1.002124e-09	7.189097e+00	6.751907e+01
2.400000e-06	9.639173e-07	1.043539e-09	7.312359e+00	7.046372e+01
2.410000e-06	9.800895e-07	1.084357e-09	7.435042e+00	7.340383e+01
2.420000e-06	9.961740e-07	1.125276e-09	7.557060e+00	7.633890e+01
2.430000e-06	1.012171e-06	1.167548e-09	7.678417e+00	7.926959e+01
2.440000e-06	1.028101e-06	1.213608e-09	7.799264e+00	8.219728e+01
2.450000e-06	1.043953e-06	1.261393e-09	7.919513e+00	8.512364e+01
2.460000e-06	1.059716e-06	1.306641e-09	8.039094e+00	8.805008e+01
2.470000e-06	1.075408e-06	1.349657e-09	8.158135e+00	9.097730e+01
2.480000e-06	1.091024e-06	1.390972e-09	8.276598e+00	9.390490e+01
2.490000e-06	1.106548e-06	1.431687e-09	8.394365e+00	9.683128e+01
2.500000e-06	1.121989e-06	1.471056e-09	8.511503e+00	9.975374e+01
2.510000e-06	1.137354e-06	1.508608e-09	8.628068e+00	1.026688e+02
2.520000e-06	1.152658e-06	1.549738e-09	8.744159e+00	1.055727e+02
2.530000e-06	1.167888e-06	1.595221e-09	8.859696e+00	1.084621e+02
2.540000e-06	1.182982e-06	1.641194e-09	8.974200e+00	1.113343e+02
2.550000e-06	1.197905e-06	1.681020e-09	9.087409e+00	1.141884e+02
2.560000e-06	1.212696e-06	1.715025e-09	9.199617e+00	1.170247e+02
2.570000e-06	1.227396e-06	1.750556e-09	9.311127e+00	1.198455e+02
2.580000e-06	1.242033e-06	1.791142e-09	9.422164e+00	1.226542e+02
2.590000e-06	1.256624e-06	1.833689e-09	9.532854e+00	1.254553e+02
2.600000e-06	1.271146e-06	1.873605e-09	9.643018e+00	1.282532e+02
2.610000e-06	1.285575e-06	1.913967e-09	9.752482e+00	1.310518e+02
2.620000e-06	1.299910e-06	1.956827e-09	9.861229e+00	1.338537e+02
2.630000e-06	1.314150e-06	2.000859e-09	9.969255e+00	1.366594e+02
2.640000e-06	1.328297e-06	2.044053e-09	1.007657e+01	1.394672e+02
2.650000e-06	1.342357e-06	2.084212e-09	1.018324e+01	1.422732e+02
2.660000e-06	1.356315e-06	2.123407e-09	1.028912e+01	1.450715e+02
2.670000e-06	1.370172e-06	2.163614e-09	1.039424e+01	1.478549e+02
2.680000e-06	1.383976e-06	2.202985e-09	1.049896e+01	1.506158e+02
2.690000e-06	1.397722e-06	2.239927e-09	1.060324e+01	1.533471e+02
2.700000e-06	1.411386e-06	2.276720e-09	1.070690e+01	1.560428e+02
2.710000e-06	1.424906e-06	2.314313e-09	1.080946e+01	1.586993e+02
2.720000e-06	1.438245e-06	2.350839e-09	1.091065e+01	1.613152e+02
2.730000e-06	1.451431e-06	2.385999e-09	1.101068e+01	1.638918e+02
2.740000e-06	1.464504e-06	2.421007e-09	1.110985e+01	1.664329e+02
2.750000e-06	1.477507e-06	2.455907e-09	1.120850e+01	1.689438e+02
2.760000e-06	1.490451e-06	2.490517e-09	1.130669e+01	1.714309e+02
2.770000e-06	1.503316e-06	2.525540e-09	1.140429e+01	1.739009e+02
2.780000e-06	1.516065e-06	2.562135e-09	1.150100e+01	1.763592e+02
2.790000e-06	1.528693e-06	2.599993e-09	1.159680e+01	1.788100e+02
2.800000e-06	1.541216e-06	2.636667e-09	1.169180e+01	1.812550e+02
2.810000e-06	1.553650e-06	2.672474e-09	1.178612e+01	1.836940e+02
2.820000e-06	1.565975e-06	2.708949e-09	1.187962e+01	1.861241e+02
2.830000e-06	1.578210e-06	2.746112e-09	1.197244e+01	1.885412e+02
2.840000e-06	1.590384e-06	2.781588e-09	1.206479e+01	1.909397e+02
2.850000e-06	1.602458e-06	2.815714e-09	1.215638e+01	1.933141e+02
2.860000e-06	1.614387e-06	2.849377e-09	1.224687e+01	1.956592e+02
2.870000e-06	1.626128e-06	2.883012e-09	1.233595e+01	1.979712e+02
2.880000e-06	1.637690e-06	2.914218e-09	1.242366e+01	2.002479e+02
2.890000e-06	1.649130e-06	2.944780e-09	1.251044e+01	2.024891e+02
2.900000e-06	1.660495e-06	2.978892e-09	1.259666e+01	2.046965e+02
