# Temperatura_=_20.0
# Concentracion g/m^3_=_10000.0
# C_Vs_to_Am_M_A/Vsm_=_65563218390.804596
# pendiente_HvsI_1/m_=_3716.3
# ordenada_HvsI_A/m_=_1297.0
# frecuencia_Hz_=_135204.5923946332

Tiempo_(s)	Campo_(V.s)	Magnetizacion_(V.s)	Campo_(kA/m)	Magnetizacion_(A/m)
0.000000e+00	-2.130289e-06	-4.616259e-09	-1.613998e+01	-2.967556e+02
1.000000e-08	-2.130189e-06	-4.630821e-09	-1.613922e+01	-2.969944e+02
2.000000e-08	-2.129882e-06	-4.611554e-09	-1.613690e+01	-2.972145e+02
3.000000e-08	-2.129375e-06	-4.589529e-09	-1.613305e+01	-2.974125e+02
4.000000e-08	-2.128757e-06	-4.543617e-09	-1.612837e+01	-2.975850e+02
5.000000e-08	-2.128160e-06	-4.608804e-09	-1.612385e+01	-2.977290e+02
6.000000e-08	-2.127516e-06	-4.642524e-09	-1.611897e+01	-2.978424e+02
7.000000e-08	-2.126687e-06	-4.615300e-09	-1.611269e+01	-2.979234e+02
8.000000e-08	-2.125614e-06	-4.629256e-09	-1.610456e+01	-2.979713e+02
9.000000e-08	-2.124308e-06	-4.607263e-09	-1.609467e+01	-2.979862e+02
1.000000e-07	-2.122819e-06	-4.616515e-09	-1.608338e+01	-2.979686e+02
1.100000e-07	-2.121112e-06	-4.565348e-09	-1.607045e+01	-2.979199e+02
1.200000e-07	-2.119165e-06	-4.579953e-09	-1.605570e+01	-2.978417e+02
1.300000e-07	-2.117048e-06	-4.590792e-09	-1.603966e+01	-2.977361e+02
1.400000e-07	-2.114922e-06	-4.601835e-09	-1.602355e+01	-2.976052e+02
1.500000e-07	-2.112772e-06	-4.590913e-09	-1.600726e+01	-2.974512e+02
1.600000e-07	-2.110438e-06	-4.597253e-09	-1.598958e+01	-2.972764e+02
1.700000e-07	-2.107828e-06	-4.611740e-09	-1.596980e+01	-2.970829e+02
1.800000e-07	-2.105022e-06	-4.586590e-09	-1.594854e+01	-2.968731e+02
1.900000e-07	-2.102114e-06	-4.553563e-09	-1.592651e+01	-2.966488e+02
2.000000e-07	-2.099078e-06	-4.540673e-09	-1.590351e+01	-2.964120e+02
2.100000e-07	-2.095827e-06	-4.561914e-09	-1.587888e+01	-2.961642e+02
2.200000e-07	-2.092370e-06	-4.573863e-09	-1.585269e+01	-2.959065e+02
2.300000e-07	-2.088786e-06	-4.562601e-09	-1.582553e+01	-2.956397e+02
2.400000e-07	-2.085075e-06	-4.536243e-09	-1.579741e+01	-2.953640e+02
2.500000e-07	-2.081183e-06	-4.528085e-09	-1.576793e+01	-2.950791e+02
2.600000e-07	-2.077140e-06	-4.517770e-09	-1.573729e+01	-2.947840e+02
2.700000e-07	-2.072988e-06	-4.504114e-09	-1.570584e+01	-2.944777e+02
2.800000e-07	-2.068723e-06	-4.492356e-09	-1.567352e+01	-2.941585e+02
2.900000e-07	-2.064312e-06	-4.502207e-09	-1.564010e+01	-2.938248e+02
3.000000e-07	-2.059757e-06	-4.498055e-09	-1.560560e+01	-2.934752e+02
3.100000e-07	-2.055075e-06	-4.485491e-09	-1.557012e+01	-2.931086e+02
3.200000e-07	-2.050244e-06	-4.470296e-09	-1.553352e+01	-2.927246e+02
3.300000e-07	-2.045269e-06	-4.470594e-09	-1.549583e+01	-2.923234e+02
3.400000e-07	-2.040183e-06	-4.454614e-09	-1.545730e+01	-2.919059e+02
3.500000e-07	-2.034996e-06	-4.444201e-09	-1.541800e+01	-2.914737e+02
3.600000e-07	-2.029644e-06	-4.441103e-09	-1.537745e+01	-2.910287e+02
3.700000e-07	-2.024068e-06	-4.444982e-09	-1.533520e+01	-2.905734e+02
3.800000e-07	-2.018304e-06	-4.421544e-09	-1.529153e+01	-2.901098e+02
3.900000e-07	-2.012416e-06	-4.402250e-09	-1.524692e+01	-2.896397e+02
4.000000e-07	-2.006393e-06	-4.401923e-09	-1.520128e+01	-2.891643e+02
4.100000e-07	-2.000215e-06	-4.404350e-09	-1.515448e+01	-2.886839e+02
4.200000e-07	-1.993899e-06	-4.379134e-09	-1.510663e+01	-2.881976e+02
4.300000e-07	-1.987479e-06	-4.358873e-09	-1.505799e+01	-2.877038e+02
4.400000e-07	-1.980943e-06	-4.361755e-09	-1.500847e+01	-2.872000e+02
4.500000e-07	-1.974289e-06	-4.362760e-09	-1.495806e+01	-2.866830e+02
4.600000e-07	-1.967526e-06	-4.344020e-09	-1.490681e+01	-2.861495e+02
4.700000e-07	-1.960608e-06	-4.327304e-09	-1.485440e+01	-2.855961e+02
4.800000e-07	-1.953468e-06	-4.324913e-09	-1.480030e+01	-2.850200e+02
4.900000e-07	-1.946128e-06	-4.313028e-09	-1.474470e+01	-2.844189e+02
5.000000e-07	-1.938674e-06	-4.294667e-09	-1.468822e+01	-2.837916e+02
5.100000e-07	-1.931115e-06	-4.280563e-09	-1.463095e+01	-2.831378e+02
5.200000e-07	-1.923414e-06	-4.270624e-09	-1.457261e+01	-2.824581e+02
5.300000e-07	-1.915577e-06	-4.254464e-09	-1.451323e+01	-2.817540e+02
5.400000e-07	-1.907612e-06	-4.247213e-09	-1.445288e+01	-2.810276e+02
5.500000e-07	-1.899509e-06	-4.237608e-09	-1.439149e+01	-2.802814e+02
5.600000e-07	-1.891291e-06	-4.219872e-09	-1.432922e+01	-2.795181e+02
5.700000e-07	-1.882956e-06	-4.200802e-09	-1.426608e+01	-2.787399e+02
5.800000e-07	-1.874462e-06	-4.195056e-09	-1.420172e+01	-2.779492e+02
5.900000e-07	-1.865784e-06	-4.182387e-09	-1.413597e+01	-2.771475e+02
6.000000e-07	-1.856934e-06	-4.158687e-09	-1.406893e+01	-2.763361e+02
6.100000e-07	-1.847953e-06	-4.142495e-09	-1.400088e+01	-2.755157e+02
6.200000e-07	-1.838859e-06	-4.141465e-09	-1.393198e+01	-2.746866e+02
6.300000e-07	-1.829641e-06	-4.131503e-09	-1.386214e+01	-2.738490e+02
6.400000e-07	-1.820304e-06	-4.110653e-09	-1.379140e+01	-2.730026e+02
6.500000e-07	-1.810852e-06	-4.093328e-09	-1.371978e+01	-2.721473e+02
6.600000e-07	-1.801261e-06	-4.081928e-09	-1.364712e+01	-2.712827e+02
6.700000e-07	-1.791540e-06	-4.067341e-09	-1.357347e+01	-2.704083e+02
6.800000e-07	-1.781705e-06	-4.044786e-09	-1.349896e+01	-2.695235e+02
6.900000e-07	-1.771738e-06	-4.021994e-09	-1.342344e+01	-2.686277e+02
7.000000e-07	-1.761590e-06	-4.005363e-09	-1.334656e+01	-2.677197e+02
7.100000e-07	-1.751234e-06	-3.997274e-09	-1.326810e+01	-2.667985e+02
7.200000e-07	-1.740716e-06	-3.986006e-09	-1.318841e+01	-2.658627e+02
7.300000e-07	-1.730054e-06	-3.965575e-09	-1.310763e+01	-2.649110e+02
7.400000e-07	-1.719267e-06	-3.946266e-09	-1.302590e+01	-2.639418e+02
7.500000e-07	-1.708384e-06	-3.935860e-09	-1.294345e+01	-2.629542e+02
7.600000e-07	-1.697376e-06	-3.921254e-09	-1.286004e+01	-2.619474e+02
7.700000e-07	-1.686234e-06	-3.901022e-09	-1.277563e+01	-2.609214e+02
7.800000e-07	-1.674978e-06	-3.881925e-09	-1.269035e+01	-2.598767e+02
7.900000e-07	-1.663612e-06	-3.866254e-09	-1.260424e+01	-2.588147e+02
8.000000e-07	-1.652160e-06	-3.848487e-09	-1.251747e+01	-2.577375e+02
8.100000e-07	-1.640624e-06	-3.826942e-09	-1.243007e+01	-2.566477e+02
8.200000e-07	-1.628951e-06	-3.803883e-09	-1.234162e+01	-2.555483e+02
8.300000e-07	-1.617101e-06	-3.784002e-09	-1.225185e+01	-2.544420e+02
8.400000e-07	-1.605084e-06	-3.768369e-09	-1.216080e+01	-2.533313e+02
8.500000e-07	-1.592933e-06	-3.750935e-09	-1.206874e+01	-2.522181e+02
8.600000e-07	-1.580700e-06	-3.729024e-09	-1.197606e+01	-2.511031e+02
8.700000e-07	-1.568403e-06	-3.709189e-09	-1.188289e+01	-2.499860e+02
8.800000e-07	-1.556013e-06	-3.692522e-09	-1.178901e+01	-2.488654e+02
8.900000e-07	-1.543505e-06	-3.671868e-09	-1.169425e+01	-2.477388e+02
9.000000e-07	-1.530892e-06	-3.646323e-09	-1.159869e+01	-2.466028e+02
9.100000e-07	-1.518175e-06	-3.624994e-09	-1.150234e+01	-2.454535e+02
9.200000e-07	-1.505348e-06	-3.612127e-09	-1.140516e+01	-2.442871e+02
9.300000e-07	-1.492411e-06	-3.599231e-09	-1.130714e+01	-2.430997e+02
9.400000e-07	-1.479371e-06	-3.580559e-09	-1.120834e+01	-2.418885e+02
9.500000e-07	-1.466239e-06	-3.559306e-09	-1.110885e+01	-2.406514e+02
9.600000e-07	-1.452999e-06	-3.538664e-09	-1.100854e+01	-2.393874e+02
9.700000e-07	-1.439620e-06	-3.517104e-09	-1.090717e+01	-2.380968e+02
9.800000e-07	-1.426109e-06	-3.492815e-09	-1.080481e+01	-2.367807e+02
9.900000e-07	-1.412491e-06	-3.468063e-09	-1.070164e+01	-2.354415e+02
1.000000e-06	-1.398772e-06	-3.446545e-09	-1.059769e+01	-2.340817e+02
1.010000e-06	-1.384977e-06	-3.428611e-09	-1.049318e+01	-2.327043e+02
1.020000e-06	-1.371129e-06	-3.409461e-09	-1.038826e+01	-2.313122e+02
1.030000e-06	-1.357209e-06	-3.386470e-09	-1.028279e+01	-2.299078e+02
1.040000e-06	-1.343182e-06	-3.364943e-09	-1.017652e+01	-2.284930e+02
1.050000e-06	-1.329052e-06	-3.344948e-09	-1.006946e+01	-2.270692e+02
1.060000e-06	-1.314824e-06	-3.324025e-09	-9.961665e+00	-2.256369e+02
1.070000e-06	-1.300475e-06	-3.300074e-09	-9.852953e+00	-2.241961e+02
1.080000e-06	-1.286028e-06	-3.273890e-09	-9.743497e+00	-2.227465e+02
1.090000e-06	-1.271501e-06	-3.249493e-09	-9.633433e+00	-2.212872e+02
1.100000e-06	-1.256901e-06	-3.227354e-09	-9.522816e+00	-2.198175e+02
1.110000e-06	-1.242249e-06	-3.204900e-09	-9.411804e+00	-2.183366e+02
1.120000e-06	-1.227524e-06	-3.182326e-09	-9.300245e+00	-2.168440e+02
1.130000e-06	-1.212698e-06	-3.161871e-09	-9.187913e+00	-2.153395e+02
1.140000e-06	-1.197754e-06	-3.140434e-09	-9.074694e+00	-2.138229e+02
1.150000e-06	-1.182659e-06	-3.116524e-09	-8.960328e+00	-2.122945e+02
1.160000e-06	-1.167423e-06	-3.089606e-09	-8.844892e+00	-2.107546e+02
1.170000e-06	-1.152093e-06	-3.063205e-09	-8.728749e+00	-2.092035e+02
1.180000e-06	-1.136698e-06	-3.039534e-09	-8.612105e+00	-2.076417e+02
1.190000e-06	-1.121237e-06	-3.017184e-09	-8.494966e+00	-2.060694e+02
1.200000e-06	-1.105684e-06	-2.996734e-09	-8.377130e+00	-2.044870e+02
1.210000e-06	-1.090047e-06	-2.974346e-09	-8.258661e+00	-2.028947e+02
1.220000e-06	-1.074335e-06	-2.950823e-09	-8.139621e+00	-2.012926e+02
1.230000e-06	-1.058533e-06	-2.927076e-09	-8.019899e+00	-1.996810e+02
1.240000e-06	-1.042647e-06	-2.902433e-09	-7.899541e+00	-1.980602e+02
1.250000e-06	-1.026679e-06	-2.876096e-09	-7.778555e+00	-1.964306e+02
1.260000e-06	-1.010606e-06	-2.849891e-09	-7.656780e+00	-1.947923e+02
1.270000e-06	-9.944419e-07	-2.825380e-09	-7.534315e+00	-1.931458e+02
1.280000e-06	-9.781826e-07	-2.800840e-09	-7.411128e+00	-1.914912e+02
1.290000e-06	-9.618245e-07	-2.777148e-09	-7.287192e+00	-1.898284e+02
1.300000e-06	-9.454249e-07	-2.753381e-09	-7.162942e+00	-1.881569e+02
1.310000e-06	-9.289842e-07	-2.729096e-09	-7.038380e+00	-1.864759e+02
1.320000e-06	-9.124973e-07	-2.705663e-09	-6.913468e+00	-1.847841e+02
1.330000e-06	-8.959707e-07	-2.681240e-09	-6.788255e+00	-1.830801e+02
1.340000e-06	-8.793675e-07	-2.653616e-09	-6.662463e+00	-1.813619e+02
1.350000e-06	-8.626857e-07	-2.624082e-09	-6.536074e+00	-1.796278e+02
1.360000e-06	-8.459241e-07	-2.596110e-09	-6.409081e+00	-1.778762e+02
1.370000e-06	-8.290945e-07	-2.570758e-09	-6.281573e+00	-1.761057e+02
1.380000e-06	-8.122125e-07	-2.546300e-09	-6.153668e+00	-1.743159e+02
1.390000e-06	-7.952836e-07	-2.522734e-09	-6.025407e+00	-1.725070e+02
1.400000e-06	-7.783214e-07	-2.501060e-09	-5.896894e+00	-1.706801e+02
1.410000e-06	-7.613319e-07	-2.480780e-09	-5.768175e+00	-1.688373e+02
1.420000e-06	-7.443220e-07	-2.456293e-09	-5.639300e+00	-1.669812e+02
1.430000e-06	-7.272790e-07	-2.425343e-09	-5.510175e+00	-1.651150e+02
1.440000e-06	-7.102027e-07	-2.388880e-09	-5.380798e+00	-1.632421e+02
1.450000e-06	-6.930965e-07	-2.354442e-09	-5.251194e+00	-1.613655e+02
1.460000e-06	-6.759279e-07	-2.323941e-09	-5.121118e+00	-1.594879e+02
1.470000e-06	-6.586872e-07	-2.294046e-09	-4.990495e+00	-1.576108e+02
1.480000e-06	-6.413976e-07	-2.265568e-09	-4.859501e+00	-1.557348e+02
1.490000e-06	-6.240518e-07	-2.239482e-09	-4.728082e+00	-1.538592e+02
1.500000e-06	-6.066593e-07	-2.215803e-09	-4.596309e+00	-1.519819e+02
1.510000e-06	-5.892528e-07	-2.188518e-09	-4.464431e+00	-1.500999e+02
1.520000e-06	-5.718186e-07	-2.157618e-09	-4.332341e+00	-1.482092e+02
1.530000e-06	-5.543489e-07	-2.124793e-09	-4.199984e+00	-1.463055e+02
1.540000e-06	-5.368201e-07	-2.091267e-09	-4.067177e+00	-1.443842e+02
1.550000e-06	-5.192171e-07	-2.058789e-09	-3.933810e+00	-1.424412e+02
1.560000e-06	-5.015888e-07	-2.028259e-09	-3.800250e+00	-1.404732e+02
1.570000e-06	-4.839453e-07	-2.000255e-09	-3.666576e+00	-1.384780e+02
1.580000e-06	-4.662660e-07	-1.974010e-09	-3.532630e+00	-1.364546e+02
1.590000e-06	-4.485491e-07	-1.945426e-09	-3.398399e+00	-1.344033e+02
1.600000e-06	-4.308120e-07	-1.912381e-09	-3.264015e+00	-1.323258e+02
1.610000e-06	-4.130588e-07	-1.877255e-09	-3.129509e+00	-1.302252e+02
1.620000e-06	-3.952938e-07	-1.842829e-09	-2.994914e+00	-1.281051e+02
1.630000e-06	-3.775257e-07	-1.808799e-09	-2.860295e+00	-1.259701e+02
1.640000e-06	-3.597446e-07	-1.775097e-09	-2.725578e+00	-1.238245e+02
1.650000e-06	-3.419465e-07	-1.743530e-09	-2.590732e+00	-1.216729e+02
1.660000e-06	-3.241414e-07	-1.715404e-09	-2.455833e+00	-1.195189e+02
1.670000e-06	-3.063353e-07	-1.687417e-09	-2.320927e+00	-1.173656e+02
1.680000e-06	-2.885192e-07	-1.657940e-09	-2.185944e+00	-1.152148e+02
1.690000e-06	-2.706835e-07	-1.627500e-09	-2.050814e+00	-1.130668e+02
1.700000e-06	-2.528343e-07	-1.595891e-09	-1.915581e+00	-1.109211e+02
1.710000e-06	-2.349798e-07	-1.562212e-09	-1.780307e+00	-1.087756e+02
1.720000e-06	-2.171121e-07	-1.526485e-09	-1.644933e+00	-1.066271e+02
1.730000e-06	-1.992245e-07	-1.490022e-09	-1.509409e+00	-1.044716e+02
1.740000e-06	-1.813133e-07	-1.455622e-09	-1.373707e+00	-1.023046e+02
1.750000e-06	-1.633769e-07	-1.424808e-09	-1.237813e+00	-1.001211e+02
1.760000e-06	-1.454311e-07	-1.394593e-09	-1.101848e+00	-9.791668e+01
1.770000e-06	-1.274673e-07	-1.364353e-09	-9.657464e-01	-9.568699e+01
1.780000e-06	-1.094715e-07	-1.330990e-09	-8.294031e-01	-9.342873e+01
1.790000e-06	-9.146251e-08	-1.295606e-09	-6.929589e-01	-9.113965e+01
1.800000e-06	-7.346687e-08	-1.259882e-09	-5.566163e-01	-8.881879e+01
1.810000e-06	-5.549801e-08	-1.223405e-09	-4.204766e-01	-8.646651e+01
1.820000e-06	-3.753182e-08	-1.186185e-09	-2.843571e-01	-8.408451e+01
1.830000e-06	-1.955346e-08	-1.153338e-09	-1.481454e-01	-8.167562e+01
1.840000e-06	-1.572371e-09	-1.124482e-09	-1.191295e-02	-7.924356e+01
1.850000e-06	1.641791e-08	-1.094603e-09	1.243891e-01	-7.679257e+01
1.860000e-06	3.441232e-08	-1.061565e-09	2.607224e-01	-7.432705e+01
1.870000e-06	5.240691e-08	-1.024773e-09	3.970570e-01	-7.185112e+01
1.880000e-06	7.040328e-08	-9.866672e-10	5.334053e-01	-6.936827e+01
1.890000e-06	8.838066e-08	-9.480770e-10	6.696095e-01	-6.688102e+01
1.900000e-06	1.063582e-07	-9.093388e-10	8.058150e-01	-6.439076e+01
1.910000e-06	1.243335e-07	-8.727856e-10	9.420035e-01	-6.189768e+01
1.920000e-06	1.422797e-07	-8.384807e-10	1.077972e+00	-5.940080e+01
1.930000e-06	1.602136e-07	-8.053392e-10	1.213847e+00	-5.689824e+01
1.940000e-06	1.781394e-07	-7.731753e-10	1.349660e+00	-5.438744e+01
1.950000e-06	1.960434e-07	-7.382509e-10	1.485309e+00	-5.186560e+01
1.960000e-06	2.139284e-07	-6.992763e-10	1.620813e+00	-4.933002e+01
1.970000e-06	2.317940e-07	-6.582194e-10	1.756170e+00	-4.677849e+01
1.980000e-06	2.496335e-07	-6.170489e-10	1.891330e+00	-4.420957e+01
1.990000e-06	2.674622e-07	-5.774025e-10	2.026407e+00	-4.162276e+01
2.000000e-06	2.852881e-07	-5.424954e-10	2.161464e+00	-3.901857e+01
2.010000e-06	3.031061e-07	-5.085097e-10	2.296461e+00	-3.639843e+01
2.020000e-06	3.209173e-07	-4.727245e-10	2.431406e+00	-3.376447e+01
2.030000e-06	3.387213e-07	-4.342457e-10	2.566297e+00	-3.111929e+01
2.040000e-06	3.565136e-07	-3.949346e-10	2.701099e+00	-2.846557e+01
2.050000e-06	3.742958e-07	-3.572864e-10	2.835825e+00	-2.580578e+01
2.060000e-06	3.920566e-07	-3.167404e-10	2.970388e+00	-2.314188e+01
2.070000e-06	4.097872e-07	-2.750537e-10	3.104722e+00	-2.047514e+01
2.080000e-06	4.275051e-07	-2.353704e-10	3.238961e+00	-1.780600e+01
2.090000e-06	4.452046e-07	-1.971661e-10	3.373060e+00	-1.513414e+01
2.100000e-06	4.628654e-07	-1.587895e-10	3.506866e+00	-1.245858e+01
2.110000e-06	4.804914e-07	-1.202070e-10	3.640407e+00	-9.777853e+00
2.120000e-06	4.980789e-07	-8.202733e-11	3.773658e+00	-7.090316e+00
2.130000e-06	5.156329e-07	-4.381077e-11	3.906654e+00	-4.394340e+00
2.140000e-06	5.331566e-07	-3.949653e-12	4.039421e+00	-1.688552e+00
2.150000e-06	5.506331e-07	3.638966e-11	4.171831e+00	1.028024e+00
2.160000e-06	5.680802e-07	7.571549e-11	4.304018e+00	3.755903e+00
2.170000e-06	5.855079e-07	1.151754e-10	4.436057e+00	6.495166e+00
2.180000e-06	6.028976e-07	1.558815e-10	4.567809e+00	9.245557e+00
2.190000e-06	6.202365e-07	1.973423e-10	4.699176e+00	1.200665e+01
2.200000e-06	6.375298e-07	2.383310e-10	4.830197e+00	1.477801e+01
2.210000e-06	6.547754e-07	2.783506e-10	4.960858e+00	1.755937e+01
2.220000e-06	6.719577e-07	3.189913e-10	5.091037e+00	2.035074e+01
2.230000e-06	6.890911e-07	3.611584e-10	5.220848e+00	2.315246e+01
2.240000e-06	7.061833e-07	4.054408e-10	5.350345e+00	2.596514e+01
2.250000e-06	7.232349e-07	4.495893e-10	5.479535e+00	2.878958e+01
2.260000e-06	7.402563e-07	4.913116e-10	5.608497e+00	3.162660e+01
2.270000e-06	7.572530e-07	5.331501e-10	5.737271e+00	3.447685e+01
2.280000e-06	7.742342e-07	5.761786e-10	5.865928e+00	3.734057e+01
2.290000e-06	7.911895e-07	6.177849e-10	5.994389e+00	4.021753e+01
2.300000e-06	8.080960e-07	6.551617e-10	6.122479e+00	4.310688e+01
2.310000e-06	8.249336e-07	6.919779e-10	6.250049e+00	4.600718e+01
2.320000e-06	8.416811e-07	7.321400e-10	6.376935e+00	4.891648e+01
2.330000e-06	8.583367e-07	7.760178e-10	6.503124e+00	5.183254e+01
2.340000e-06	8.749215e-07	8.197585e-10	6.628778e+00	5.475298e+01
2.350000e-06	8.914442e-07	8.640470e-10	6.753961e+00	5.767558e+01
2.360000e-06	9.078891e-07	9.094689e-10	6.878554e+00	6.059848e+01
2.370000e-06	9.242858e-07	9.544751e-10	7.002783e+00	6.352034e+01
2.380000e-06	9.406654e-07	9.980368e-10	7.126882e+00	6.644045e+01
2.390000e-06	9.569731e-07	1.038495e-09	7.250436e+00	6.935870e+01
2.400000e-06	9.731906e-07	1.078431e-09	7.373307e+00	7.227547e+01
2.410000e-06	9.893382e-07	1.119632e-09	7.495647e+00	7.519148e+01
2.420000e-06	1.005402e-06	1.160981e-09	7.617355e+00	7.810752e+01
2.430000e-06	1.021399e-06	1.203278e-09	7.738557e+00	8.102423e+01
2.440000e-06	1.037323e-06	1.247117e-09	7.859201e+00	8.394186e+01
2.450000e-06	1.053154e-06	1.291118e-09	7.979145e+00	8.686015e+01
2.460000e-06	1.068908e-06	1.334341e-09	8.098500e+00	8.977821e+01
2.470000e-06	1.084575e-06	1.375737e-09	8.217205e+00	9.269458e+01
2.480000e-06	1.100156e-06	1.414353e-09	8.335249e+00	9.560733e+01
2.490000e-06	1.115649e-06	1.451547e-09	8.452631e+00	9.851427e+01
2.500000e-06	1.131063e-06	1.491681e-09	8.569414e+00	1.014132e+02
2.510000e-06	1.146415e-06	1.534534e-09	8.685731e+00	1.043020e+02
2.520000e-06	1.161695e-06	1.578056e-09	8.801497e+00	1.071792e+02
2.530000e-06	1.176882e-06	1.620927e-09	8.916556e+00	1.100438e+02
2.540000e-06	1.191944e-06	1.662841e-09	9.030678e+00	1.128953e+02
2.550000e-06	1.206851e-06	1.704522e-09	9.143619e+00	1.157340e+02
2.560000e-06	1.221621e-06	1.744021e-09	9.255519e+00	1.185606e+02
2.570000e-06	1.236302e-06	1.780861e-09	9.366749e+00	1.213762e+02
2.580000e-06	1.250923e-06	1.818961e-09	9.477524e+00	1.241819e+02
2.590000e-06	1.265484e-06	1.859439e-09	9.587846e+00	1.269786e+02
2.600000e-06	1.279976e-06	1.901378e-09	9.697645e+00	1.297670e+02
2.610000e-06	1.294375e-06	1.941532e-09	9.806737e+00	1.325472e+02
2.620000e-06	1.308668e-06	1.979778e-09	9.915023e+00	1.353190e+02
2.630000e-06	1.322869e-06	2.020251e-09	1.002262e+01	1.380814e+02
2.640000e-06	1.336981e-06	2.062774e-09	1.012954e+01	1.408332e+02
2.650000e-06	1.350994e-06	2.104259e-09	1.023570e+01	1.435730e+02
2.660000e-06	1.364911e-06	2.143730e-09	1.034114e+01	1.462991e+02
2.670000e-06	1.378748e-06	2.182902e-09	1.044598e+01	1.490100e+02
2.680000e-06	1.392527e-06	2.222759e-09	1.055038e+01	1.517046e+02
2.690000e-06	1.406240e-06	2.261411e-09	1.065427e+01	1.543819e+02
2.700000e-06	1.419846e-06	2.297783e-09	1.075736e+01	1.570413e+02
2.710000e-06	1.433306e-06	2.334002e-09	1.085934e+01	1.596827e+02
2.720000e-06	1.446592e-06	2.371104e-09	1.095999e+01	1.623058e+02
2.730000e-06	1.459743e-06	2.408017e-09	1.105964e+01	1.649109e+02
2.740000e-06	1.472816e-06	2.443334e-09	1.115868e+01	1.674979e+02
2.750000e-06	1.485810e-06	2.478604e-09	1.125713e+01	1.700668e+02
2.760000e-06	1.498717e-06	2.516151e-09	1.135492e+01	1.726171e+02
2.770000e-06	1.511510e-06	2.553722e-09	1.145185e+01	1.751484e+02
2.780000e-06	1.524205e-06	2.589145e-09	1.154803e+01	1.776598e+02
2.790000e-06	1.536815e-06	2.623902e-09	1.164357e+01	1.801504e+02
2.800000e-06	1.549325e-06	2.660582e-09	1.173834e+01	1.826192e+02
2.810000e-06	1.561723e-06	2.700085e-09	1.183228e+01	1.850653e+02
2.820000e-06	1.574017e-06	2.738277e-09	1.192542e+01	1.874877e+02
2.830000e-06	1.586229e-06	2.773740e-09	1.201795e+01	1.898859e+02
2.840000e-06	1.598360e-06	2.809929e-09	1.210986e+01	1.922592e+02
2.850000e-06	1.610373e-06	2.848100e-09	1.220087e+01	1.946074e+02
2.860000e-06	1.622222e-06	2.884885e-09	1.229065e+01	1.969301e+02
2.870000e-06	1.633892e-06	2.918015e-09	1.237906e+01	1.992270e+02
2.880000e-06	1.645414e-06	2.949927e-09	1.246636e+01	2.014977e+02
2.890000e-06	1.656829e-06	2.984956e-09	1.255284e+01	2.037416e+02
2.900000e-06	1.668157e-06	3.020212e-09	1.263867e+01	2.059579e+02
