# Temperatura_=_20.0
# Concentracion g/m^3_=_10000.0
# C_Vs_to_Am_M_A/Vsm_=_65563218390.804596
# pendiente_HvsI_1/m_=_3716.3
# ordenada_HvsI_A/m_=_1297.0
# frecuencia_Hz_=_135207.95975795193

Tiempo_(s)	Campo_(V.s)	Magnetizacion_(V.s)	Campo_(kA/m)	Magnetizacion_(A/m)
0.000000e+00	-2.127403e-06	-4.613949e-09	-1.613982e+01	-2.979842e+02
1.000000e-08	-2.127416e-06	-4.620059e-09	-1.613991e+01	-2.982575e+02
2.000000e-08	-2.127255e-06	-4.629659e-09	-1.613870e+01	-2.984987e+02
3.000000e-08	-2.126853e-06	-4.625816e-09	-1.613564e+01	-2.987052e+02
4.000000e-08	-2.126248e-06	-4.623746e-09	-1.613106e+01	-2.988758e+02
5.000000e-08	-2.125655e-06	-4.598363e-09	-1.612655e+01	-2.990104e+02
6.000000e-08	-2.125083e-06	-4.626007e-09	-1.612221e+01	-2.991101e+02
7.000000e-08	-2.124381e-06	-4.627440e-09	-1.611689e+01	-2.991770e+02
8.000000e-08	-2.123462e-06	-4.620371e-09	-1.610992e+01	-2.992140e+02
9.000000e-08	-2.122327e-06	-4.635899e-09	-1.610130e+01	-2.992241e+02
1.000000e-07	-2.120996e-06	-4.619439e-09	-1.609121e+01	-2.992100e+02
1.100000e-07	-2.119451e-06	-4.633137e-09	-1.607949e+01	-2.991742e+02
1.200000e-07	-2.117633e-06	-4.603913e-09	-1.606569e+01	-2.991185e+02
1.300000e-07	-2.115575e-06	-4.615494e-09	-1.605008e+01	-2.990439e+02
1.400000e-07	-2.113478e-06	-4.611263e-09	-1.603417e+01	-2.989508e+02
1.500000e-07	-2.111429e-06	-4.611608e-09	-1.601862e+01	-2.988393e+02
1.600000e-07	-2.109269e-06	-4.600090e-09	-1.600224e+01	-2.987091e+02
1.700000e-07	-2.106831e-06	-4.606026e-09	-1.598374e+01	-2.985604e+02
1.800000e-07	-2.104129e-06	-4.616324e-09	-1.596325e+01	-2.983933e+02
1.900000e-07	-2.101314e-06	-4.601563e-09	-1.594189e+01	-2.982090e+02
2.000000e-07	-2.098410e-06	-4.583684e-09	-1.591986e+01	-2.980088e+02
2.100000e-07	-2.095297e-06	-4.578659e-09	-1.589624e+01	-2.977950e+02
2.200000e-07	-2.091966e-06	-4.589922e-09	-1.587096e+01	-2.975698e+02
2.300000e-07	-2.088491e-06	-4.592172e-09	-1.584460e+01	-2.973355e+02
2.400000e-07	-2.084879e-06	-4.583350e-09	-1.581720e+01	-2.970941e+02
2.500000e-07	-2.081082e-06	-4.570772e-09	-1.578839e+01	-2.968467e+02
2.600000e-07	-2.077111e-06	-4.567228e-09	-1.575826e+01	-2.965937e+02
2.700000e-07	-2.073032e-06	-4.553863e-09	-1.572732e+01	-2.963340e+02
2.800000e-07	-2.068851e-06	-4.537488e-09	-1.569560e+01	-2.960656e+02
2.900000e-07	-2.064529e-06	-4.528495e-09	-1.566281e+01	-2.957855e+02
3.000000e-07	-2.060064e-06	-4.536292e-09	-1.562894e+01	-2.954902e+02
3.100000e-07	-2.055462e-06	-4.530563e-09	-1.559402e+01	-2.951760e+02
3.200000e-07	-2.050727e-06	-4.516855e-09	-1.555811e+01	-2.948395e+02
3.300000e-07	-2.045841e-06	-4.500070e-09	-1.552104e+01	-2.944783e+02
3.400000e-07	-2.040807e-06	-4.496611e-09	-1.548284e+01	-2.940910e+02
3.500000e-07	-2.035687e-06	-4.481405e-09	-1.544400e+01	-2.936779e+02
3.600000e-07	-2.030451e-06	-4.470114e-09	-1.540427e+01	-2.932404e+02
3.700000e-07	-2.025006e-06	-4.463131e-09	-1.536296e+01	-2.927814e+02
3.800000e-07	-2.019341e-06	-4.467366e-09	-1.531998e+01	-2.923046e+02
3.900000e-07	-2.013542e-06	-4.453695e-09	-1.527599e+01	-2.918143e+02
4.000000e-07	-2.007637e-06	-4.437545e-09	-1.523119e+01	-2.913145e+02
4.100000e-07	-2.001571e-06	-4.423736e-09	-1.518517e+01	-2.908086e+02
4.200000e-07	-1.995355e-06	-4.415987e-09	-1.513802e+01	-2.902990e+02
4.300000e-07	-1.989017e-06	-4.397082e-09	-1.508993e+01	-2.897864e+02
4.400000e-07	-1.982535e-06	-4.384407e-09	-1.504076e+01	-2.892702e+02
4.500000e-07	-1.975938e-06	-4.380214e-09	-1.499070e+01	-2.887483e+02
4.600000e-07	-1.969267e-06	-4.373810e-09	-1.494010e+01	-2.882175e+02
4.700000e-07	-1.962484e-06	-4.357723e-09	-1.488863e+01	-2.876737e+02
4.800000e-07	-1.955473e-06	-4.343779e-09	-1.483545e+01	-2.871126e+02
4.900000e-07	-1.948236e-06	-4.335367e-09	-1.478054e+01	-2.865302e+02
5.000000e-07	-1.940873e-06	-4.320579e-09	-1.472468e+01	-2.859234e+02
5.100000e-07	-1.933403e-06	-4.306526e-09	-1.466801e+01	-2.852899e+02
5.200000e-07	-1.925800e-06	-4.295341e-09	-1.461032e+01	-2.846289e+02
5.300000e-07	-1.918051e-06	-4.285017e-09	-1.455154e+01	-2.839410e+02
5.400000e-07	-1.910147e-06	-4.268917e-09	-1.449157e+01	-2.832277e+02
5.500000e-07	-1.902100e-06	-4.258455e-09	-1.443053e+01	-2.824915e+02
5.600000e-07	-1.893947e-06	-4.247721e-09	-1.436867e+01	-2.817356e+02
5.700000e-07	-1.885706e-06	-4.236193e-09	-1.430615e+01	-2.809629e+02
5.800000e-07	-1.877339e-06	-4.219987e-09	-1.424267e+01	-2.801765e+02
5.900000e-07	-1.868782e-06	-4.205479e-09	-1.417775e+01	-2.793787e+02
6.000000e-07	-1.860034e-06	-4.185381e-09	-1.411138e+01	-2.785713e+02
6.100000e-07	-1.851138e-06	-4.166529e-09	-1.404390e+01	-2.777551e+02
6.200000e-07	-1.842132e-06	-4.151460e-09	-1.397557e+01	-2.769306e+02
6.300000e-07	-1.833010e-06	-4.141744e-09	-1.390636e+01	-2.760974e+02
6.400000e-07	-1.823765e-06	-4.129714e-09	-1.383623e+01	-2.752551e+02
6.500000e-07	-1.814405e-06	-4.115081e-09	-1.376521e+01	-2.744029e+02
6.600000e-07	-1.804915e-06	-4.099796e-09	-1.369322e+01	-2.735402e+02
6.700000e-07	-1.795281e-06	-4.086238e-09	-1.362013e+01	-2.726666e+02
6.800000e-07	-1.785523e-06	-4.071535e-09	-1.354610e+01	-2.717817e+02
6.900000e-07	-1.775662e-06	-4.054165e-09	-1.347129e+01	-2.708853e+02
7.000000e-07	-1.765671e-06	-4.036866e-09	-1.339549e+01	-2.699772e+02
7.100000e-07	-1.755476e-06	-4.020645e-09	-1.331814e+01	-2.690571e+02
7.200000e-07	-1.745058e-06	-4.007526e-09	-1.323910e+01	-2.681245e+02
7.300000e-07	-1.734489e-06	-3.993179e-09	-1.315892e+01	-2.671783e+02
7.400000e-07	-1.723815e-06	-3.977734e-09	-1.307794e+01	-2.662176e+02
7.500000e-07	-1.713026e-06	-3.962762e-09	-1.299609e+01	-2.652410e+02
7.600000e-07	-1.702103e-06	-3.951185e-09	-1.291322e+01	-2.642469e+02
7.700000e-07	-1.691053e-06	-3.935845e-09	-1.282939e+01	-2.632342e+02
7.800000e-07	-1.679883e-06	-3.915386e-09	-1.274464e+01	-2.622019e+02
7.900000e-07	-1.668600e-06	-3.892101e-09	-1.265904e+01	-2.611498e+02
8.000000e-07	-1.657227e-06	-3.872162e-09	-1.257276e+01	-2.600784e+02
8.100000e-07	-1.645766e-06	-3.854974e-09	-1.248581e+01	-2.589891e+02
8.200000e-07	-1.634174e-06	-3.838629e-09	-1.239787e+01	-2.578838e+02
8.300000e-07	-1.622418e-06	-3.821165e-09	-1.230868e+01	-2.567654e+02
8.400000e-07	-1.610498e-06	-3.805141e-09	-1.221825e+01	-2.556368e+02
8.500000e-07	-1.598426e-06	-3.789547e-09	-1.212667e+01	-2.545010e+02
8.600000e-07	-1.586250e-06	-3.772312e-09	-1.203429e+01	-2.533604e+02
8.700000e-07	-1.574013e-06	-3.753727e-09	-1.194145e+01	-2.522167e+02
8.800000e-07	-1.561692e-06	-3.734399e-09	-1.184798e+01	-2.510707e+02
8.900000e-07	-1.549263e-06	-3.713354e-09	-1.175368e+01	-2.499219e+02
9.000000e-07	-1.536725e-06	-3.691581e-09	-1.165856e+01	-2.487685e+02
9.100000e-07	-1.524085e-06	-3.669555e-09	-1.156267e+01	-2.476079e+02
9.200000e-07	-1.511337e-06	-3.648609e-09	-1.146595e+01	-2.464365e+02
9.300000e-07	-1.498475e-06	-3.631447e-09	-1.136838e+01	-2.452505e+02
9.400000e-07	-1.485512e-06	-3.615439e-09	-1.127003e+01	-2.440461e+02
9.500000e-07	-1.472479e-06	-3.598712e-09	-1.117115e+01	-2.428200e+02
9.600000e-07	-1.459366e-06	-3.579556e-09	-1.107167e+01	-2.415696e+02
9.700000e-07	-1.446125e-06	-3.560403e-09	-1.097121e+01	-2.402935e+02
9.800000e-07	-1.432717e-06	-3.539713e-09	-1.086949e+01	-2.389915e+02
9.900000e-07	-1.419154e-06	-3.514488e-09	-1.076660e+01	-2.376647e+02
1.000000e-06	-1.405488e-06	-3.488646e-09	-1.066292e+01	-2.363150e+02
1.010000e-06	-1.391743e-06	-3.465773e-09	-1.055863e+01	-2.349453e+02
1.020000e-06	-1.377939e-06	-3.447116e-09	-1.045391e+01	-2.335589e+02
1.030000e-06	-1.364086e-06	-3.430638e-09	-1.034882e+01	-2.321592e+02
1.040000e-06	-1.350145e-06	-3.412979e-09	-1.024304e+01	-2.307491e+02
1.050000e-06	-1.336095e-06	-3.392328e-09	-1.013645e+01	-2.293312e+02
1.060000e-06	-1.321957e-06	-3.369021e-09	-1.002919e+01	-2.279073e+02
1.070000e-06	-1.307734e-06	-3.345488e-09	-9.921289e+00	-2.264782e+02
1.080000e-06	-1.293411e-06	-3.320377e-09	-9.812628e+00	-2.250440e+02
1.090000e-06	-1.278965e-06	-3.294174e-09	-9.703034e+00	-2.236040e+02
1.100000e-06	-1.264419e-06	-3.268743e-09	-9.592677e+00	-2.221569e+02
1.110000e-06	-1.249817e-06	-3.246137e-09	-9.481899e+00	-2.207010e+02
1.120000e-06	-1.235168e-06	-3.225736e-09	-9.370761e+00	-2.192344e+02
1.130000e-06	-1.220449e-06	-3.205207e-09	-9.259089e+00	-2.177552e+02
1.140000e-06	-1.205618e-06	-3.184301e-09	-9.146575e+00	-2.162618e+02
1.150000e-06	-1.190659e-06	-3.161136e-09	-9.033088e+00	-2.147526e+02
1.160000e-06	-1.175566e-06	-3.137657e-09	-8.918585e+00	-2.132265e+02
1.170000e-06	-1.160333e-06	-3.114962e-09	-8.803018e+00	-2.116829e+02
1.180000e-06	-1.144990e-06	-3.091171e-09	-8.686611e+00	-2.101214e+02
1.190000e-06	-1.129588e-06	-3.068118e-09	-8.569764e+00	-2.085420e+02
1.200000e-06	-1.114124e-06	-3.046141e-09	-8.452447e+00	-2.069451e+02
1.210000e-06	-1.098562e-06	-3.022687e-09	-8.334383e+00	-2.053314e+02
1.220000e-06	-1.082906e-06	-2.995406e-09	-8.215604e+00	-2.037018e+02
1.230000e-06	-1.067178e-06	-2.968487e-09	-8.096283e+00	-2.020577e+02
1.240000e-06	-1.051386e-06	-2.944343e-09	-7.976472e+00	-2.004003e+02
1.250000e-06	-1.035532e-06	-2.919995e-09	-7.856199e+00	-1.987311e+02
1.260000e-06	-1.019597e-06	-2.895720e-09	-7.735300e+00	-1.970517e+02
1.270000e-06	-1.003518e-06	-2.873393e-09	-7.613315e+00	-1.953635e+02
1.280000e-06	-9.873321e-07	-2.851323e-09	-7.490521e+00	-1.936676e+02
1.290000e-06	-9.710701e-07	-2.827850e-09	-7.367147e+00	-1.919649e+02
1.300000e-06	-9.547218e-07	-2.802691e-09	-7.243119e+00	-1.902558e+02
1.310000e-06	-9.383199e-07	-2.778201e-09	-7.118684e+00	-1.885402e+02
1.320000e-06	-9.218632e-07	-2.755885e-09	-6.993833e+00	-1.868177e+02
1.330000e-06	-9.053578e-07	-2.733956e-09	-6.868613e+00	-1.850871e+02
1.340000e-06	-8.888099e-07	-2.708946e-09	-6.743070e+00	-1.833473e+02
1.350000e-06	-8.722133e-07	-2.679743e-09	-6.617157e+00	-1.815969e+02
1.360000e-06	-8.555511e-07	-2.651863e-09	-6.490748e+00	-1.798346e+02
1.370000e-06	-8.388049e-07	-2.626216e-09	-6.363700e+00	-1.780594e+02
1.380000e-06	-8.219814e-07	-2.600069e-09	-6.236067e+00	-1.762709e+02
1.390000e-06	-8.051007e-07	-2.573268e-09	-6.107999e+00	-1.744691e+02
1.400000e-06	-7.881699e-07	-2.547956e-09	-5.979552e+00	-1.726550e+02
1.410000e-06	-7.711982e-07	-2.524030e-09	-5.850793e+00	-1.708302e+02
1.420000e-06	-7.542008e-07	-2.500039e-09	-5.721840e+00	-1.689967e+02
1.430000e-06	-7.371933e-07	-2.474447e-09	-5.592811e+00	-1.671569e+02
1.440000e-06	-7.201740e-07	-2.446125e-09	-5.463692e+00	-1.653131e+02
1.450000e-06	-7.031243e-07	-2.415615e-09	-5.334343e+00	-1.634675e+02
1.460000e-06	-6.860270e-07	-2.387020e-09	-5.204631e+00	-1.616216e+02
1.470000e-06	-6.688594e-07	-2.359257e-09	-5.074387e+00	-1.597760e+02
1.480000e-06	-6.516204e-07	-2.330673e-09	-4.943601e+00	-1.579302e+02
1.490000e-06	-6.343257e-07	-2.301716e-09	-4.812393e+00	-1.560828e+02
1.500000e-06	-6.169897e-07	-2.273283e-09	-4.680871e+00	-1.542313e+02
1.510000e-06	-5.996151e-07	-2.244290e-09	-4.549057e+00	-1.523721e+02
1.520000e-06	-5.822064e-07	-2.212967e-09	-4.416984e+00	-1.505013e+02
1.530000e-06	-5.647696e-07	-2.184597e-09	-4.284696e+00	-1.486147e+02
1.540000e-06	-5.472957e-07	-2.159064e-09	-4.152129e+00	-1.467082e+02
1.550000e-06	-5.297896e-07	-2.132398e-09	-4.019316e+00	-1.447780e+02
1.560000e-06	-5.122651e-07	-2.100068e-09	-3.886365e+00	-1.428214e+02
1.570000e-06	-4.947062e-07	-2.066046e-09	-3.753152e+00	-1.408363e+02
1.580000e-06	-4.770839e-07	-2.034754e-09	-3.619458e+00	-1.388221e+02
1.590000e-06	-4.594118e-07	-2.005085e-09	-3.485387e+00	-1.367790e+02
1.600000e-06	-4.417004e-07	-1.973632e-09	-3.351016e+00	-1.347085e+02
1.610000e-06	-4.239643e-07	-1.941068e-09	-3.216459e+00	-1.326128e+02
1.620000e-06	-4.062184e-07	-1.910709e-09	-3.081828e+00	-1.304947e+02
1.630000e-06	-3.884553e-07	-1.881546e-09	-2.947066e+00	-1.283577e+02
1.640000e-06	-3.706754e-07	-1.848824e-09	-2.812176e+00	-1.262052e+02
1.650000e-06	-3.528779e-07	-1.813003e-09	-2.677153e+00	-1.240406e+02
1.660000e-06	-3.350723e-07	-1.779138e-09	-2.542069e+00	-1.218672e+02
1.670000e-06	-3.172650e-07	-1.746849e-09	-2.406972e+00	-1.196875e+02
1.680000e-06	-2.994491e-07	-1.714359e-09	-2.271809e+00	-1.175039e+02
1.690000e-06	-2.816279e-07	-1.679639e-09	-2.136606e+00	-1.153179e+02
1.700000e-06	-2.638052e-07	-1.646140e-09	-2.001392e+00	-1.131302e+02
1.710000e-06	-2.459699e-07	-1.615611e-09	-1.866082e+00	-1.109411e+02
1.720000e-06	-2.281180e-07	-1.583866e-09	-1.730646e+00	-1.087498e+02
1.730000e-06	-2.102499e-07	-1.546350e-09	-1.595088e+00	-1.065551e+02
1.740000e-06	-1.923706e-07	-1.507050e-09	-1.459444e+00	-1.043550e+02
1.750000e-06	-1.744882e-07	-1.473420e-09	-1.323777e+00	-1.021470e+02
1.760000e-06	-1.565893e-07	-1.445413e-09	-1.187985e+00	-9.992814e+01
1.770000e-06	-1.386642e-07	-1.417080e-09	-1.051993e+00	-9.769521e+01
1.780000e-06	-1.207023e-07	-1.384801e-09	-9.157236e-01	-9.544503e+01
1.790000e-06	-1.027354e-07	-1.348898e-09	-7.794155e-01	-9.317466e+01
1.800000e-06	-8.480290e-08	-1.311828e-09	-6.433680e-01	-9.088161e+01
1.810000e-06	-6.686261e-08	-1.273332e-09	-5.072617e-01	-8.856411e+01
1.820000e-06	-4.891173e-08	-1.233771e-09	-3.710751e-01	-8.622125e+01
1.830000e-06	-3.098332e-08	-1.198770e-09	-2.350589e-01	-8.385311e+01
1.840000e-06	-1.304117e-08	-1.170541e-09	-9.893854e-02	-8.146072e+01
1.850000e-06	4.942291e-09	-1.143614e-09	3.749532e-02	-7.904602e+01
1.860000e-06	2.290645e-08	-1.112246e-09	1.737827e-01	-7.661157e+01
1.870000e-06	4.085119e-08	-1.076632e-09	3.099227e-01	-7.416033e+01
1.880000e-06	5.880901e-08	-1.038483e-09	4.461621e-01	-7.169530e+01
1.890000e-06	7.674808e-08	-9.988713e-10	5.822591e-01	-6.921918e+01
1.900000e-06	9.468059e-08	-9.582617e-10	7.183064e-01	-6.673409e+01
1.910000e-06	1.126103e-07	-9.184360e-10	8.543324e-01	-6.424129e+01
1.920000e-06	1.305110e-07	-8.833697e-10	9.901387e-01	-6.174113e+01
1.930000e-06	1.483957e-07	-8.516698e-10	1.125823e+00	-5.923303e+01
1.940000e-06	1.662826e-07	-8.203948e-10	1.261524e+00	-5.671565e+01
1.950000e-06	1.841578e-07	-7.863175e-10	1.397137e+00	-5.418711e+01
1.960000e-06	2.020273e-07	-7.478507e-10	1.532706e+00	-5.164537e+01
1.970000e-06	2.198944e-07	-7.086853e-10	1.668257e+00	-4.908854e+01
1.980000e-06	2.377438e-07	-6.689424e-10	1.803674e+00	-4.651526e+01
1.990000e-06	2.555799e-07	-6.283641e-10	1.938989e+00	-4.392489e+01
2.000000e-06	2.734073e-07	-5.891479e-10	2.074239e+00	-4.131768e+01
2.010000e-06	2.912282e-07	-5.527542e-10	2.209440e+00	-3.869480e+01
2.020000e-06	3.090364e-07	-5.175624e-10	2.344544e+00	-3.605812e+01
2.030000e-06	3.268355e-07	-4.812893e-10	2.479580e+00	-3.341002e+01
2.040000e-06	3.446322e-07	-4.434144e-10	2.614596e+00	-3.075306e+01
2.050000e-06	3.624206e-07	-4.042294e-10	2.749550e+00	-2.808956e+01
2.060000e-06	3.801931e-07	-3.624994e-10	2.884384e+00	-2.542133e+01
2.070000e-06	3.979562e-07	-3.213576e-10	3.019145e+00	-2.274939e+01
2.080000e-06	4.157021e-07	-2.842840e-10	3.153777e+00	-2.007388e+01
2.090000e-06	4.334204e-07	-2.489488e-10	3.288199e+00	-1.739403e+01
2.100000e-06	4.510921e-07	-2.132971e-10	3.422268e+00	-1.470838e+01
2.110000e-06	4.687082e-07	-1.738935e-10	3.555914e+00	-1.201502e+01
2.120000e-06	4.863118e-07	-1.320677e-10	3.689466e+00	-9.311966e+00
2.130000e-06	5.038935e-07	-9.163640e-11	3.822853e+00	-6.597484e+00
2.140000e-06	5.214237e-07	-5.089504e-11	3.955848e+00	-3.870449e+00
2.150000e-06	5.389159e-07	-1.000348e-11	4.088554e+00	-1.130541e+00
2.160000e-06	5.563747e-07	2.939876e-11	4.221008e+00	1.621664e+00
2.170000e-06	5.737937e-07	6.810425e-11	4.353159e+00	4.384775e+00
2.180000e-06	5.911810e-07	1.084412e-10	4.485070e+00	7.156800e+00
2.190000e-06	6.085351e-07	1.498616e-10	4.616729e+00	9.935482e+00
2.200000e-06	6.258333e-07	1.897661e-10	4.747965e+00	1.271870e+01
2.210000e-06	6.430776e-07	2.296038e-10	4.878791e+00	1.550485e+01
2.220000e-06	6.602674e-07	2.730688e-10	5.009203e+00	1.829319e+01
2.230000e-06	6.773937e-07	3.184167e-10	5.139134e+00	2.108405e+01
2.240000e-06	6.944771e-07	3.621049e-10	5.268739e+00	2.387887e+01
2.250000e-06	7.115322e-07	4.008129e-10	5.398130e+00	2.668007e+01
2.260000e-06	7.285564e-07	4.375487e-10	5.527286e+00	2.949074e+01
2.270000e-06	7.455604e-07	4.786414e-10	5.656289e+00	3.231428e+01
2.280000e-06	7.625469e-07	5.222327e-10	5.785159e+00	3.515384e+01
2.290000e-06	7.794994e-07	5.659463e-10	5.913772e+00	3.801192e+01
2.300000e-06	7.963940e-07	6.110849e-10	6.041945e+00	4.088986e+01
2.310000e-06	8.132220e-07	6.573036e-10	6.169612e+00	4.378767e+01
2.320000e-06	8.299927e-07	7.020912e-10	6.296846e+00	4.670386e+01
2.330000e-06	8.466870e-07	7.458821e-10	6.423499e+00	4.963554e+01
2.340000e-06	8.633054e-07	7.862469e-10	6.549576e+00	5.257872e+01
2.350000e-06	8.798534e-07	8.256442e-10	6.675120e+00	5.552872e+01
2.360000e-06	8.963296e-07	8.675419e-10	6.800119e+00	5.848064e+01
2.370000e-06	9.127659e-07	9.110290e-10	6.924815e+00	6.142990e+01
2.380000e-06	9.291499e-07	9.547534e-10	7.049115e+00	6.437270e+01
2.390000e-06	9.454781e-07	9.980559e-10	7.172990e+00	6.730633e+01
2.400000e-06	9.617493e-07	1.041196e-09	7.296434e+00	7.022938e+01
2.410000e-06	9.779351e-07	1.082930e-09	7.419230e+00	7.314172e+01
2.420000e-06	9.940331e-07	1.123212e-09	7.541359e+00	7.604432e+01
2.430000e-06	1.010037e-06	1.166340e-09	7.662774e+00	7.893897e+01
2.440000e-06	1.025940e-06	1.212610e-09	7.783425e+00	8.182783e+01
2.450000e-06	1.041770e-06	1.257316e-09	7.903523e+00	8.471306e+01
2.460000e-06	1.057551e-06	1.300989e-09	8.023248e+00	8.759643e+01
2.470000e-06	1.073261e-06	1.343541e-09	8.142429e+00	9.047903e+01
2.480000e-06	1.088878e-06	1.384937e-09	8.260911e+00	9.336113e+01
2.490000e-06	1.104407e-06	1.424931e-09	8.378728e+00	9.624217e+01
2.500000e-06	1.119872e-06	1.464314e-09	8.496054e+00	9.912091e+01
2.510000e-06	1.135279e-06	1.505056e-09	8.612936e+00	1.019957e+02
2.520000e-06	1.150617e-06	1.546968e-09	8.729300e+00	1.048647e+02
2.530000e-06	1.165874e-06	1.588052e-09	8.845049e+00	1.077264e+02
2.540000e-06	1.180991e-06	1.627745e-09	8.959742e+00	1.105794e+02
2.550000e-06	1.195936e-06	1.667598e-09	9.073125e+00	1.134233e+02
2.560000e-06	1.210742e-06	1.709376e-09	9.185450e+00	1.162581e+02
2.570000e-06	1.225437e-06	1.750782e-09	9.296933e+00	1.190844e+02
2.580000e-06	1.240061e-06	1.790739e-09	9.407884e+00	1.219034e+02
2.590000e-06	1.254642e-06	1.830805e-09	9.518504e+00	1.247161e+02
2.600000e-06	1.269156e-06	1.870997e-09	9.628613e+00	1.275236e+02
2.610000e-06	1.283572e-06	1.911247e-09	9.737980e+00	1.303265e+02
2.620000e-06	1.297885e-06	1.951256e-09	9.846574e+00	1.331247e+02
2.630000e-06	1.312105e-06	1.992872e-09	9.954449e+00	1.359173e+02
2.640000e-06	1.326237e-06	2.037675e-09	1.006167e+01	1.387028e+02
2.650000e-06	1.340281e-06	2.081625e-09	1.016821e+01	1.414789e+02
2.660000e-06	1.354232e-06	2.119712e-09	1.027405e+01	1.442430e+02
2.670000e-06	1.368096e-06	2.155411e-09	1.037923e+01	1.469924e+02
2.680000e-06	1.381897e-06	2.193407e-09	1.048394e+01	1.497242e+02
2.690000e-06	1.395645e-06	2.232176e-09	1.058824e+01	1.524364e+02
2.700000e-06	1.409310e-06	2.269017e-09	1.069191e+01	1.551272e+02
2.710000e-06	1.422826e-06	2.305588e-09	1.079445e+01	1.577957e+02
2.720000e-06	1.436168e-06	2.343914e-09	1.089567e+01	1.604416e+02
2.730000e-06	1.449370e-06	2.382956e-09	1.099583e+01	1.630651e+02
2.740000e-06	1.462469e-06	2.421515e-09	1.109520e+01	1.656671e+02
2.750000e-06	1.475498e-06	2.458962e-09	1.119405e+01	1.682483e+02
2.760000e-06	1.488458e-06	2.496268e-09	1.129237e+01	1.708096e+02
2.770000e-06	1.501317e-06	2.533169e-09	1.138993e+01	1.733515e+02
2.780000e-06	1.514049e-06	2.568235e-09	1.148653e+01	1.758742e+02
2.790000e-06	1.526685e-06	2.602239e-09	1.158239e+01	1.783775e+02
2.800000e-06	1.539251e-06	2.636411e-09	1.167773e+01	1.808605e+02
2.810000e-06	1.551725e-06	2.671643e-09	1.177236e+01	1.833222e+02
2.820000e-06	1.564077e-06	2.707985e-09	1.186607e+01	1.857615e+02
2.830000e-06	1.576326e-06	2.745587e-09	1.195900e+01	1.881770e+02
2.840000e-06	1.588505e-06	2.782400e-09	1.205140e+01	1.905678e+02
2.850000e-06	1.600595e-06	2.817115e-09	1.214312e+01	1.929331e+02
2.860000e-06	1.612548e-06	2.850219e-09	1.223380e+01	1.952724e+02
2.870000e-06	1.624333e-06	2.883634e-09	1.232321e+01	1.975857e+02
2.880000e-06	1.635935e-06	2.917430e-09	1.241123e+01	1.998732e+02
2.890000e-06	1.647386e-06	2.952193e-09	1.249810e+01	2.021352e+02
2.900000e-06	1.658765e-06	2.988541e-09	1.258443e+01	2.043722e+02
