# Temperatura_=_20.0
# Concentracion g/m^3_=_10000.0
# C_Vs_to_Am_M_A/Vsm_=_65563218390.804596
# pendiente_HvsI_1/m_=_3716.3
# ordenada_HvsI_A/m_=_1297.0
# frecuencia_Hz_=_135206.0879003811

Tiempo_(s)	Campo_(V.s)	Magnetizacion_(V.s)	Campo_(kA/m)	Magnetizacion_(A/m)
0.000000e+00	-2.130117e-06	-4.619106e-09	-1.614023e+01	-2.983048e+02
1.000000e-08	-2.130129e-06	-4.617231e-09	-1.614032e+01	-2.985567e+02
2.000000e-08	-2.129936e-06	-4.618067e-09	-1.613886e+01	-2.987856e+02
3.000000e-08	-2.129498e-06	-4.612005e-09	-1.613554e+01	-2.989877e+02
4.000000e-08	-2.128866e-06	-4.624372e-09	-1.613075e+01	-2.991597e+02
5.000000e-08	-2.128249e-06	-4.623182e-09	-1.612608e+01	-2.992992e+02
6.000000e-08	-2.127691e-06	-4.663971e-09	-1.612185e+01	-2.994052e+02
7.000000e-08	-2.126999e-06	-4.638638e-09	-1.611661e+01	-2.994778e+02
8.000000e-08	-2.126058e-06	-4.626865e-09	-1.610948e+01	-2.995191e+02
9.000000e-08	-2.124897e-06	-4.635194e-09	-1.610068e+01	-2.995320e+02
1.000000e-07	-2.123552e-06	-4.619557e-09	-1.609049e+01	-2.995206e+02
1.100000e-07	-2.122008e-06	-4.630666e-09	-1.607879e+01	-2.994891e+02
1.200000e-07	-2.120185e-06	-4.607413e-09	-1.606497e+01	-2.994414e+02
1.300000e-07	-2.118094e-06	-4.634927e-09	-1.604913e+01	-2.993808e+02
1.400000e-07	-2.115955e-06	-4.621622e-09	-1.603292e+01	-2.993094e+02
1.500000e-07	-2.113887e-06	-4.622567e-09	-1.601726e+01	-2.992279e+02
1.600000e-07	-2.111742e-06	-4.608995e-09	-1.600100e+01	-2.991359e+02
1.700000e-07	-2.109310e-06	-4.611811e-09	-1.598257e+01	-2.990316e+02
1.800000e-07	-2.106606e-06	-4.603821e-09	-1.596209e+01	-2.989129e+02
1.900000e-07	-2.103794e-06	-4.596074e-09	-1.594078e+01	-2.987771e+02
2.000000e-07	-2.100884e-06	-4.588023e-09	-1.591873e+01	-2.986222e+02
2.100000e-07	-2.097763e-06	-4.589437e-09	-1.589508e+01	-2.984464e+02
2.200000e-07	-2.094415e-06	-4.594326e-09	-1.586971e+01	-2.982492e+02
2.300000e-07	-2.090912e-06	-4.588387e-09	-1.584317e+01	-2.980310e+02
2.400000e-07	-2.087285e-06	-4.574859e-09	-1.581569e+01	-2.977930e+02
2.500000e-07	-2.083482e-06	-4.565588e-09	-1.578687e+01	-2.975373e+02
2.600000e-07	-2.079480e-06	-4.562101e-09	-1.575655e+01	-2.972660e+02
2.700000e-07	-2.075390e-06	-4.551094e-09	-1.572556e+01	-2.969809e+02
2.800000e-07	-2.071225e-06	-4.541201e-09	-1.569400e+01	-2.966833e+02
2.900000e-07	-2.066905e-06	-4.533747e-09	-1.566127e+01	-2.963736e+02
3.000000e-07	-2.062425e-06	-4.535686e-09	-1.562732e+01	-2.960511e+02
3.100000e-07	-2.057833e-06	-4.523118e-09	-1.559252e+01	-2.957142e+02
3.200000e-07	-2.053105e-06	-4.511044e-09	-1.555670e+01	-2.953605e+02
3.300000e-07	-2.048200e-06	-4.494262e-09	-1.551953e+01	-2.949874e+02
3.400000e-07	-2.043170e-06	-4.490745e-09	-1.548142e+01	-2.945927e+02
3.500000e-07	-2.038082e-06	-4.480230e-09	-1.544287e+01	-2.941746e+02
3.600000e-07	-2.032878e-06	-4.481285e-09	-1.540344e+01	-2.937329e+02
3.700000e-07	-2.027444e-06	-4.474796e-09	-1.536226e+01	-2.932683e+02
3.800000e-07	-2.021770e-06	-4.470945e-09	-1.531927e+01	-2.927832e+02
3.900000e-07	-2.015953e-06	-4.454071e-09	-1.527519e+01	-2.922812e+02
4.000000e-07	-2.010025e-06	-4.443492e-09	-1.523028e+01	-2.917667e+02
4.100000e-07	-2.003945e-06	-4.426850e-09	-1.518421e+01	-2.912441e+02
4.200000e-07	-1.997717e-06	-4.412686e-09	-1.513702e+01	-2.907178e+02
4.300000e-07	-1.991366e-06	-4.398407e-09	-1.508889e+01	-2.901911e+02
4.400000e-07	-1.984881e-06	-4.398643e-09	-1.503975e+01	-2.896658e+02
4.500000e-07	-1.978275e-06	-4.397380e-09	-1.498970e+01	-2.891422e+02
4.600000e-07	-1.971586e-06	-4.387610e-09	-1.493902e+01	-2.886185e+02
4.700000e-07	-1.964772e-06	-4.371353e-09	-1.488739e+01	-2.880916e+02
4.800000e-07	-1.957743e-06	-4.355802e-09	-1.483413e+01	-2.875570e+02
4.900000e-07	-1.950483e-06	-4.337977e-09	-1.477912e+01	-2.870097e+02
5.000000e-07	-1.943095e-06	-4.318152e-09	-1.472313e+01	-2.864443e+02
5.100000e-07	-1.935626e-06	-4.309554e-09	-1.466654e+01	-2.858563e+02
5.200000e-07	-1.928013e-06	-4.306997e-09	-1.460886e+01	-2.852421e+02
5.300000e-07	-1.920257e-06	-4.301797e-09	-1.455009e+01	-2.845994e+02
5.400000e-07	-1.912383e-06	-4.288655e-09	-1.449043e+01	-2.839272e+02
5.500000e-07	-1.904364e-06	-4.278095e-09	-1.442966e+01	-2.832263e+02
5.600000e-07	-1.896204e-06	-4.262026e-09	-1.436783e+01	-2.824983e+02
5.700000e-07	-1.887951e-06	-4.245774e-09	-1.430530e+01	-2.817457e+02
5.800000e-07	-1.879582e-06	-4.230186e-09	-1.424189e+01	-2.809711e+02
5.900000e-07	-1.871024e-06	-4.218546e-09	-1.417704e+01	-2.801772e+02
6.000000e-07	-1.862280e-06	-4.201933e-09	-1.411079e+01	-2.793664e+02
6.100000e-07	-1.853383e-06	-4.187664e-09	-1.404337e+01	-2.785403e+02
6.200000e-07	-1.844357e-06	-4.176041e-09	-1.397498e+01	-2.777002e+02
6.300000e-07	-1.835225e-06	-4.163030e-09	-1.390579e+01	-2.768465e+02
6.400000e-07	-1.825983e-06	-4.144747e-09	-1.383576e+01	-2.759798e+02
6.500000e-07	-1.816616e-06	-4.129704e-09	-1.376479e+01	-2.751005e+02
6.600000e-07	-1.807121e-06	-4.116840e-09	-1.369284e+01	-2.742093e+02
6.700000e-07	-1.797473e-06	-4.101140e-09	-1.361974e+01	-2.733070e+02
6.800000e-07	-1.787700e-06	-4.082163e-09	-1.354568e+01	-2.723953e+02
6.900000e-07	-1.777836e-06	-4.065590e-09	-1.347095e+01	-2.714758e+02
7.000000e-07	-1.767820e-06	-4.053100e-09	-1.339505e+01	-2.705504e+02
7.100000e-07	-1.757610e-06	-4.039853e-09	-1.331769e+01	-2.696205e+02
7.200000e-07	-1.747204e-06	-4.026511e-09	-1.323884e+01	-2.686872e+02
7.300000e-07	-1.736627e-06	-4.012272e-09	-1.315869e+01	-2.677502e+02
7.400000e-07	-1.725923e-06	-3.997436e-09	-1.307759e+01	-2.668085e+02
7.500000e-07	-1.715100e-06	-3.981483e-09	-1.299558e+01	-2.658597e+02
7.600000e-07	-1.704145e-06	-3.964060e-09	-1.291258e+01	-2.649005e+02
7.700000e-07	-1.693065e-06	-3.945871e-09	-1.282862e+01	-2.639267e+02
7.800000e-07	-1.681870e-06	-3.929463e-09	-1.274379e+01	-2.629342e+02
7.900000e-07	-1.670566e-06	-3.912393e-09	-1.265814e+01	-2.619191e+02
8.000000e-07	-1.659172e-06	-3.894700e-09	-1.257181e+01	-2.608783e+02
8.100000e-07	-1.647697e-06	-3.876396e-09	-1.248486e+01	-2.598104e+02
8.200000e-07	-1.636106e-06	-3.859472e-09	-1.239703e+01	-2.587153e+02
8.300000e-07	-1.624362e-06	-3.843179e-09	-1.230805e+01	-2.575952e+02
8.400000e-07	-1.612439e-06	-3.825218e-09	-1.221770e+01	-2.564533e+02
8.500000e-07	-1.600354e-06	-3.804920e-09	-1.212614e+01	-2.552944e+02
8.600000e-07	-1.588168e-06	-3.783522e-09	-1.203380e+01	-2.541237e+02
8.700000e-07	-1.575909e-06	-3.763229e-09	-1.194091e+01	-2.529463e+02
8.800000e-07	-1.563570e-06	-3.743460e-09	-1.184741e+01	-2.517665e+02
8.900000e-07	-1.551135e-06	-3.722646e-09	-1.175319e+01	-2.505873e+02
9.000000e-07	-1.538590e-06	-3.702207e-09	-1.165814e+01	-2.494097e+02
9.100000e-07	-1.525923e-06	-3.684344e-09	-1.156216e+01	-2.482327e+02
9.200000e-07	-1.513135e-06	-3.669233e-09	-1.146526e+01	-2.470536e+02
9.300000e-07	-1.500239e-06	-3.652906e-09	-1.136755e+01	-2.458680e+02
9.400000e-07	-1.487263e-06	-3.630962e-09	-1.126922e+01	-2.446704e+02
9.500000e-07	-1.474217e-06	-3.606818e-09	-1.117038e+01	-2.434552e+02
9.600000e-07	-1.461090e-06	-3.583798e-09	-1.107091e+01	-2.422173e+02
9.700000e-07	-1.447844e-06	-3.562773e-09	-1.097055e+01	-2.409524e+02
9.800000e-07	-1.434452e-06	-3.542960e-09	-1.086907e+01	-2.396578e+02
9.900000e-07	-1.420907e-06	-3.521910e-09	-1.076643e+01	-2.383328e+02
1.000000e-06	-1.407225e-06	-3.502182e-09	-1.066277e+01	-2.369783e+02
1.010000e-06	-1.393451e-06	-3.482789e-09	-1.055840e+01	-2.355968e+02
1.020000e-06	-1.379619e-06	-3.463422e-09	-1.045359e+01	-2.341919e+02
1.030000e-06	-1.365713e-06	-3.442075e-09	-1.034822e+01	-2.327679e+02
1.040000e-06	-1.351724e-06	-3.419752e-09	-1.024223e+01	-2.313289e+02
1.050000e-06	-1.337650e-06	-3.397686e-09	-1.013558e+01	-2.298787e+02
1.060000e-06	-1.323482e-06	-3.374576e-09	-1.002823e+01	-2.284200e+02
1.070000e-06	-1.309220e-06	-3.349359e-09	-9.920168e+00	-2.269545e+02
1.080000e-06	-1.294857e-06	-3.323354e-09	-9.811337e+00	-2.254825e+02
1.090000e-06	-1.280394e-06	-3.300739e-09	-9.701744e+00	-2.240036e+02
1.100000e-06	-1.265848e-06	-3.278959e-09	-9.591532e+00	-2.225165e+02
1.110000e-06	-1.251248e-06	-3.254805e-09	-9.480901e+00	-2.210196e+02
1.120000e-06	-1.236585e-06	-3.230044e-09	-9.369799e+00	-2.195115e+02
1.130000e-06	-1.221828e-06	-3.208483e-09	-9.257980e+00	-2.179910e+02
1.140000e-06	-1.206969e-06	-3.188391e-09	-9.145393e+00	-2.164579e+02
1.150000e-06	-1.191999e-06	-3.164137e-09	-9.031968e+00	-2.149123e+02
1.160000e-06	-1.176876e-06	-3.137839e-09	-8.917374e+00	-2.133553e+02
1.170000e-06	-1.161613e-06	-3.112248e-09	-8.801727e+00	-2.117881e+02
1.180000e-06	-1.146261e-06	-3.088238e-09	-8.685404e+00	-2.102123e+02
1.190000e-06	-1.130838e-06	-3.065214e-09	-8.568538e+00	-2.086293e+02
1.200000e-06	-1.115334e-06	-3.042000e-09	-8.451062e+00	-2.070400e+02
1.210000e-06	-1.099746e-06	-3.019900e-09	-8.332950e+00	-2.054450e+02
1.220000e-06	-1.084085e-06	-2.997394e-09	-8.214283e+00	-2.038439e+02
1.230000e-06	-1.068338e-06	-2.973390e-09	-8.094962e+00	-2.022357e+02
1.240000e-06	-1.052510e-06	-2.946420e-09	-7.975034e+00	-2.006193e+02
1.250000e-06	-1.036636e-06	-2.918167e-09	-7.854751e+00	-1.989929e+02
1.260000e-06	-1.020670e-06	-2.891336e-09	-7.733780e+00	-1.973550e+02
1.270000e-06	-1.004573e-06	-2.869528e-09	-7.611805e+00	-1.957043e+02
1.280000e-06	-9.883656e-07	-2.848620e-09	-7.489002e+00	-1.940400e+02
1.290000e-06	-9.720745e-07	-2.825941e-09	-7.365561e+00	-1.923618e+02
1.300000e-06	-9.557099e-07	-2.802546e-09	-7.241564e+00	-1.906697e+02
1.310000e-06	-9.392857e-07	-2.777813e-09	-7.117115e+00	-1.889640e+02
1.320000e-06	-9.228323e-07	-2.750952e-09	-6.992446e+00	-1.872454e+02
1.330000e-06	-9.063422e-07	-2.724216e-09	-6.867497e+00	-1.855141e+02
1.340000e-06	-8.897706e-07	-2.697892e-09	-6.741932e+00	-1.837701e+02
1.350000e-06	-8.731166e-07	-2.670833e-09	-6.615742e+00	-1.820130e+02
1.360000e-06	-8.563994e-07	-2.642757e-09	-6.489073e+00	-1.802418e+02
1.370000e-06	-8.396081e-07	-2.614742e-09	-6.361843e+00	-1.784554e+02
1.380000e-06	-8.227550e-07	-2.589451e-09	-6.234144e+00	-1.766523e+02
1.390000e-06	-8.058478e-07	-2.564371e-09	-6.106036e+00	-1.748316e+02
1.400000e-06	-7.888869e-07	-2.537447e-09	-5.977520e+00	-1.729926e+02
1.410000e-06	-7.718963e-07	-2.511049e-09	-5.848780e+00	-1.711356e+02
1.420000e-06	-7.548938e-07	-2.487231e-09	-5.719949e+00	-1.692622e+02
1.430000e-06	-7.378696e-07	-2.463338e-09	-5.590954e+00	-1.673748e+02
1.440000e-06	-7.208215e-07	-2.434254e-09	-5.461778e+00	-1.654770e+02
1.450000e-06	-7.037397e-07	-2.399779e-09	-5.332347e+00	-1.635731e+02
1.460000e-06	-6.866035e-07	-2.368602e-09	-5.202503e+00	-1.616676e+02
1.470000e-06	-6.694095e-07	-2.339171e-09	-5.072221e+00	-1.597648e+02
1.480000e-06	-6.521542e-07	-2.309792e-09	-4.941475e+00	-1.578680e+02
1.490000e-06	-6.348413e-07	-2.279415e-09	-4.810293e+00	-1.559791e+02
1.500000e-06	-6.174869e-07	-2.248811e-09	-4.678796e+00	-1.540986e+02
1.510000e-06	-6.000881e-07	-2.220458e-09	-4.546962e+00	-1.522246e+02
1.520000e-06	-5.826516e-07	-2.191199e-09	-4.414843e+00	-1.503536e+02
1.530000e-06	-5.651891e-07	-2.161479e-09	-4.282527e+00	-1.484804e+02
1.540000e-06	-5.476918e-07	-2.132459e-09	-4.149947e+00	-1.465988e+02
1.550000e-06	-5.301671e-07	-2.104513e-09	-4.017159e+00	-1.447019e+02
1.560000e-06	-5.126065e-07	-2.075179e-09	-3.884100e+00	-1.427831e+02
1.570000e-06	-4.950129e-07	-2.045409e-09	-3.750791e+00	-1.408367e+02
1.580000e-06	-4.773713e-07	-2.015685e-09	-3.617117e+00	-1.388582e+02
1.590000e-06	-4.596805e-07	-1.985744e-09	-3.483072e+00	-1.368450e+02
1.600000e-06	-4.419585e-07	-1.956275e-09	-3.348789e+00	-1.347966e+02
1.610000e-06	-4.242018e-07	-1.926957e-09	-3.214244e+00	-1.327142e+02
1.620000e-06	-4.064195e-07	-1.895386e-09	-3.079505e+00	-1.306007e+02
1.630000e-06	-3.886269e-07	-1.860140e-09	-2.944687e+00	-1.284602e+02
1.640000e-06	-3.708343e-07	-1.823846e-09	-2.809870e+00	-1.262976e+02
1.650000e-06	-3.530294e-07	-1.788111e-09	-2.674960e+00	-1.241178e+02
1.660000e-06	-3.352163e-07	-1.754348e-09	-2.539987e+00	-1.219255e+02
1.670000e-06	-3.174025e-07	-1.723080e-09	-2.405009e+00	-1.197244e+02
1.680000e-06	-2.995733e-07	-1.692783e-09	-2.269914e+00	-1.175176e+02
1.690000e-06	-2.817240e-07	-1.661105e-09	-2.134667e+00	-1.153067e+02
1.700000e-06	-2.638704e-07	-1.627748e-09	-1.999387e+00	-1.130925e+02
1.710000e-06	-2.460128e-07	-1.593898e-09	-1.864077e+00	-1.108747e+02
1.720000e-06	-2.281290e-07	-1.560247e-09	-1.728569e+00	-1.086524e+02
1.730000e-06	-2.102434e-07	-1.526482e-09	-1.593047e+00	-1.064242e+02
1.740000e-06	-1.923666e-07	-1.492255e-09	-1.457592e+00	-1.041885e+02
1.750000e-06	-1.744528e-07	-1.459690e-09	-1.321857e+00	-1.019435e+02
1.760000e-06	-1.564984e-07	-1.429528e-09	-1.185813e+00	-9.968776e+01
1.770000e-06	-1.385208e-07	-1.399691e-09	-1.049594e+00	-9.741961e+01
1.780000e-06	-1.205389e-07	-1.368028e-09	-9.133425e-01	-9.513758e+01
1.790000e-06	-1.025599e-07	-1.330918e-09	-7.771125e-01	-9.284022e+01
1.800000e-06	-8.456749e-08	-1.292289e-09	-6.407812e-01	-9.052610e+01
1.810000e-06	-6.655441e-08	-1.255893e-09	-5.042932e-01	-8.819379e+01
1.820000e-06	-4.854507e-08	-1.220672e-09	-3.678336e-01	-8.584196e+01
1.830000e-06	-3.053692e-08	-1.188920e-09	-2.313830e-01	-8.346947e+01
1.840000e-06	-1.250921e-08	-1.159863e-09	-9.478424e-02	-8.107550e+01
1.850000e-06	5.506914e-09	-1.130816e-09	4.172675e-02	-7.865979e+01
1.860000e-06	2.350377e-08	-1.099552e-09	1.780917e-01	-7.622272e+01
1.870000e-06	4.149420e-08	-1.063638e-09	3.144081e-01	-7.376549e+01
1.880000e-06	5.948097e-08	-1.021863e-09	4.506967e-01	-7.129008e+01
1.890000e-06	7.746567e-08	-9.780792e-10	5.869696e-01	-6.879923e+01
1.900000e-06	9.545639e-08	-9.378719e-10	7.232881e-01	-6.629622e+01
1.910000e-06	1.134632e-07	-9.016721e-10	8.597282e-01	-6.378462e+01
1.920000e-06	1.314482e-07	-8.695745e-10	9.960035e-01	-6.126793e+01
1.930000e-06	1.493965e-07	-8.385977e-10	1.132001e+00	-5.874926e+01
1.940000e-06	1.673146e-07	-8.052296e-10	1.267769e+00	-5.623096e+01
1.950000e-06	1.852082e-07	-7.701352e-10	1.403352e+00	-5.371437e+01
1.960000e-06	2.031030e-07	-7.309634e-10	1.538943e+00	-5.119968e+01
1.970000e-06	2.209998e-07	-6.889247e-10	1.674550e+00	-4.868587e+01
1.980000e-06	2.388890e-07	-6.476306e-10	1.810099e+00	-4.617084e+01
1.990000e-06	2.567579e-07	-6.072739e-10	1.945495e+00	-4.365162e+01
2.000000e-06	2.746041e-07	-5.727407e-10	2.080719e+00	-4.112471e+01
2.010000e-06	2.924418e-07	-5.418304e-10	2.215877e+00	-3.858638e+01
2.020000e-06	3.102741e-07	-5.093269e-10	2.350996e+00	-3.603308e+01
2.030000e-06	3.280970e-07	-4.751691e-10	2.486042e+00	-3.346174e+01
2.040000e-06	3.459085e-07	-4.370049e-10	2.621003e+00	-3.087002e+01
2.050000e-06	3.637072e-07	-3.973217e-10	2.755866e+00	-2.825642e+01
2.060000e-06	3.814912e-07	-3.578437e-10	2.890619e+00	-2.562039e+01
2.070000e-06	3.992622e-07	-3.168647e-10	3.025273e+00	-2.296223e+01
2.080000e-06	4.170190e-07	-2.748328e-10	3.159819e+00	-2.028302e+01
2.090000e-06	4.347469e-07	-2.360370e-10	3.294146e+00	-1.758444e+01
2.100000e-06	4.524428e-07	-2.006106e-10	3.428230e+00	-1.486863e+01
2.110000e-06	4.701063e-07	-1.637911e-10	3.562070e+00	-1.213801e+01
2.120000e-06	4.877211e-07	-1.236999e-10	3.695540e+00	-9.395153e+00
2.130000e-06	5.053080e-07	-8.310911e-11	3.828798e+00	-6.642713e+00
2.140000e-06	5.228693e-07	-4.180387e-11	3.961863e+00	-3.883302e+00
2.150000e-06	5.403719e-07	-2.572212e-13	4.094483e+00	-1.119438e+00
2.160000e-06	5.578338e-07	4.131623e-11	4.226795e+00	1.646538e+00
2.170000e-06	5.752711e-07	8.334618e-11	4.358920e+00	4.412565e+00
2.180000e-06	5.926790e-07	1.262323e-10	4.490822e+00	7.176986e+00
2.190000e-06	6.100459e-07	1.695124e-10	4.622414e+00	9.938694e+00
2.200000e-06	6.273671e-07	2.107092e-10	4.753659e+00	1.269728e+01
2.210000e-06	6.446428e-07	2.502813e-10	4.884560e+00	1.545317e+01
2.220000e-06	6.618540e-07	2.880536e-10	5.014972e+00	1.820769e+01
2.230000e-06	6.790081e-07	3.261619e-10	5.144951e+00	2.096308e+01
2.240000e-06	6.961244e-07	3.659678e-10	5.274644e+00	2.372235e+01
2.250000e-06	7.131945e-07	4.086367e-10	5.403987e+00	2.648911e+01
2.260000e-06	7.302205e-07	4.525289e-10	5.532995e+00	2.926723e+01
2.270000e-06	7.472297e-07	4.961074e-10	5.661877e+00	3.206042e+01
2.280000e-06	7.642207e-07	5.396168e-10	5.790620e+00	3.487185e+01
2.290000e-06	7.811867e-07	5.829881e-10	5.919175e+00	3.770371e+01
2.300000e-06	7.981156e-07	6.242677e-10	6.047447e+00	4.055691e+01
2.310000e-06	8.149785e-07	6.619252e-10	6.175221e+00	4.343091e+01
2.320000e-06	8.317735e-07	6.997821e-10	6.302479e+00	4.632370e+01
2.330000e-06	8.485019e-07	7.420961e-10	6.429233e+00	4.923195e+01
2.340000e-06	8.651558e-07	7.872332e-10	6.555422e+00	5.215142e+01
2.350000e-06	8.817367e-07	8.326483e-10	6.681057e+00	5.507735e+01
2.360000e-06	8.982581e-07	8.784487e-10	6.806243e+00	5.800512e+01
2.370000e-06	9.147220e-07	9.259712e-10	6.930992e+00	6.093069e+01
2.380000e-06	9.311255e-07	9.719738e-10	7.055284e+00	6.385115e+01
2.390000e-06	9.474593e-07	1.012787e-09	7.179048e+00	6.676498e+01
2.400000e-06	9.637415e-07	1.050001e-09	7.302421e+00	6.967219e+01
2.410000e-06	9.799840e-07	1.087739e-09	7.425493e+00	7.257418e+01
2.420000e-06	9.961164e-07	1.127940e-09	7.547731e+00	7.547342e+01
2.430000e-06	1.012126e-06	1.168673e-09	7.669040e+00	7.837302e+01
2.440000e-06	1.028048e-06	1.213234e-09	7.789680e+00	8.127605e+01
2.450000e-06	1.043895e-06	1.261674e-09	7.909757e+00	8.418504e+01
2.460000e-06	1.059689e-06	1.310913e-09	8.029429e+00	8.710144e+01
2.470000e-06	1.075411e-06	1.357588e-09	8.148556e+00	9.002526e+01
2.480000e-06	1.091059e-06	1.398366e-09	8.267126e+00	9.295497e+01
2.490000e-06	1.106629e-06	1.437137e-09	8.385105e+00	9.588759e+01
2.500000e-06	1.122102e-06	1.476614e-09	8.502340e+00	9.881903e+01
2.510000e-06	1.137500e-06	1.516719e-09	8.619014e+00	1.017446e+02
2.520000e-06	1.152836e-06	1.557926e-09	8.735218e+00	1.046596e+02
2.530000e-06	1.168083e-06	1.599793e-09	8.850751e+00	1.075599e+02
2.540000e-06	1.183201e-06	1.642110e-09	8.965302e+00	1.104426e+02
2.550000e-06	1.198156e-06	1.683662e-09	9.078620e+00	1.133063e+02
2.560000e-06	1.212974e-06	1.724569e-09	9.190894e+00	1.161509e+02
2.570000e-06	1.227698e-06	1.764849e-09	9.302463e+00	1.189783e+02
2.580000e-06	1.242352e-06	1.805036e-09	9.413498e+00	1.217911e+02
2.590000e-06	1.256949e-06	1.845995e-09	9.524100e+00	1.245927e+02
2.600000e-06	1.271472e-06	1.887355e-09	9.634143e+00	1.273865e+02
2.610000e-06	1.285902e-06	1.927605e-09	9.743485e+00	1.301752e+02
2.620000e-06	1.300248e-06	1.966254e-09	9.852184e+00	1.329605e+02
2.630000e-06	1.314498e-06	2.004587e-09	9.960157e+00	1.357426e+02
2.640000e-06	1.328648e-06	2.044654e-09	1.006737e+01	1.385199e+02
2.650000e-06	1.342709e-06	2.087430e-09	1.017392e+01	1.412897e+02
2.660000e-06	1.356676e-06	2.130876e-09	1.027975e+01	1.440479e+02
2.670000e-06	1.370555e-06	2.173833e-09	1.038491e+01	1.467901e+02
2.680000e-06	1.384372e-06	2.212135e-09	1.048961e+01	1.495118e+02
2.690000e-06	1.398126e-06	2.246315e-09	1.059382e+01	1.522090e+02
2.700000e-06	1.411798e-06	2.280849e-09	1.069742e+01	1.548793e+02
2.710000e-06	1.425341e-06	2.316272e-09	1.080004e+01	1.575212e+02
2.720000e-06	1.438712e-06	2.352127e-09	1.090135e+01	1.601351e+02
2.730000e-06	1.451943e-06	2.388779e-09	1.100160e+01	1.627228e+02
2.740000e-06	1.465065e-06	2.426747e-09	1.110103e+01	1.652870e+02
2.750000e-06	1.478097e-06	2.465492e-09	1.119978e+01	1.678310e+02
2.760000e-06	1.491055e-06	2.503944e-09	1.129796e+01	1.703583e+02
2.770000e-06	1.503918e-06	2.540372e-09	1.139543e+01	1.728716e+02
2.780000e-06	1.516669e-06	2.575653e-09	1.149204e+01	1.753728e+02
2.790000e-06	1.529319e-06	2.613623e-09	1.158789e+01	1.778625e+02
2.800000e-06	1.541889e-06	2.653171e-09	1.168314e+01	1.803401e+02
2.810000e-06	1.554374e-06	2.689971e-09	1.177773e+01	1.828038e+02
2.820000e-06	1.566748e-06	2.725803e-09	1.187150e+01	1.852509e+02
2.830000e-06	1.579015e-06	2.762324e-09	1.196444e+01	1.876786e+02
2.840000e-06	1.591202e-06	2.798881e-09	1.205679e+01	1.900840e+02
2.850000e-06	1.603314e-06	2.834511e-09	1.214856e+01	1.924647e+02
2.860000e-06	1.615281e-06	2.868261e-09	1.223924e+01	1.948193e+02
2.870000e-06	1.627051e-06	2.902942e-09	1.232842e+01	1.971474e+02
2.880000e-06	1.638644e-06	2.938298e-09	1.241626e+01	1.994494e+02
2.890000e-06	1.650114e-06	2.973172e-09	1.250318e+01	2.017265e+02
2.900000e-06	1.661506e-06	3.007955e-09	1.258949e+01	2.039804e+02
