# Temperatura_=_20.0
# Concentracion g/m^3_=_10000.0
# C_Vs_to_Am_M_A/Vsm_=_65563218390.804596
# pendiente_HvsI_1/m_=_3716.3
# ordenada_HvsI_A/m_=_1297.0
# frecuencia_Hz_=_135208.33478588768

Tiempo_(s)	Campo_(V.s)	Magnetizacion_(V.s)	Campo_(kA/m)	Magnetizacion_(A/m)
0.000000e+00	-2.131177e-06	-4.629450e-09	-1.613969e+01	-2.985855e+02
1.000000e-08	-2.131198e-06	-4.641828e-09	-1.613985e+01	-2.988180e+02
2.000000e-08	-2.131023e-06	-4.650144e-09	-1.613852e+01	-2.990335e+02
3.000000e-08	-2.130648e-06	-4.628061e-09	-1.613569e+01	-2.992300e+02
4.000000e-08	-2.130078e-06	-4.593993e-09	-1.613137e+01	-2.994049e+02
5.000000e-08	-2.129486e-06	-4.560217e-09	-1.612689e+01	-2.995557e+02
6.000000e-08	-2.128919e-06	-4.635770e-09	-1.612260e+01	-2.996800e+02
7.000000e-08	-2.128240e-06	-4.664568e-09	-1.611745e+01	-2.997757e+02
8.000000e-08	-2.127332e-06	-4.645521e-09	-1.611057e+01	-2.998418e+02
9.000000e-08	-2.126188e-06	-4.649375e-09	-1.610191e+01	-2.998777e+02
1.000000e-07	-2.124863e-06	-4.639706e-09	-1.609187e+01	-2.998838e+02
1.100000e-07	-2.123324e-06	-4.631336e-09	-1.608022e+01	-2.998613e+02
1.200000e-07	-2.121526e-06	-4.585259e-09	-1.606660e+01	-2.998121e+02
1.300000e-07	-2.119502e-06	-4.589324e-09	-1.605128e+01	-2.997385e+02
1.400000e-07	-2.117416e-06	-4.602435e-09	-1.603548e+01	-2.996432e+02
1.500000e-07	-2.115359e-06	-4.608867e-09	-1.601990e+01	-2.995287e+02
1.600000e-07	-2.113201e-06	-4.594592e-09	-1.600356e+01	-2.993975e+02
1.700000e-07	-2.110779e-06	-4.602270e-09	-1.598522e+01	-2.992518e+02
1.800000e-07	-2.108113e-06	-4.610124e-09	-1.596503e+01	-2.990932e+02
1.900000e-07	-2.105295e-06	-4.585750e-09	-1.594369e+01	-2.989230e+02
2.000000e-07	-2.102351e-06	-4.553410e-09	-1.592139e+01	-2.987420e+02
2.100000e-07	-2.099216e-06	-4.553991e-09	-1.589765e+01	-2.985504e+02
2.200000e-07	-2.095879e-06	-4.580572e-09	-1.587237e+01	-2.983481e+02
2.300000e-07	-2.092392e-06	-4.597426e-09	-1.584597e+01	-2.981349e+02
2.400000e-07	-2.088767e-06	-4.580227e-09	-1.581852e+01	-2.979100e+02
2.500000e-07	-2.084971e-06	-4.551264e-09	-1.578977e+01	-2.976728e+02
2.600000e-07	-2.080998e-06	-4.534671e-09	-1.575968e+01	-2.974225e+02
2.700000e-07	-2.076905e-06	-4.528195e-09	-1.572868e+01	-2.971582e+02
2.800000e-07	-2.072698e-06	-4.520830e-09	-1.569683e+01	-2.968791e+02
2.900000e-07	-2.068346e-06	-4.524670e-09	-1.566386e+01	-2.965846e+02
3.000000e-07	-2.063868e-06	-4.535467e-09	-1.562995e+01	-2.962739e+02
3.100000e-07	-2.059266e-06	-4.532240e-09	-1.559510e+01	-2.959469e+02
3.200000e-07	-2.054529e-06	-4.515658e-09	-1.555923e+01	-2.956036e+02
3.300000e-07	-2.049635e-06	-4.500968e-09	-1.552216e+01	-2.952441e+02
3.400000e-07	-2.044604e-06	-4.493514e-09	-1.548406e+01	-2.948693e+02
3.500000e-07	-2.039488e-06	-4.475411e-09	-1.544532e+01	-2.944801e+02
3.600000e-07	-2.034271e-06	-4.466399e-09	-1.540581e+01	-2.940779e+02
3.700000e-07	-2.028860e-06	-4.473150e-09	-1.536483e+01	-2.936641e+02
3.800000e-07	-2.023208e-06	-4.478005e-09	-1.532202e+01	-2.932403e+02
3.900000e-07	-2.017398e-06	-4.452265e-09	-1.527803e+01	-2.928078e+02
4.000000e-07	-2.011480e-06	-4.436902e-09	-1.523321e+01	-2.923677e+02
4.100000e-07	-2.005411e-06	-4.444767e-09	-1.518725e+01	-2.919203e+02
4.200000e-07	-1.999168e-06	-4.448205e-09	-1.513997e+01	-2.914657e+02
4.300000e-07	-1.992817e-06	-4.417871e-09	-1.509187e+01	-2.910028e+02
4.400000e-07	-1.986351e-06	-4.396384e-09	-1.504291e+01	-2.905301e+02
4.500000e-07	-1.979755e-06	-4.401583e-09	-1.499295e+01	-2.900453e+02
4.600000e-07	-1.973051e-06	-4.400853e-09	-1.494218e+01	-2.895457e+02
4.700000e-07	-1.966225e-06	-4.374189e-09	-1.489049e+01	-2.890283e+02
4.800000e-07	-1.959203e-06	-4.355392e-09	-1.483731e+01	-2.884902e+02
4.900000e-07	-1.951964e-06	-4.357920e-09	-1.478249e+01	-2.879288e+02
5.000000e-07	-1.944579e-06	-4.353555e-09	-1.472656e+01	-2.873419e+02
5.100000e-07	-1.937090e-06	-4.336481e-09	-1.466984e+01	-2.867280e+02
5.200000e-07	-1.929476e-06	-4.321144e-09	-1.461218e+01	-2.860865e+02
5.300000e-07	-1.921719e-06	-4.310944e-09	-1.455344e+01	-2.854175e+02
5.400000e-07	-1.913825e-06	-4.298761e-09	-1.449366e+01	-2.847217e+02
5.500000e-07	-1.905800e-06	-4.289430e-09	-1.443288e+01	-2.840005e+02
5.600000e-07	-1.897651e-06	-4.274223e-09	-1.437117e+01	-2.832555e+02
5.700000e-07	-1.889394e-06	-4.254447e-09	-1.430864e+01	-2.824885e+02
5.800000e-07	-1.881007e-06	-4.240862e-09	-1.424512e+01	-2.817012e+02
5.900000e-07	-1.872442e-06	-4.237599e-09	-1.418026e+01	-2.808952e+02
6.000000e-07	-1.863688e-06	-4.222898e-09	-1.411396e+01	-2.800718e+02
6.100000e-07	-1.854778e-06	-4.197861e-09	-1.404649e+01	-2.792320e+02
6.200000e-07	-1.845757e-06	-4.182380e-09	-1.397817e+01	-2.783768e+02
6.300000e-07	-1.836625e-06	-4.176812e-09	-1.390901e+01	-2.775069e+02
6.400000e-07	-1.827374e-06	-4.160152e-09	-1.383895e+01	-2.766232e+02
6.500000e-07	-1.818005e-06	-4.135789e-09	-1.376800e+01	-2.757265e+02
6.600000e-07	-1.808505e-06	-4.118128e-09	-1.369606e+01	-2.748181e+02
6.700000e-07	-1.798870e-06	-4.108562e-09	-1.362308e+01	-2.738991e+02
6.800000e-07	-1.789110e-06	-4.095568e-09	-1.354917e+01	-2.729707e+02
6.900000e-07	-1.779229e-06	-4.074440e-09	-1.347435e+01	-2.720341e+02
7.000000e-07	-1.769195e-06	-4.053406e-09	-1.339835e+01	-2.710901e+02
7.100000e-07	-1.758978e-06	-4.037740e-09	-1.332098e+01	-2.701391e+02
7.200000e-07	-1.748564e-06	-4.026051e-09	-1.324211e+01	-2.691808e+02
7.300000e-07	-1.737978e-06	-4.010302e-09	-1.316194e+01	-2.682142e+02
7.400000e-07	-1.727266e-06	-3.988304e-09	-1.308082e+01	-2.672376e+02
7.500000e-07	-1.716444e-06	-3.971065e-09	-1.299887e+01	-2.662489e+02
7.600000e-07	-1.705510e-06	-3.961975e-09	-1.291606e+01	-2.652457e+02
7.700000e-07	-1.694457e-06	-3.944853e-09	-1.283235e+01	-2.642254e+02
7.800000e-07	-1.683259e-06	-3.921234e-09	-1.274755e+01	-2.631861e+02
7.900000e-07	-1.671948e-06	-3.901389e-09	-1.266189e+01	-2.621263e+02
8.000000e-07	-1.660563e-06	-3.887821e-09	-1.257567e+01	-2.610457e+02
8.100000e-07	-1.649089e-06	-3.873348e-09	-1.248878e+01	-2.599450e+02
8.200000e-07	-1.637486e-06	-3.853287e-09	-1.240090e+01	-2.588261e+02
8.300000e-07	-1.625724e-06	-3.832012e-09	-1.231182e+01	-2.576918e+02
8.400000e-07	-1.613783e-06	-3.814518e-09	-1.222140e+01	-2.565455e+02
8.500000e-07	-1.601696e-06	-3.799242e-09	-1.212986e+01	-2.553909e+02
8.600000e-07	-1.589518e-06	-3.780161e-09	-1.203763e+01	-2.542311e+02
8.700000e-07	-1.577257e-06	-3.757432e-09	-1.194478e+01	-2.530687e+02
8.800000e-07	-1.564892e-06	-3.738248e-09	-1.185114e+01	-2.519051e+02
8.900000e-07	-1.552426e-06	-3.723719e-09	-1.175673e+01	-2.507399e+02
9.000000e-07	-1.539873e-06	-3.706022e-09	-1.166167e+01	-2.495716e+02
9.100000e-07	-1.527214e-06	-3.683129e-09	-1.156580e+01	-2.483970e+02
9.200000e-07	-1.514439e-06	-3.663930e-09	-1.146905e+01	-2.472119e+02
9.300000e-07	-1.501570e-06	-3.649995e-09	-1.137160e+01	-2.460117e+02
9.400000e-07	-1.488615e-06	-3.633559e-09	-1.127348e+01	-2.447915e+02
9.500000e-07	-1.475561e-06	-3.610196e-09	-1.117462e+01	-2.435474e+02
9.600000e-07	-1.462406e-06	-3.584208e-09	-1.107500e+01	-2.422763e+02
9.700000e-07	-1.449128e-06	-3.562130e-09	-1.097444e+01	-2.409770e+02
9.800000e-07	-1.435710e-06	-3.543211e-09	-1.087282e+01	-2.396498e+02
9.900000e-07	-1.422152e-06	-3.521598e-09	-1.077015e+01	-2.382969e+02
1.000000e-06	-1.408471e-06	-3.497043e-09	-1.066654e+01	-2.369221e+02
1.010000e-06	-1.394704e-06	-3.474924e-09	-1.056228e+01	-2.355300e+02
1.020000e-06	-1.380880e-06	-3.458169e-09	-1.045759e+01	-2.341257e+02
1.030000e-06	-1.367000e-06	-3.441356e-09	-1.035247e+01	-2.327144e+02
1.040000e-06	-1.353039e-06	-3.420770e-09	-1.024675e+01	-2.313002e+02
1.050000e-06	-1.338961e-06	-3.398240e-09	-1.014013e+01	-2.298858e+02
1.060000e-06	-1.324766e-06	-3.375316e-09	-1.003264e+01	-2.284726e+02
1.070000e-06	-1.310484e-06	-3.353839e-09	-9.924475e+00	-2.270600e+02
1.080000e-06	-1.296099e-06	-3.330286e-09	-9.815537e+00	-2.256457e+02
1.090000e-06	-1.281629e-06	-3.304595e-09	-9.705951e+00	-2.242261e+02
1.100000e-06	-1.267089e-06	-3.281236e-09	-9.595835e+00	-2.227969e+02
1.110000e-06	-1.252480e-06	-3.262927e-09	-9.485201e+00	-2.213532e+02
1.120000e-06	-1.237819e-06	-3.244026e-09	-9.374170e+00	-2.198908e+02
1.130000e-06	-1.223086e-06	-3.222611e-09	-9.262593e+00	-2.184059e+02
1.140000e-06	-1.208248e-06	-3.201221e-09	-9.150229e+00	-2.168961e+02
1.150000e-06	-1.193266e-06	-3.179529e-09	-9.036763e+00	-2.153606e+02
1.160000e-06	-1.178139e-06	-3.155108e-09	-8.922204e+00	-2.137998e+02
1.170000e-06	-1.162897e-06	-3.126278e-09	-8.806777e+00	-2.122153e+02
1.180000e-06	-1.147565e-06	-3.098752e-09	-8.690662e+00	-2.106101e+02
1.190000e-06	-1.132149e-06	-3.075920e-09	-8.573918e+00	-2.089872e+02
1.200000e-06	-1.116651e-06	-3.055820e-09	-8.456553e+00	-2.073503e+02
1.210000e-06	-1.101080e-06	-3.032935e-09	-8.338628e+00	-2.057025e+02
1.220000e-06	-1.085412e-06	-3.006841e-09	-8.219968e+00	-2.040465e+02
1.230000e-06	-1.069665e-06	-2.981347e-09	-8.100719e+00	-2.023840e+02
1.240000e-06	-1.053857e-06	-2.954984e-09	-7.981001e+00	-2.007160e+02
1.250000e-06	-1.037974e-06	-2.924491e-09	-7.860714e+00	-1.990426e+02
1.260000e-06	-1.021992e-06	-2.894359e-09	-7.739688e+00	-1.973635e+02
1.270000e-06	-1.005900e-06	-2.869460e-09	-7.617817e+00	-1.956776e+02
1.280000e-06	-9.897074e-07	-2.847039e-09	-7.495188e+00	-1.939838e+02
1.290000e-06	-9.734152e-07	-2.823876e-09	-7.371805e+00	-1.922811e+02
1.300000e-06	-9.570526e-07	-2.797880e-09	-7.247889e+00	-1.905686e+02
1.310000e-06	-9.406296e-07	-2.771579e-09	-7.123516e+00	-1.888455e+02
1.320000e-06	-9.241607e-07	-2.748349e-09	-6.998794e+00	-1.871116e+02
1.330000e-06	-9.076590e-07	-2.724815e-09	-6.873825e+00	-1.853665e+02
1.340000e-06	-8.910904e-07	-2.695847e-09	-6.748348e+00	-1.836102e+02
1.350000e-06	-8.744483e-07	-2.663823e-09	-6.622315e+00	-1.818427e+02
1.360000e-06	-8.577445e-07	-2.634435e-09	-6.495815e+00	-1.800637e+02
1.370000e-06	-8.409786e-07	-2.608810e-09	-6.368845e+00	-1.782729e+02
1.380000e-06	-8.241486e-07	-2.581575e-09	-6.241389e+00	-1.764699e+02
1.390000e-06	-8.072458e-07	-2.552545e-09	-6.113382e+00	-1.746544e+02
1.400000e-06	-7.902830e-07	-2.525304e-09	-5.984920e+00	-1.728261e+02
1.410000e-06	-7.732943e-07	-2.498536e-09	-5.856262e+00	-1.709850e+02
1.420000e-06	-7.562856e-07	-2.473373e-09	-5.727454e+00	-1.691316e+02
1.430000e-06	-7.392587e-07	-2.446731e-09	-5.598506e+00	-1.672667e+02
1.440000e-06	-7.222045e-07	-2.417571e-09	-5.469353e+00	-1.653920e+02
1.450000e-06	-7.051082e-07	-2.388418e-09	-5.339880e+00	-1.635093e+02
1.460000e-06	-6.879717e-07	-2.361115e-09	-5.210103e+00	-1.616208e+02
1.470000e-06	-6.707694e-07	-2.334756e-09	-5.079828e+00	-1.597285e+02
1.480000e-06	-6.535108e-07	-2.306366e-09	-4.949126e+00	-1.578343e+02
1.490000e-06	-6.362077e-07	-2.275388e-09	-4.818087e+00	-1.559393e+02
1.500000e-06	-6.188504e-07	-2.243819e-09	-4.686638e+00	-1.540438e+02
1.510000e-06	-6.014584e-07	-2.213500e-09	-4.554926e+00	-1.521468e+02
1.520000e-06	-5.840428e-07	-2.184489e-09	-4.423035e+00	-1.502464e+02
1.530000e-06	-5.665972e-07	-2.157835e-09	-4.290918e+00	-1.483395e+02
1.540000e-06	-5.491084e-07	-2.131121e-09	-4.158472e+00	-1.464222e+02
1.550000e-06	-5.315800e-07	-2.103287e-09	-4.025728e+00	-1.444900e+02
1.560000e-06	-5.140050e-07	-2.070171e-09	-3.892629e+00	-1.425386e+02
1.570000e-06	-4.963882e-07	-2.033884e-09	-3.759215e+00	-1.405638e+02
1.580000e-06	-4.787364e-07	-2.000472e-09	-3.625535e+00	-1.385625e+02
1.590000e-06	-4.610463e-07	-1.969367e-09	-3.491566e+00	-1.365326e+02
1.600000e-06	-4.433207e-07	-1.938642e-09	-3.357328e+00	-1.344735e+02
1.610000e-06	-4.255565e-07	-1.910410e-09	-3.222797e+00	-1.323860e+02
1.620000e-06	-4.077717e-07	-1.884029e-09	-3.088110e+00	-1.302724e+02
1.630000e-06	-3.899815e-07	-1.855801e-09	-2.953382e+00	-1.281360e+02
1.640000e-06	-3.721882e-07	-1.825938e-09	-2.818631e+00	-1.259807e+02
1.650000e-06	-3.543817e-07	-1.792212e-09	-2.683780e+00	-1.238108e+02
1.660000e-06	-3.365670e-07	-1.755688e-09	-2.548867e+00	-1.216306e+02
1.670000e-06	-3.187418e-07	-1.718772e-09	-2.413875e+00	-1.194434e+02
1.680000e-06	-3.008998e-07	-1.683441e-09	-2.278755e+00	-1.172518e+02
1.690000e-06	-2.830502e-07	-1.651330e-09	-2.143577e+00	-1.150572e+02
1.700000e-06	-2.651908e-07	-1.623524e-09	-2.008326e+00	-1.128598e+02
1.710000e-06	-2.473151e-07	-1.598812e-09	-1.872951e+00	-1.106586e+02
1.720000e-06	-2.294248e-07	-1.570880e-09	-1.737465e+00	-1.084516e+02
1.730000e-06	-2.115341e-07	-1.537737e-09	-1.601977e+00	-1.062365e+02
1.740000e-06	-1.936273e-07	-1.502808e-09	-1.466366e+00	-1.040104e+02
1.750000e-06	-1.756937e-07	-1.468750e-09	-1.330552e+00	-1.017705e+02
1.760000e-06	-1.577510e-07	-1.433646e-09	-1.194670e+00	-9.951453e+01
1.770000e-06	-1.397850e-07	-1.396611e-09	-1.058611e+00	-9.724083e+01
1.780000e-06	-1.218044e-07	-1.360879e-09	-9.224410e-01	-9.494844e+01
1.790000e-06	-1.038187e-07	-1.326644e-09	-7.862327e-01	-9.263722e+01
1.800000e-06	-8.582179e-08	-1.293946e-09	-6.499400e-01	-9.030776e+01
1.810000e-06	-6.781668e-08	-1.260518e-09	-5.135849e-01	-8.796123e+01
1.820000e-06	-4.980791e-08	-1.226737e-09	-3.772021e-01	-8.559914e+01
1.830000e-06	-3.181138e-08	-1.195316e-09	-2.409119e-01	-8.322314e+01
1.840000e-06	-1.382777e-08	-1.164499e-09	-1.047196e-01	-8.083477e+01
1.850000e-06	4.186213e-09	-1.130079e-09	3.170276e-02	-7.843526e+01
1.860000e-06	2.221034e-08	-1.091521e-09	1.682019e-01	-7.602543e+01
1.870000e-06	4.022048e-08	-1.051429e-09	3.045951e-01	-7.360557e+01
1.880000e-06	5.824469e-08	-1.011684e-09	4.410949e-01	-7.117546e+01
1.890000e-06	7.626361e-08	-9.736842e-10	5.775547e-01	-6.873444e+01
1.900000e-06	9.426716e-08	-9.385830e-10	7.138980e-01	-6.628153e+01
1.910000e-06	1.122351e-07	-9.071435e-10	8.499712e-01	-6.381554e+01
1.920000e-06	1.301935e-07	-8.775143e-10	9.859727e-01	-6.133530e+01
1.930000e-06	1.481592e-07	-8.469568e-10	1.122030e+00	-5.883972e+01
1.940000e-06	1.661069e-07	-8.131833e-10	1.257950e+00	-5.632800e+01
1.950000e-06	1.840345e-07	-7.746785e-10	1.393718e+00	-5.379969e+01
1.960000e-06	2.019490e-07	-7.319304e-10	1.529387e+00	-5.125473e+01
1.970000e-06	2.198494e-07	-6.882493e-10	1.664949e+00	-4.869345e+01
1.980000e-06	2.377285e-07	-6.474846e-10	1.800351e+00	-4.611656e+01
1.990000e-06	2.555972e-07	-6.082365e-10	1.935672e+00	-4.352497e+01
2.000000e-06	2.734528e-07	-5.721531e-10	2.070895e+00	-4.091977e+01
2.010000e-06	2.912907e-07	-5.400378e-10	2.205984e+00	-3.830205e+01
2.020000e-06	3.091161e-07	-5.066440e-10	2.340978e+00	-3.567274e+01
2.030000e-06	3.269290e-07	-4.718600e-10	2.475877e+00	-3.303254e+01
2.040000e-06	3.447343e-07	-4.337310e-10	2.610719e+00	-3.038184e+01
2.050000e-06	3.625328e-07	-3.926387e-10	2.745510e+00	-2.772062e+01
2.060000e-06	3.803177e-07	-3.483476e-10	2.880197e+00	-2.504851e+01
2.070000e-06	3.980863e-07	-3.026905e-10	3.014761e+00	-2.236485e+01
2.080000e-06	4.158406e-07	-2.597688e-10	3.149217e+00	-1.966879e+01
2.090000e-06	4.335694e-07	-2.223370e-10	3.283480e+00	-1.695947e+01
2.100000e-06	4.512622e-07	-1.897465e-10	3.417470e+00	-1.423619e+01
2.110000e-06	4.689233e-07	-1.573006e-10	3.551220e+00	-1.149857e+01
2.120000e-06	4.865454e-07	-1.216246e-10	3.684674e+00	-8.746751e+00
2.130000e-06	5.041295e-07	-8.239381e-11	3.817841e+00	-5.981498e+00
2.140000e-06	5.216823e-07	-3.864666e-11	3.950771e+00	-3.204231e+00
2.150000e-06	5.392027e-07	7.705307e-12	4.083455e+00	-4.170024e-01
2.160000e-06	5.566889e-07	5.201476e-11	4.215880e+00	2.377628e+00
2.170000e-06	5.741372e-07	9.458383e-11	4.348019e+00	5.176795e+00
2.180000e-06	5.915507e-07	1.362517e-10	4.479894e+00	7.977593e+00
2.190000e-06	6.089327e-07	1.789157e-10	4.611530e+00	1.077738e+01
2.200000e-06	6.262686e-07	2.189263e-10	4.742817e+00	1.357407e+01
2.210000e-06	6.435550e-07	2.548643e-10	4.873729e+00	1.636641e+01
2.220000e-06	6.607914e-07	2.901299e-10	5.004263e+00	1.915413e+01
2.230000e-06	6.779759e-07	3.296741e-10	5.134403e+00	2.193809e+01
2.240000e-06	6.951048e-07	3.735333e-10	5.264123e+00	2.472016e+01
2.250000e-06	7.121846e-07	4.188351e-10	5.393470e+00	2.750311e+01
2.260000e-06	7.292314e-07	4.643327e-10	5.522568e+00	3.029033e+01
2.270000e-06	7.462510e-07	5.099601e-10	5.651460e+00	3.308545e+01
2.280000e-06	7.632469e-07	5.530863e-10	5.780172e+00	3.589194e+01
2.290000e-06	7.802140e-07	5.922522e-10	5.908667e+00	3.871275e+01
2.300000e-06	7.971461e-07	6.293548e-10	6.036895e+00	4.154993e+01
2.310000e-06	8.140235e-07	6.640057e-10	6.164710e+00	4.440445e+01
2.320000e-06	8.308290e-07	7.006073e-10	6.291981e+00	4.727605e+01
2.330000e-06	8.475599e-07	7.422681e-10	6.418686e+00	5.016328e+01
2.340000e-06	8.642174e-07	7.875950e-10	6.544836e+00	5.306369e+01
2.350000e-06	8.807912e-07	8.352549e-10	6.670351e+00	5.597412e+01
2.360000e-06	8.972909e-07	8.812619e-10	6.795306e+00	5.889104e+01
2.370000e-06	9.137432e-07	9.247051e-10	6.919901e+00	6.181097e+01
2.380000e-06	9.301464e-07	9.683529e-10	7.044125e+00	6.473081e+01
2.390000e-06	9.464977e-07	1.009392e-09	7.167956e+00	6.764812e+01
2.400000e-06	9.627928e-07	1.047839e-09	7.291360e+00	7.056133e+01
2.410000e-06	9.790216e-07	1.084465e-09	7.414263e+00	7.346973e+01
2.420000e-06	9.951675e-07	1.121778e-09	7.536538e+00	7.637343e+01
2.430000e-06	1.011195e-06	1.162744e-09	7.657918e+00	7.927312e+01
2.440000e-06	1.027124e-06	1.206816e-09	7.778551e+00	8.216983e+01
2.450000e-06	1.042997e-06	1.254255e-09	7.898755e+00	8.506463e+01
2.460000e-06	1.058809e-06	1.303687e-09	8.018502e+00	8.795832e+01
2.470000e-06	1.074552e-06	1.351559e-09	8.137730e+00	9.085130e+01
2.480000e-06	1.090220e-06	1.394444e-09	8.256384e+00	9.374337e+01
2.490000e-06	1.105803e-06	1.434333e-09	8.374392e+00	9.663379e+01
2.500000e-06	1.121295e-06	1.473643e-09	8.491718e+00	9.952140e+01
2.510000e-06	1.136716e-06	1.511063e-09	8.608503e+00	1.024048e+02
2.520000e-06	1.152064e-06	1.548635e-09	8.724737e+00	1.052825e+02
2.530000e-06	1.167324e-06	1.590037e-09	8.840305e+00	1.081534e+02
2.540000e-06	1.182478e-06	1.635654e-09	8.955069e+00	1.110169e+02
2.550000e-06	1.197491e-06	1.679542e-09	9.068760e+00	1.138726e+02
2.560000e-06	1.212350e-06	1.721043e-09	9.181292e+00	1.167210e+02
2.570000e-06	1.227077e-06	1.761680e-09	9.292820e+00	1.195631e+02
2.580000e-06	1.241724e-06	1.802304e-09	9.403744e+00	1.223997e+02
2.590000e-06	1.256327e-06	1.844405e-09	9.514334e+00	1.252319e+02
2.600000e-06	1.270868e-06	1.884328e-09	9.624453e+00	1.280603e+02
2.610000e-06	1.285317e-06	1.922673e-09	9.733882e+00	1.308849e+02
2.620000e-06	1.299676e-06	1.961529e-09	9.842621e+00	1.337046e+02
2.630000e-06	1.313948e-06	2.001442e-09	9.950710e+00	1.365177e+02
2.640000e-06	1.328112e-06	2.042332e-09	1.005797e+01	1.393214e+02
2.650000e-06	1.342173e-06	2.085430e-09	1.016446e+01	1.421123e+02
2.660000e-06	1.356147e-06	2.130128e-09	1.027028e+01	1.448869e+02
2.670000e-06	1.370038e-06	2.174817e-09	1.037548e+01	1.476414e+02
2.680000e-06	1.383866e-06	2.217349e-09	1.048020e+01	1.503727e+02
2.690000e-06	1.397626e-06	2.255290e-09	1.058441e+01	1.530787e+02
2.700000e-06	1.411323e-06	2.289508e-09	1.068814e+01	1.557582e+02
2.710000e-06	1.424904e-06	2.322928e-09	1.079099e+01	1.584114e+02
2.720000e-06	1.438330e-06	2.357813e-09	1.089267e+01	1.610396e+02
2.730000e-06	1.451606e-06	2.394260e-09	1.099321e+01	1.636451e+02
2.740000e-06	1.464732e-06	2.432584e-09	1.109261e+01	1.662309e+02
2.750000e-06	1.477763e-06	2.474053e-09	1.119130e+01	1.687999e+02
2.760000e-06	1.490734e-06	2.516614e-09	1.128953e+01	1.713548e+02
2.770000e-06	1.503614e-06	2.555315e-09	1.138708e+01	1.738974e+02
2.780000e-06	1.516387e-06	2.590035e-09	1.148380e+01	1.764285e+02
2.790000e-06	1.529057e-06	2.624385e-09	1.157975e+01	1.789474e+02
2.800000e-06	1.541632e-06	2.659124e-09	1.167499e+01	1.814523e+02
2.810000e-06	1.554117e-06	2.693730e-09	1.176954e+01	1.839401e+02
2.820000e-06	1.566494e-06	2.729353e-09	1.186327e+01	1.864071e+02
2.830000e-06	1.578781e-06	2.768069e-09	1.195632e+01	1.888493e+02
2.840000e-06	1.590993e-06	2.806868e-09	1.204880e+01	1.912628e+02
2.850000e-06	1.603114e-06	2.843659e-09	1.214060e+01	1.936447e+02
2.860000e-06	1.615096e-06	2.877599e-09	1.223134e+01	1.959930e+02
2.870000e-06	1.626887e-06	2.911488e-09	1.232064e+01	1.983071e+02
2.880000e-06	1.638505e-06	2.946532e-09	1.240862e+01	2.005878e+02
2.890000e-06	1.650007e-06	2.980383e-09	1.249573e+01	2.028372e+02
2.900000e-06	1.661426e-06	3.011976e-09	1.258221e+01	2.050584e+02
