# Temperatura_=_20.0
# Concentracion g/m^3_=_10000.0
# C_Vs_to_Am_M_A/Vsm_=_65563218390.804596
# pendiente_HvsI_1/m_=_3716.3
# ordenada_HvsI_A/m_=_1297.0
# frecuencia_Hz_=_135198.24851279447

Tiempo_(s)	Campo_(V.s)	Magnetizacion_(V.s)	Campo_(kA/m)	Magnetizacion_(A/m)
0.000000e+00	-2.124390e-06	-2.497788e-11	-1.614383e+01	2.409058e-01
1.000000e-08	-2.124220e-06	-7.129219e-12	-1.614254e+01	2.765594e-01
2.000000e-08	-2.123831e-06	-3.174168e-12	-1.613958e+01	3.130133e-01
3.000000e-08	-2.123247e-06	-1.299654e-12	-1.613515e+01	3.511886e-01
4.000000e-08	-2.122682e-06	-3.071595e-11	-1.613085e+01	3.918105e-01
5.000000e-08	-2.122164e-06	-2.723012e-11	-1.612691e+01	4.353124e-01
6.000000e-08	-2.121495e-06	-2.650411e-11	-1.612183e+01	4.817633e-01
7.000000e-08	-2.120567e-06	-3.738941e-11	-1.611478e+01	5.308281e-01
8.000000e-08	-2.119425e-06	-1.651653e-11	-1.610610e+01	5.817620e-01
9.000000e-08	-2.118102e-06	-3.283540e-11	-1.609604e+01	6.334409e-01
1.000000e-07	-2.116570e-06	-1.458261e-12	-1.608441e+01	6.844252e-01
1.100000e-07	-2.114769e-06	-2.148231e-11	-1.607072e+01	7.330523e-01
1.200000e-07	-2.112739e-06	1.696773e-12	-1.605529e+01	7.775500e-01
1.300000e-07	-2.110645e-06	-6.453104e-12	-1.603938e+01	8.161621e-01
1.400000e-07	-2.108577e-06	-1.050147e-11	-1.602367e+01	8.472750e-01
1.500000e-07	-2.106403e-06	-2.033081e-11	-1.600714e+01	8.695365e-01
1.600000e-07	-2.103954e-06	-1.568325e-11	-1.598853e+01	8.819559e-01
1.700000e-07	-2.101271e-06	5.638154e-13	-1.596814e+01	8.839776e-01
1.800000e-07	-2.098477e-06	-3.278930e-12	-1.594691e+01	8.755219e-01
1.900000e-07	-2.095573e-06	-4.268778e-12	-1.592484e+01	8.569908e-01
2.000000e-07	-2.092492e-06	-9.736365e-12	-1.590143e+01	8.292363e-01
2.100000e-07	-2.089189e-06	6.526295e-13	-1.587633e+01	7.934957e-01
2.200000e-07	-2.085700e-06	-2.005819e-12	-1.584982e+01	7.512985e-01
2.300000e-07	-2.082080e-06	-6.119847e-13	-1.582231e+01	7.043523e-01
2.400000e-07	-2.078302e-06	-1.121806e-11	-1.579360e+01	6.544173e-01
2.500000e-07	-2.074359e-06	-7.514822e-12	-1.576363e+01	6.031791e-01
2.600000e-07	-2.070294e-06	-1.546582e-11	-1.573274e+01	5.521321e-01
2.700000e-07	-2.066125e-06	-1.356081e-11	-1.570106e+01	5.024797e-01
2.800000e-07	-2.061810e-06	-1.937058e-11	-1.566827e+01	4.550624e-01
2.900000e-07	-2.057360e-06	-9.371924e-12	-1.563445e+01	4.103181e-01
3.000000e-07	-2.052804e-06	-1.316905e-11	-1.559983e+01	3.682772e-01
3.100000e-07	-2.048112e-06	-9.433541e-12	-1.556417e+01	3.285937e-01
3.200000e-07	-2.043224e-06	-1.281473e-11	-1.552703e+01	2.906090e-01
3.300000e-07	-2.038177e-06	-5.801279e-12	-1.548868e+01	2.534421e-01
3.400000e-07	-2.033057e-06	-1.227824e-11	-1.544977e+01	2.160998e-01
3.500000e-07	-2.027858e-06	-1.424099e-11	-1.541026e+01	1.775959e-01
3.600000e-07	-2.022468e-06	-1.966493e-11	-1.536930e+01	1.370700e-01
3.700000e-07	-2.016838e-06	-1.786750e-11	-1.532651e+01	9.389622e-02
3.800000e-07	-2.011054e-06	-2.099770e-11	-1.528256e+01	4.777109e-02
3.900000e-07	-2.005173e-06	-1.657361e-11	-1.523787e+01	-1.225875e-03
4.000000e-07	-1.999138e-06	-1.003309e-11	-1.519200e+01	-5.260459e-02
4.100000e-07	-1.992931e-06	-8.584569e-12	-1.514484e+01	-1.054725e-01
4.200000e-07	-1.986605e-06	-1.818894e-11	-1.509677e+01	-1.585782e-01
4.300000e-07	-1.980165e-06	-2.650056e-11	-1.504783e+01	-2.103862e-01
4.400000e-07	-1.973593e-06	-2.602075e-11	-1.499788e+01	-2.591787e-01
4.500000e-07	-1.966929e-06	-2.597581e-11	-1.494724e+01	-3.031745e-01
4.600000e-07	-1.960149e-06	-2.574011e-11	-1.489572e+01	-3.406562e-01
4.700000e-07	-1.953149e-06	-2.279562e-11	-1.484252e+01	-3.700951e-01
4.800000e-07	-1.945925e-06	-1.714540e-11	-1.478763e+01	-3.902641e-01
4.900000e-07	-1.938580e-06	-2.328513e-11	-1.473181e+01	-4.003288e-01
5.000000e-07	-1.931149e-06	-2.804404e-11	-1.467534e+01	-3.999090e-01
5.100000e-07	-1.923572e-06	-2.765301e-11	-1.461776e+01	-3.891070e-01
5.200000e-07	-1.915836e-06	-2.406314e-11	-1.455897e+01	-3.684991e-01
5.300000e-07	-1.907962e-06	-2.593620e-11	-1.449913e+01	-3.390911e-01
5.400000e-07	-1.899946e-06	-2.202087e-11	-1.443822e+01	-3.022421e-01
5.500000e-07	-1.891810e-06	-2.015619e-11	-1.437639e+01	-2.595627e-01
5.600000e-07	-1.883591e-06	-2.286137e-11	-1.431394e+01	-2.127950e-01
5.700000e-07	-1.875272e-06	-2.893303e-11	-1.425071e+01	-1.636859e-01
5.800000e-07	-1.866784e-06	-2.692824e-11	-1.418621e+01	-1.138623e-01
5.900000e-07	-1.858083e-06	-2.356028e-11	-1.412009e+01	-6.471978e-02
6.000000e-07	-1.849211e-06	-2.099460e-11	-1.405267e+01	-1.733248e-02
6.100000e-07	-1.840223e-06	-2.081778e-11	-1.398437e+01	2.760726e-02
6.200000e-07	-1.831139e-06	-2.015701e-11	-1.391533e+01	6.981582e-02
6.300000e-07	-1.821936e-06	-1.929022e-11	-1.384540e+01	1.094094e-01
6.400000e-07	-1.812601e-06	-1.975671e-11	-1.377446e+01	1.468602e-01
6.500000e-07	-1.803132e-06	-2.088844e-11	-1.370250e+01	1.829221e-01
6.600000e-07	-1.793514e-06	-1.850979e-11	-1.362941e+01	2.185318e-01
6.700000e-07	-1.783774e-06	-1.287851e-11	-1.355539e+01	2.546940e-01
6.800000e-07	-1.773948e-06	-1.155383e-11	-1.348073e+01	2.923615e-01
6.900000e-07	-1.763991e-06	-1.496042e-11	-1.340506e+01	3.323183e-01
7.000000e-07	-1.753824e-06	-1.932780e-11	-1.332779e+01	3.750786e-01
7.100000e-07	-1.743440e-06	-1.731226e-11	-1.324889e+01	4.208075e-01
7.200000e-07	-1.732900e-06	-1.174479e-11	-1.316879e+01	4.692729e-01
7.300000e-07	-1.722254e-06	-1.066794e-11	-1.308789e+01	5.198309e-01
7.400000e-07	-1.711485e-06	-1.221029e-11	-1.300605e+01	5.714476e-01
7.500000e-07	-1.700589e-06	-8.311109e-12	-1.292325e+01	6.227545e-01
7.600000e-07	-1.689570e-06	-5.632936e-12	-1.283951e+01	6.721348e-01
7.700000e-07	-1.678433e-06	-8.554780e-12	-1.275488e+01	7.178324e-01
7.800000e-07	-1.667183e-06	-1.383247e-11	-1.266939e+01	7.580748e-01
7.900000e-07	-1.655838e-06	-1.290431e-11	-1.258317e+01	7.912013e-01
8.000000e-07	-1.644401e-06	-7.039154e-12	-1.249626e+01	8.157842e-01
8.100000e-07	-1.632858e-06	-3.007301e-12	-1.240854e+01	8.307342e-01
8.200000e-07	-1.621189e-06	-3.682139e-12	-1.231986e+01	8.353817e-01
8.300000e-07	-1.609357e-06	-9.094868e-12	-1.222995e+01	8.295263e-01
8.400000e-07	-1.597352e-06	-1.437723e-11	-1.213872e+01	8.134509e-01
8.500000e-07	-1.585218e-06	-1.546766e-11	-1.204651e+01	7.878999e-01
8.600000e-07	-1.573004e-06	-1.434474e-11	-1.195370e+01	7.540220e-01
8.700000e-07	-1.560703e-06	-1.252397e-11	-1.186022e+01	7.132837e-01
8.800000e-07	-1.548299e-06	-1.064904e-11	-1.176595e+01	6.673597e-01
8.900000e-07	-1.535792e-06	-1.064448e-11	-1.167091e+01	6.180087e-01
9.000000e-07	-1.523181e-06	-1.338281e-11	-1.157508e+01	5.669469e-01
9.100000e-07	-1.510452e-06	-1.447977e-11	-1.147835e+01	5.157265e-01
9.200000e-07	-1.497621e-06	-1.301883e-11	-1.138084e+01	4.656315e-01
9.300000e-07	-1.484712e-06	-1.097561e-11	-1.128274e+01	4.175983e-01
9.400000e-07	-1.471712e-06	-9.244909e-12	-1.118395e+01	3.721673e-01
9.500000e-07	-1.458611e-06	-8.853250e-12	-1.108439e+01	3.294691e-01
9.600000e-07	-1.445406e-06	-9.169006e-12	-1.098405e+01	2.892471e-01
9.700000e-07	-1.432061e-06	-9.911839e-12	-1.088263e+01	2.509134e-01
9.800000e-07	-1.418554e-06	-1.339716e-11	-1.077999e+01	2.136328e-01
9.900000e-07	-1.404917e-06	-1.825304e-11	-1.067636e+01	1.764292e-01
1.000000e-06	-1.391196e-06	-2.077992e-11	-1.057209e+01	1.383032e-01
1.010000e-06	-1.377418e-06	-1.996290e-11	-1.046738e+01	9.835229e-02
1.020000e-06	-1.363578e-06	-1.917599e-11	-1.036221e+01	5.588281e-02
1.030000e-06	-1.349663e-06	-1.876205e-11	-1.025647e+01	1.050376e-02
1.040000e-06	-1.335658e-06	-1.896948e-11	-1.015004e+01	-3.780502e-02
1.050000e-06	-1.321545e-06	-1.976019e-11	-1.004279e+01	-8.865672e-02
1.060000e-06	-1.307324e-06	-1.997772e-11	-9.934723e+00	-1.412567e-01
1.070000e-06	-1.292996e-06	-2.201289e-11	-9.825837e+00	-1.944374e-01
1.080000e-06	-1.278561e-06	-2.611988e-11	-9.716142e+00	-2.467256e-01
1.090000e-06	-1.264055e-06	-2.948851e-11	-9.605906e+00	-2.964387e-01
1.100000e-06	-1.249484e-06	-3.007313e-11	-9.495178e+00	-3.417994e-01
1.110000e-06	-1.234846e-06	-2.987771e-11	-9.383937e+00	-3.810623e-01
1.120000e-06	-1.220159e-06	-2.969987e-11	-9.272326e+00	-4.126404e-01
1.130000e-06	-1.205388e-06	-2.822567e-11	-9.160077e+00	-4.352218e-01
1.140000e-06	-1.190473e-06	-2.618023e-11	-9.046734e+00	-4.478667e-01
1.150000e-06	-1.175403e-06	-2.450994e-11	-8.932213e+00	-4.500774e-01
1.160000e-06	-1.160193e-06	-2.393552e-11	-8.816627e+00	-4.418350e-01
1.170000e-06	-1.144889e-06	-2.544977e-11	-8.700332e+00	-4.236000e-01
1.180000e-06	-1.129524e-06	-2.765439e-11	-8.583569e+00	-3.962768e-01
1.190000e-06	-1.114084e-06	-2.911124e-11	-8.466234e+00	-3.611450e-01
1.200000e-06	-1.098555e-06	-2.813973e-11	-8.348225e+00	-3.197628e-01
1.210000e-06	-1.082944e-06	-2.680552e-11	-8.229594e+00	-2.738514e-01
1.220000e-06	-1.067266e-06	-2.441902e-11	-8.110448e+00	-2.251684e-01
1.230000e-06	-1.051510e-06	-2.067158e-11	-7.990717e+00	-1.753819e-01
1.240000e-06	-1.035684e-06	-1.786128e-11	-7.870452e+00	-1.259545e-01
1.250000e-06	-1.019783e-06	-1.706942e-11	-7.749614e+00	-7.804787e-02
1.260000e-06	-1.003779e-06	-1.539294e-11	-7.627995e+00	-3.245356e-02
1.270000e-06	-9.876828e-07	-1.408604e-11	-7.505677e+00	1.044203e-02
1.280000e-06	-9.714797e-07	-1.442175e-11	-7.382545e+00	5.065792e-02
1.290000e-06	-9.551777e-07	-1.393001e-11	-7.258662e+00	8.858323e-02
1.300000e-06	-9.388115e-07	-1.262736e-11	-7.134290e+00	1.249098e-01
1.310000e-06	-9.223746e-07	-1.114409e-11	-7.009382e+00	1.605390e-01
1.320000e-06	-9.058901e-07	-1.008967e-11	-6.884112e+00	1.964697e-01
1.330000e-06	-8.893636e-07	-9.016098e-12	-6.758522e+00	2.336789e-01
1.340000e-06	-8.727813e-07	-6.597940e-12	-6.632508e+00	2.730030e-01
1.350000e-06	-8.561319e-07	-3.207386e-12	-6.505985e+00	3.150322e-01
1.360000e-06	-8.394041e-07	-1.972734e-12	-6.378866e+00	3.600247e-01
1.370000e-06	-8.225992e-07	-2.237120e-12	-6.251161e+00	4.078504e-01
1.380000e-06	-8.057257e-07	-2.405163e-12	-6.122934e+00	4.579676e-01
1.390000e-06	-7.888028e-07	-1.789520e-12	-5.994332e+00	5.094361e-01
1.400000e-06	-7.718480e-07	-7.542515e-13	-5.865488e+00	5.609640e-01
1.410000e-06	-7.548710e-07	1.087016e-12	-5.736475e+00	6.109872e-01
1.420000e-06	-7.378793e-07	5.034737e-12	-5.607350e+00	6.577732e-01
1.430000e-06	-7.208766e-07	9.398732e-12	-5.478142e+00	6.995417e-01
1.440000e-06	-7.038433e-07	9.682167e-12	-5.348701e+00	7.345921e-01
1.450000e-06	-6.867542e-07	8.058404e-12	-5.218837e+00	7.614278e-01
1.460000e-06	-6.696034e-07	7.430971e-12	-5.088502e+00	7.788663e-01
1.470000e-06	-6.523880e-07	7.515097e-12	-4.957678e+00	7.861271e-01
1.480000e-06	-6.351313e-07	7.748731e-12	-4.826540e+00	7.828896e-01
1.490000e-06	-6.178339e-07	6.203806e-12	-4.695092e+00	7.693168e-01
1.500000e-06	-6.004890e-07	3.867458e-12	-4.563283e+00	7.460414e-01
1.510000e-06	-5.831087e-07	2.530121e-12	-4.431205e+00	7.141185e-01
1.520000e-06	-5.656996e-07	3.379376e-12	-4.298909e+00	6.749444e-01
1.530000e-06	-5.482604e-07	5.655220e-12	-4.166384e+00	6.301530e-01
1.540000e-06	-5.307851e-07	9.252682e-12	-4.033584e+00	5.814941e-01
1.550000e-06	-5.132847e-07	1.217208e-11	-3.900593e+00	5.307062e-01
1.560000e-06	-4.957359e-07	1.277322e-11	-3.767235e+00	4.793929e-01
1.570000e-06	-4.781320e-07	1.028978e-11	-3.633458e+00	4.289141e-01
1.580000e-06	-4.604895e-07	7.551329e-12	-3.499388e+00	3.802989e-01
1.590000e-06	-4.428196e-07	6.156442e-12	-3.365110e+00	3.341891e-01
1.600000e-06	-4.251254e-07	4.492613e-12	-3.230646e+00	2.908174e-01
1.610000e-06	-4.073928e-07	8.151398e-13	-3.095891e+00	2.500198e-01
1.620000e-06	-3.896412e-07	-8.426375e-13	-2.960992e+00	2.112843e-01
1.630000e-06	-3.718789e-07	2.457618e-12	-2.826011e+00	1.738284e-01
1.640000e-06	-3.541019e-07	6.412937e-12	-2.690919e+00	1.367004e-01
1.650000e-06	-3.363152e-07	8.969018e-12	-2.555753e+00	9.889536e-02
1.660000e-06	-3.185226e-07	8.795597e-12	-2.420542e+00	5.947567e-02
1.670000e-06	-3.007175e-07	7.859740e-12	-2.285236e+00	1.768572e-02
1.680000e-06	-2.829036e-07	5.940864e-12	-2.149863e+00	-2.694869e-02
1.690000e-06	-2.650911e-07	4.214953e-12	-2.014501e+00	-7.454511e-02
1.700000e-06	-2.472762e-07	3.646256e-12	-1.879120e+00	-1.248200e-01
1.710000e-06	-2.294570e-07	3.407284e-12	-1.743707e+00	-1.770787e-01
1.720000e-06	-2.116176e-07	2.475747e-12	-1.608141e+00	-2.302418e-01
1.730000e-06	-1.937634e-07	-1.556807e-13	-1.472462e+00	-2.829046e-01
1.740000e-06	-1.759082e-07	-2.029119e-12	-1.336776e+00	-3.334265e-01
1.750000e-06	-1.580369e-07	-1.086283e-12	-1.200966e+00	-3.800423e-01
1.760000e-06	-1.401446e-07	1.560624e-12	-1.064998e+00	-4.209867e-01
1.770000e-06	-1.222381e-07	1.320275e-12	-9.289217e-01	-4.546217e-01
1.780000e-06	-1.043165e-07	-3.701683e-12	-7.927300e-01	-4.795563e-01
1.790000e-06	-8.638390e-08	-7.373048e-12	-6.564553e-01	-4.947502e-01
1.800000e-06	-6.844547e-08	-5.477603e-12	-5.201362e-01	-4.995902e-01
1.810000e-06	-5.051619e-08	-3.176208e-12	-3.838866e-01	-4.939363e-01
1.820000e-06	-3.259846e-08	-1.128449e-12	-2.477248e-01	-4.781310e-01
1.830000e-06	-1.467000e-08	3.286891e-12	-1.114814e-01	-4.529731e-01
1.840000e-06	3.256621e-09	8.194928e-12	2.474797e-02	-4.196564e-01
1.850000e-06	2.118580e-08	1.083962e-11	1.609968e-01	-3.796797e-01
1.860000e-06	3.912314e-08	9.494270e-12	2.973076e-01	-3.347351e-01
1.870000e-06	5.706495e-08	5.199455e-12	4.336525e-01	-2.865830e-01
1.880000e-06	7.500742e-08	1.307808e-12	5.700023e-01	-2.369254e-01
1.890000e-06	9.293577e-08	5.345986e-13	7.062448e-01	-1.872862e-01
1.900000e-06	1.108587e-07	2.009750e-12	8.424460e-01	-1.389098e-01
1.910000e-06	1.287763e-07	5.301974e-12	9.786069e-01	-9.268505e-02
1.920000e-06	1.466686e-07	8.849459e-12	1.114575e+00	-4.910107e-02
1.930000e-06	1.645369e-07	1.258010e-11	1.250362e+00	-8.238194e-03
1.940000e-06	1.824043e-07	1.576791e-11	1.386141e+00	3.020530e-02
1.950000e-06	2.002564e-07	1.407202e-11	1.521804e+00	6.685346e-02
1.960000e-06	2.180907e-07	9.896750e-12	1.657332e+00	1.025651e-01
1.970000e-06	2.359228e-07	7.667137e-12	1.792843e+00	1.383259e-01
1.980000e-06	2.537438e-07	7.279571e-12	1.928270e+00	1.751296e-01
1.990000e-06	2.715544e-07	7.874620e-12	2.063618e+00	2.138585e-01
2.000000e-06	2.893623e-07	9.733701e-12	2.198945e+00	2.551730e-01
2.010000e-06	3.071638e-07	1.280728e-11	2.334223e+00	2.994210e-01
2.020000e-06	3.249554e-07	1.570595e-11	2.469426e+00	3.465730e-01
2.030000e-06	3.427357e-07	1.725511e-11	2.604544e+00	3.961905e-01
2.040000e-06	3.605052e-07	1.712466e-11	2.739580e+00	4.474297e-01
2.050000e-06	3.782608e-07	1.515895e-11	2.874509e+00	4.990804e-01
2.060000e-06	3.960037e-07	1.401941e-11	3.009342e+00	5.496376e-01
2.070000e-06	4.137229e-07	1.547508e-11	3.143996e+00	5.974001e-01
2.080000e-06	4.314057e-07	1.696474e-11	3.278372e+00	6.405876e-01
2.090000e-06	4.490615e-07	1.880369e-11	3.412543e+00	6.774678e-01
2.100000e-06	4.666844e-07	2.066583e-11	3.546465e+00	7.064820e-01
2.110000e-06	4.842480e-07	2.103678e-11	3.679935e+00	7.263600e-01
2.120000e-06	5.017704e-07	2.112693e-11	3.813093e+00	7.362139e-01
2.130000e-06	5.192699e-07	2.023156e-11	3.946077e+00	7.356047e-01
2.140000e-06	5.367420e-07	1.872757e-11	4.078852e+00	7.245741e-01
2.150000e-06	5.541855e-07	1.929827e-11	4.211410e+00	7.036409e-01
2.160000e-06	5.715821e-07	2.100442e-11	4.343611e+00	6.737606e-01
2.170000e-06	5.889320e-07	1.997273e-11	4.475458e+00	6.362534e-01
2.180000e-06	6.062497e-07	1.806250e-11	4.607061e+00	5.927047e-01
2.190000e-06	6.235342e-07	1.614598e-11	4.738410e+00	5.448471e-01
2.200000e-06	6.407740e-07	1.458075e-11	4.869420e+00	4.944338e-01
2.210000e-06	6.579566e-07	1.411637e-11	4.999996e+00	4.431132e-01
2.220000e-06	6.750847e-07	1.369121e-11	5.130156e+00	3.923151e-01
2.230000e-06	6.921669e-07	1.322488e-11	5.259969e+00	3.431580e-01
2.240000e-06	7.092006e-07	1.108295e-11	5.389413e+00	2.963841e-01
2.250000e-06	7.261986e-07	8.573057e-12	5.518586e+00	2.523283e-01
2.260000e-06	7.431848e-07	5.885650e-12	5.647668e+00	2.109227e-01
2.270000e-06	7.601539e-07	3.690949e-12	5.776622e+00	1.717360e-01
2.280000e-06	7.770851e-07	2.280321e-12	5.905286e+00	1.340447e-01
2.290000e-06	7.939751e-07	2.828885e-12	6.033638e+00	9.692891e-02
2.300000e-06	8.108141e-07	6.402937e-12	6.161602e+00	5.938574e-02
2.310000e-06	8.275811e-07	9.863011e-12	6.289019e+00	2.044953e-02
2.320000e-06	8.442636e-07	8.340429e-12	6.415794e+00	-2.069092e-02
2.330000e-06	8.608631e-07	5.006545e-12	6.541938e+00	-6.458824e-02
2.340000e-06	8.773853e-07	3.453741e-12	6.667496e+00	-1.114546e-01
2.350000e-06	8.938355e-07	2.600287e-12	6.792505e+00	-1.611091e-01
2.360000e-06	9.102405e-07	7.239036e-13	6.917171e+00	-2.129588e-01
2.370000e-06	9.266212e-07	-2.108745e-12	7.041653e+00	-2.660161e-01
2.380000e-06	9.429435e-07	-3.360766e-12	7.165691e+00	-3.189503e-01
2.390000e-06	9.591865e-07	-1.564448e-12	7.289126e+00	-3.701701e-01
2.400000e-06	9.753547e-07	1.176763e-12	7.411992e+00	-4.179302e-01
2.410000e-06	9.914431e-07	1.714632e-12	7.534253e+00	-4.604531e-01
2.420000e-06	1.007431e-06	1.547987e-12	7.655752e+00	-4.960574e-01
2.430000e-06	1.023321e-06	-1.688377e-13	7.776504e+00	-5.232799e-01
2.440000e-06	1.039157e-06	-1.995628e-12	7.896847e+00	-5.409842e-01
2.450000e-06	1.054937e-06	-4.975538e-12	8.016759e+00	-5.484447e-01
2.460000e-06	1.070630e-06	-6.908827e-12	8.136014e+00	-5.454008e-01
2.470000e-06	1.086241e-06	-4.063505e-12	8.254650e+00	-5.320756e-01
2.480000e-06	1.101766e-06	1.110290e-12	8.372625e+00	-5.091580e-01
2.490000e-06	1.117203e-06	3.776829e-12	8.489935e+00	-4.777506e-01
2.500000e-06	1.132586e-06	3.188634e-12	8.606835e+00	-4.392858e-01
2.510000e-06	1.147919e-06	1.970257e-12	8.723358e+00	-3.954186e-01
2.520000e-06	1.163165e-06	2.309178e-12	8.839216e+00	-3.479044e-01
2.530000e-06	1.178269e-06	3.624158e-12	8.953997e+00	-2.984714e-01
2.540000e-06	1.193205e-06	4.030772e-12	9.067497e+00	-2.486985e-01
2.550000e-06	1.207995e-06	6.610321e-12	9.179889e+00	-1.999081e-01
2.560000e-06	1.222682e-06	1.141584e-11	9.291498e+00	-1.530836e-01
2.570000e-06	1.237304e-06	1.424393e-11	9.402617e+00	-1.088161e-01
2.580000e-06	1.251877e-06	1.410260e-11	9.513359e+00	-6.728711e-02
2.590000e-06	1.266388e-06	1.338612e-11	9.623637e+00	-2.828600e-02
2.600000e-06	1.280820e-06	1.355913e-11	9.733308e+00	8.737940e-03
2.610000e-06	1.295149e-06	1.583635e-11	9.842197e+00	4.459428e-02
2.620000e-06	1.309365e-06	1.718477e-11	9.950233e+00	8.024786e-02
2.630000e-06	1.323495e-06	1.642924e-11	1.005761e+01	1.167018e-01
2.640000e-06	1.337548e-06	1.663927e-11	1.016440e+01	1.548770e-01
2.650000e-06	1.351509e-06	1.901050e-11	1.027050e+01	1.954990e-01
2.660000e-06	1.365386e-06	2.051427e-11	1.037595e+01	2.390009e-01
2.670000e-06	1.379191e-06	1.944789e-11	1.048086e+01	2.854518e-01
2.680000e-06	1.392931e-06	1.809805e-11	1.058527e+01	3.345166e-01
2.690000e-06	1.406589e-06	1.936653e-11	1.068906e+01	3.854505e-01
2.700000e-06	1.420095e-06	2.140504e-11	1.079170e+01	4.371294e-01
2.710000e-06	1.433424e-06	2.060598e-11	1.089299e+01	4.881136e-01
2.720000e-06	1.446610e-06	1.983544e-11	1.099319e+01	5.367407e-01
2.730000e-06	1.459683e-06	2.188705e-11	1.109254e+01	5.812385e-01
2.740000e-06	1.472676e-06	2.494772e-11	1.119128e+01	6.198506e-01
2.750000e-06	1.485597e-06	2.760167e-11	1.128947e+01	6.509634e-01
2.760000e-06	1.498440e-06	3.001525e-11	1.138706e+01	6.732249e-01
2.770000e-06	1.511180e-06	3.088910e-11	1.148388e+01	6.856444e-01
2.780000e-06	1.523822e-06	3.099519e-11	1.157995e+01	6.876660e-01
2.790000e-06	1.536373e-06	2.965675e-11	1.167533e+01	6.792104e-01
2.800000e-06	1.548827e-06	2.690760e-11	1.176997e+01	6.606793e-01
2.810000e-06	1.561185e-06	2.427470e-11	1.186388e+01	6.329247e-01
2.820000e-06	1.573452e-06	2.145956e-11	1.195710e+01	5.971841e-01
2.830000e-06	1.585641e-06	1.989488e-11	1.204973e+01	5.549870e-01
2.840000e-06	1.597734e-06	1.957093e-11	1.214163e+01	5.080408e-01
2.850000e-06	1.609666e-06	2.044889e-11	1.223230e+01	4.581057e-01
2.860000e-06	1.621398e-06	2.103008e-11	1.232146e+01	4.068676e-01
2.870000e-06	1.632976e-06	2.093105e-11	1.240944e+01	3.558206e-01
2.880000e-06	1.644437e-06	1.875421e-11	1.249654e+01	3.061682e-01
2.890000e-06	1.655813e-06	1.509782e-11	1.258299e+01	2.587509e-01
2.900000e-06	1.667096e-06	1.236223e-11	1.266873e+01	2.140066e-01
2.910000e-06	1.678267e-06	1.115181e-11	1.275362e+01	1.719657e-01
2.920000e-06	1.689309e-06	1.142011e-11	1.283753e+01	1.322822e-01
2.930000e-06	1.700232e-06	1.230308e-11	1.292054e+01	9.429743e-02
