# Temperatura_=_20.0
# Concentracion g/m^3_=_10000.0
# C_Vs_to_Am_M_A/Vsm_=_65563218390.804596
# pendiente_HvsI_1/m_=_3716.3
# ordenada_HvsI_A/m_=_1297.0
# frecuencia_Hz_=_135207.92396875157

Tiempo_(s)	Campo_(V.s)	Magnetizacion_(V.s)	Campo_(kA/m)	Magnetizacion_(A/m)
0.000000e+00	-2.129017e-06	-4.609438e-09	-1.613982e+01	-2.972624e+02
1.000000e-08	-2.128973e-06	-4.616984e-09	-1.613949e+01	-2.975449e+02
2.000000e-08	-2.128718e-06	-4.621213e-09	-1.613756e+01	-2.978041e+02
3.000000e-08	-2.128224e-06	-4.618846e-09	-1.613381e+01	-2.980342e+02
4.000000e-08	-2.127585e-06	-4.605558e-09	-1.612897e+01	-2.982307e+02
5.000000e-08	-2.126986e-06	-4.604462e-09	-1.612442e+01	-2.983905e+02
6.000000e-08	-2.126379e-06	-4.615616e-09	-1.611983e+01	-2.985127e+02
7.000000e-08	-2.125630e-06	-4.614797e-09	-1.611414e+01	-2.985980e+02
8.000000e-08	-2.124631e-06	-4.609808e-09	-1.610658e+01	-2.986493e+02
9.000000e-08	-2.123393e-06	-4.607397e-09	-1.609719e+01	-2.986704e+02
1.000000e-07	-2.121969e-06	-4.608280e-09	-1.608639e+01	-2.986662e+02
1.100000e-07	-2.120342e-06	-4.606279e-09	-1.607405e+01	-2.986417e+02
1.200000e-07	-2.118435e-06	-4.597872e-09	-1.605960e+01	-2.986012e+02
1.300000e-07	-2.116324e-06	-4.595676e-09	-1.604359e+01	-2.985481e+02
1.400000e-07	-2.114218e-06	-4.600351e-09	-1.602763e+01	-2.984842e+02
1.500000e-07	-2.112132e-06	-4.603088e-09	-1.601182e+01	-2.984099e+02
1.600000e-07	-2.109875e-06	-4.597505e-09	-1.599471e+01	-2.983242e+02
1.700000e-07	-2.107311e-06	-4.591573e-09	-1.597527e+01	-2.982248e+02
1.800000e-07	-2.104530e-06	-4.591440e-09	-1.595419e+01	-2.981090e+02
1.900000e-07	-2.101656e-06	-4.584817e-09	-1.593240e+01	-2.979739e+02
2.000000e-07	-2.098663e-06	-4.575105e-09	-1.590971e+01	-2.978172e+02
2.100000e-07	-2.095446e-06	-4.574489e-09	-1.588533e+01	-2.976373e+02
2.200000e-07	-2.092031e-06	-4.580705e-09	-1.585944e+01	-2.974339e+02
2.300000e-07	-2.088494e-06	-4.580568e-09	-1.583263e+01	-2.972079e+02
2.400000e-07	-2.084831e-06	-4.567808e-09	-1.580485e+01	-2.969613e+02
2.500000e-07	-2.080979e-06	-4.552532e-09	-1.577565e+01	-2.966968e+02
2.600000e-07	-2.076960e-06	-4.541611e-09	-1.574518e+01	-2.964171e+02
2.700000e-07	-2.072834e-06	-4.534218e-09	-1.571391e+01	-2.961251e+02
2.800000e-07	-2.068599e-06	-4.527618e-09	-1.568180e+01	-2.958227e+02
2.900000e-07	-2.064212e-06	-4.525878e-09	-1.564854e+01	-2.955109e+02
3.000000e-07	-2.059699e-06	-4.527896e-09	-1.561433e+01	-2.951896e+02
3.100000e-07	-2.055080e-06	-4.525354e-09	-1.557931e+01	-2.948578e+02
3.200000e-07	-2.050321e-06	-4.517061e-09	-1.554324e+01	-2.945134e+02
3.300000e-07	-2.045390e-06	-4.503983e-09	-1.550586e+01	-2.941540e+02
3.400000e-07	-2.040320e-06	-4.494585e-09	-1.546742e+01	-2.937772e+02
3.500000e-07	-2.035176e-06	-4.485035e-09	-1.542842e+01	-2.933813e+02
3.600000e-07	-2.029890e-06	-4.477465e-09	-1.538835e+01	-2.929652e+02
3.700000e-07	-2.024374e-06	-4.468944e-09	-1.534654e+01	-2.925291e+02
3.800000e-07	-2.018652e-06	-4.463054e-09	-1.530316e+01	-2.920741e+02
3.900000e-07	-2.012804e-06	-4.452609e-09	-1.525883e+01	-2.916024e+02
4.000000e-07	-2.006841e-06	-4.442621e-09	-1.521362e+01	-2.911168e+02
4.100000e-07	-2.000723e-06	-4.434358e-09	-1.516724e+01	-2.906200e+02
4.200000e-07	-1.994469e-06	-4.423421e-09	-1.511983e+01	-2.901144e+02
4.300000e-07	-1.988093e-06	-4.410037e-09	-1.507149e+01	-2.896015e+02
4.400000e-07	-1.981576e-06	-4.399895e-09	-1.502209e+01	-2.890816e+02
4.500000e-07	-1.974949e-06	-4.393959e-09	-1.497185e+01	-2.885537e+02
4.600000e-07	-1.968225e-06	-4.383660e-09	-1.492087e+01	-2.880154e+02
4.700000e-07	-1.961359e-06	-4.370187e-09	-1.486883e+01	-2.874635e+02
4.800000e-07	-1.954270e-06	-4.355812e-09	-1.481509e+01	-2.868940e+02
4.900000e-07	-1.946979e-06	-4.343346e-09	-1.475981e+01	-2.863031e+02
5.000000e-07	-1.939571e-06	-4.327350e-09	-1.470366e+01	-2.856876e+02
5.100000e-07	-1.932053e-06	-4.311704e-09	-1.464666e+01	-2.850451e+02
5.200000e-07	-1.924392e-06	-4.297574e-09	-1.458858e+01	-2.843750e+02
5.300000e-07	-1.916589e-06	-4.287832e-09	-1.452943e+01	-2.836778e+02
5.400000e-07	-1.908660e-06	-4.278732e-09	-1.446932e+01	-2.829556e+02
5.500000e-07	-1.900591e-06	-4.268020e-09	-1.440815e+01	-2.822115e+02
5.600000e-07	-1.892400e-06	-4.251743e-09	-1.434605e+01	-2.814492e+02
5.700000e-07	-1.884111e-06	-4.235201e-09	-1.428322e+01	-2.806723e+02
5.800000e-07	-1.875697e-06	-4.221022e-09	-1.421943e+01	-2.798841e+02
5.900000e-07	-1.867103e-06	-4.207488e-09	-1.415428e+01	-2.790865e+02
6.000000e-07	-1.858300e-06	-4.192772e-09	-1.408755e+01	-2.782807e+02
6.100000e-07	-1.849341e-06	-4.181112e-09	-1.401963e+01	-2.774661e+02
6.200000e-07	-1.840279e-06	-4.172242e-09	-1.395093e+01	-2.766413e+02
6.300000e-07	-1.831115e-06	-4.160357e-09	-1.388146e+01	-2.758039e+02
6.400000e-07	-1.821820e-06	-4.146669e-09	-1.381100e+01	-2.749515e+02
6.500000e-07	-1.812389e-06	-4.131610e-09	-1.373950e+01	-2.740819e+02
6.600000e-07	-1.802836e-06	-4.114543e-09	-1.366708e+01	-2.731936e+02
6.700000e-07	-1.793161e-06	-4.096716e-09	-1.359374e+01	-2.722864e+02
6.800000e-07	-1.783372e-06	-4.078674e-09	-1.351953e+01	-2.713614e+02
6.900000e-07	-1.773470e-06	-4.057939e-09	-1.344446e+01	-2.704208e+02
7.000000e-07	-1.763410e-06	-4.037874e-09	-1.336820e+01	-2.694678e+02
7.100000e-07	-1.753137e-06	-4.018785e-09	-1.329032e+01	-2.685060e+02
7.200000e-07	-1.742660e-06	-4.005068e-09	-1.321089e+01	-2.675390e+02
7.300000e-07	-1.732035e-06	-3.994358e-09	-1.313035e+01	-2.665694e+02
7.400000e-07	-1.721281e-06	-3.982074e-09	-1.304882e+01	-2.655989e+02
7.500000e-07	-1.710418e-06	-3.967422e-09	-1.296647e+01	-2.646273e+02
7.600000e-07	-1.699463e-06	-3.951918e-09	-1.288343e+01	-2.636530e+02
7.700000e-07	-1.688386e-06	-3.933254e-09	-1.279945e+01	-2.626730e+02
7.800000e-07	-1.677176e-06	-3.912437e-09	-1.271447e+01	-2.616832e+02
7.900000e-07	-1.665864e-06	-3.890639e-09	-1.262872e+01	-2.606792e+02
8.000000e-07	-1.654455e-06	-3.871630e-09	-1.254222e+01	-2.596565e+02
8.100000e-07	-1.642945e-06	-3.854920e-09	-1.245497e+01	-2.586120e+02
8.200000e-07	-1.631326e-06	-3.839844e-09	-1.236689e+01	-2.575436e+02
8.300000e-07	-1.619568e-06	-3.824725e-09	-1.227775e+01	-2.564510e+02
8.400000e-07	-1.607661e-06	-3.806389e-09	-1.218748e+01	-2.553355e+02
8.500000e-07	-1.595590e-06	-3.785705e-09	-1.209597e+01	-2.542000e+02
8.600000e-07	-1.583391e-06	-3.764700e-09	-1.200350e+01	-2.530481e+02
8.700000e-07	-1.571117e-06	-3.744097e-09	-1.191045e+01	-2.518840e+02
8.800000e-07	-1.558746e-06	-3.721925e-09	-1.181666e+01	-2.507113e+02
8.900000e-07	-1.546251e-06	-3.700238e-09	-1.172194e+01	-2.495324e+02
9.000000e-07	-1.533660e-06	-3.678870e-09	-1.162650e+01	-2.483483e+02
9.100000e-07	-1.520986e-06	-3.659369e-09	-1.153041e+01	-2.471582e+02
9.200000e-07	-1.508189e-06	-3.642279e-09	-1.143340e+01	-2.459594e+02
9.300000e-07	-1.495268e-06	-3.626300e-09	-1.133545e+01	-2.447478e+02
9.400000e-07	-1.482263e-06	-3.608051e-09	-1.123686e+01	-2.435185e+02
9.500000e-07	-1.469187e-06	-3.588440e-09	-1.113773e+01	-2.422665e+02
9.600000e-07	-1.456020e-06	-3.568379e-09	-1.103791e+01	-2.409874e+02
9.700000e-07	-1.442739e-06	-3.546701e-09	-1.093723e+01	-2.396784e+02
9.800000e-07	-1.429312e-06	-3.521917e-09	-1.083544e+01	-2.383383e+02
9.900000e-07	-1.415740e-06	-3.495403e-09	-1.073256e+01	-2.369684e+02
1.000000e-06	-1.402043e-06	-3.470275e-09	-1.062872e+01	-2.355717e+02
1.010000e-06	-1.388256e-06	-3.448827e-09	-1.052420e+01	-2.341533e+02
1.020000e-06	-1.374413e-06	-3.430123e-09	-1.041926e+01	-2.327192e+02
1.030000e-06	-1.360501e-06	-3.412557e-09	-1.031380e+01	-2.312756e+02
1.040000e-06	-1.346514e-06	-3.393882e-09	-1.020776e+01	-2.298283e+02
1.050000e-06	-1.332443e-06	-3.372864e-09	-1.010109e+01	-2.283816e+02
1.060000e-06	-1.318269e-06	-3.351264e-09	-9.993642e+00	-2.269379e+02
1.070000e-06	-1.303986e-06	-3.327717e-09	-9.885361e+00	-2.254976e+02
1.080000e-06	-1.289588e-06	-3.301558e-09	-9.776209e+00	-2.240584e+02
1.090000e-06	-1.275084e-06	-3.274993e-09	-9.666261e+00	-2.226166e+02
1.100000e-06	-1.260511e-06	-3.250528e-09	-9.555782e+00	-2.211668e+02
1.110000e-06	-1.245894e-06	-3.228051e-09	-9.444970e+00	-2.197033e+02
1.120000e-06	-1.231221e-06	-3.206297e-09	-9.333740e+00	-2.182206e+02
1.130000e-06	-1.216474e-06	-3.183207e-09	-9.221943e+00	-2.167143e+02
1.140000e-06	-1.201614e-06	-3.159415e-09	-9.109291e+00	-2.151814e+02
1.150000e-06	-1.186603e-06	-3.134942e-09	-8.995493e+00	-2.136213e+02
1.160000e-06	-1.171434e-06	-3.109724e-09	-8.880500e+00	-2.120351e+02
1.170000e-06	-1.156141e-06	-3.083062e-09	-8.764563e+00	-2.104260e+02
1.180000e-06	-1.140771e-06	-3.055526e-09	-8.648045e+00	-2.087984e+02
1.190000e-06	-1.125338e-06	-3.029523e-09	-8.531054e+00	-2.071575e+02
1.200000e-06	-1.109834e-06	-3.006527e-09	-8.413514e+00	-2.055085e+02
1.210000e-06	-1.094237e-06	-2.985187e-09	-8.295278e+00	-2.038559e+02
1.220000e-06	-1.078569e-06	-2.962390e-09	-8.176505e+00	-2.022033e+02
1.230000e-06	-1.062847e-06	-2.939218e-09	-8.057312e+00	-2.005524e+02
1.240000e-06	-1.047036e-06	-2.916623e-09	-7.937454e+00	-1.989036e+02
1.250000e-06	-1.031139e-06	-2.892240e-09	-7.816939e+00	-1.972554e+02
1.260000e-06	-1.015135e-06	-2.867592e-09	-7.695613e+00	-1.956055e+02
1.270000e-06	-9.990265e-07	-2.844535e-09	-7.573500e+00	-1.939506e+02
1.280000e-06	-9.828308e-07	-2.821199e-09	-7.450722e+00	-1.922872e+02
1.290000e-06	-9.665268e-07	-2.796052e-09	-7.327123e+00	-1.906120e+02
1.300000e-06	-9.501483e-07	-2.769816e-09	-7.202960e+00	-1.889223e+02
1.310000e-06	-9.337168e-07	-2.744034e-09	-7.078395e+00	-1.872162e+02
1.320000e-06	-9.172364e-07	-2.720225e-09	-6.953459e+00	-1.854926e+02
1.330000e-06	-9.007106e-07	-2.696497e-09	-6.828178e+00	-1.837512e+02
1.340000e-06	-8.841277e-07	-2.670295e-09	-6.702466e+00	-1.819925e+02
1.350000e-06	-8.674794e-07	-2.644043e-09	-6.576257e+00	-1.802171e+02
1.360000e-06	-8.507763e-07	-2.618719e-09	-6.449633e+00	-1.784261e+02
1.370000e-06	-8.340146e-07	-2.591556e-09	-6.322565e+00	-1.766203e+02
1.380000e-06	-8.171702e-07	-2.560006e-09	-6.194869e+00	-1.748006e+02
1.390000e-06	-8.002592e-07	-2.529028e-09	-6.066669e+00	-1.729678e+02
1.400000e-06	-7.833042e-07	-2.502938e-09	-5.938135e+00	-1.711228e+02
1.410000e-06	-7.663139e-07	-2.479557e-09	-5.809333e+00	-1.692665e+02
1.420000e-06	-7.492996e-07	-2.454979e-09	-5.680350e+00	-1.674005e+02
1.430000e-06	-7.322618e-07	-2.428492e-09	-5.551189e+00	-1.655264e+02
1.440000e-06	-7.151921e-07	-2.401501e-09	-5.421785e+00	-1.636468e+02
1.450000e-06	-6.980905e-07	-2.374478e-09	-5.292140e+00	-1.617644e+02
1.460000e-06	-6.809468e-07	-2.345812e-09	-5.162176e+00	-1.598819e+02
1.470000e-06	-6.637542e-07	-2.312650e-09	-5.031840e+00	-1.580021e+02
1.480000e-06	-6.465021e-07	-2.278727e-09	-4.901054e+00	-1.561268e+02
1.490000e-06	-6.291775e-07	-2.247864e-09	-4.769719e+00	-1.542572e+02
1.500000e-06	-6.118148e-07	-2.220186e-09	-4.638094e+00	-1.523925e+02
1.510000e-06	-5.944271e-07	-2.193978e-09	-4.506281e+00	-1.505308e+02
1.520000e-06	-5.770059e-07	-2.168370e-09	-4.374212e+00	-1.486682e+02
1.530000e-06	-5.595540e-07	-2.143753e-09	-4.241912e+00	-1.467995e+02
1.540000e-06	-5.420784e-07	-2.118522e-09	-4.109431e+00	-1.449185e+02
1.550000e-06	-5.245695e-07	-2.090624e-09	-3.976698e+00	-1.430185e+02
1.560000e-06	-5.070172e-07	-2.058554e-09	-3.843637e+00	-1.410932e+02
1.570000e-06	-4.894069e-07	-2.023798e-09	-3.710135e+00	-1.391371e+02
1.580000e-06	-4.717405e-07	-1.990255e-09	-3.576208e+00	-1.371465e+02
1.590000e-06	-4.540483e-07	-1.957775e-09	-3.442086e+00	-1.351195e+02
1.600000e-06	-4.363195e-07	-1.925110e-09	-3.307686e+00	-1.330568e+02
1.610000e-06	-4.185594e-07	-1.894384e-09	-3.173048e+00	-1.309611e+02
1.620000e-06	-4.007912e-07	-1.864300e-09	-3.038350e+00	-1.288370e+02
1.630000e-06	-3.830084e-07	-1.834183e-09	-2.903541e+00	-1.266906e+02
1.640000e-06	-3.652060e-07	-1.803808e-09	-2.768583e+00	-1.245285e+02
1.650000e-06	-3.473952e-07	-1.771224e-09	-2.633561e+00	-1.223572e+02
1.660000e-06	-3.295782e-07	-1.737636e-09	-2.498493e+00	-1.201822e+02
1.670000e-06	-3.117525e-07	-1.704189e-09	-2.363358e+00	-1.180077e+02
1.680000e-06	-2.939255e-07	-1.671221e-09	-2.228214e+00	-1.158358e+02
1.690000e-06	-2.760992e-07	-1.639311e-09	-2.093075e+00	-1.136669e+02
1.700000e-06	-2.582659e-07	-1.609135e-09	-1.957883e+00	-1.114990e+02
1.710000e-06	-2.404218e-07	-1.580127e-09	-1.822609e+00	-1.093289e+02
1.720000e-06	-2.225533e-07	-1.549794e-09	-1.687150e+00	-1.071522e+02
1.730000e-06	-2.046679e-07	-1.515866e-09	-1.551563e+00	-1.049641e+02
1.740000e-06	-1.867781e-07	-1.480954e-09	-1.415942e+00	-1.027601e+02
1.750000e-06	-1.688645e-07	-1.450362e-09	-1.280141e+00	-1.005364e+02
1.760000e-06	-1.509108e-07	-1.420031e-09	-1.144037e+00	-9.829032e+01
1.770000e-06	-1.329365e-07	-1.386100e-09	-1.007776e+00	-9.602050e+01
1.780000e-06	-1.149616e-07	-1.348056e-09	-8.715103e-01	-9.372697e+01
1.790000e-06	-9.699478e-08	-1.307622e-09	-7.353058e-01	-9.141090e+01
1.800000e-06	-7.902639e-08	-1.268538e-09	-5.990895e-01	-8.907426e+01
1.810000e-06	-6.105052e-08	-1.231754e-09	-4.628167e-01	-8.671945e+01
1.820000e-06	-4.307293e-08	-1.198637e-09	-3.265307e-01	-8.434890e+01
1.830000e-06	-2.509163e-08	-1.170807e-09	-1.902166e-01	-8.196472e+01
1.840000e-06	-7.107585e-09	-1.148611e-09	-5.388175e-02	-7.956845e+01
1.850000e-06	1.088919e-08	-1.125086e-09	8.254966e-02	-7.716101e+01
1.860000e-06	2.887231e-08	-1.093442e-09	2.188775e-01	-7.474270e+01
1.870000e-06	4.682490e-08	-1.053130e-09	3.549740e-01	-7.231337e+01
1.880000e-06	6.479177e-08	-1.007837e-09	4.911786e-01	-6.987266e+01
1.890000e-06	8.277597e-08	-9.631761e-10	6.275146e-01	-6.742019e+01
1.900000e-06	1.007474e-07	-9.236813e-10	7.637539e-01	-6.495581e+01
1.910000e-06	1.187008e-07	-8.897288e-10	8.998564e-01	-6.247974e+01
1.920000e-06	1.366397e-07	-8.601922e-10	1.035849e+00	-5.999257e+01
1.930000e-06	1.545625e-07	-8.331650e-10	1.171720e+00	-5.749521e+01
1.940000e-06	1.724692e-07	-8.050121e-10	1.307468e+00	-5.498872e+01
1.950000e-06	1.903692e-07	-7.703922e-10	1.443166e+00	-5.247409e+01
1.960000e-06	2.082528e-07	-7.285247e-10	1.578739e+00	-4.995203e+01
1.970000e-06	2.261181e-07	-6.853136e-10	1.714174e+00	-4.742272e+01
1.980000e-06	2.439710e-07	-6.436793e-10	1.849515e+00	-4.488575e+01
1.990000e-06	2.618124e-07	-6.019770e-10	1.984769e+00	-4.234007e+01
2.000000e-06	2.796504e-07	-5.619733e-10	2.119996e+00	-3.978412e+01
2.010000e-06	2.974828e-07	-5.275792e-10	2.255181e+00	-3.721597e+01
2.020000e-06	3.153092e-07	-4.977402e-10	2.390321e+00	-3.463364e+01
2.030000e-06	3.331282e-07	-4.662309e-10	2.525405e+00	-3.203537e+01
2.040000e-06	3.509286e-07	-4.283845e-10	2.660347e+00	-2.941992e+01
2.050000e-06	3.687123e-07	-3.875118e-10	2.795163e+00	-2.678672e+01
2.060000e-06	3.864893e-07	-3.463532e-10	2.929929e+00	-2.413602e+01
2.070000e-06	4.042446e-07	-3.052953e-10	3.064530e+00	-2.146885e+01
2.080000e-06	4.219638e-07	-2.634249e-10	3.198857e+00	-1.878689e+01
2.090000e-06	4.396520e-07	-2.215181e-10	3.332949e+00	-1.609220e+01
2.100000e-06	4.573181e-07	-1.832299e-10	3.466873e+00	-1.338698e+01
2.110000e-06	4.749659e-07	-1.470051e-10	3.600659e+00	-1.067320e+01
2.120000e-06	4.925863e-07	-1.097355e-10	3.734237e+00	-7.952382e+00
2.130000e-06	5.101650e-07	-7.076658e-11	3.867499e+00	-5.225416e+00
2.140000e-06	5.277029e-07	-3.085929e-11	4.000452e+00	-2.492467e+00
2.150000e-06	5.452039e-07	7.818629e-12	4.133125e+00	2.469532e-01
2.160000e-06	5.626715e-07	4.675334e-11	4.265545e+00	2.993820e+00
2.170000e-06	5.801021e-07	8.909357e-11	4.397684e+00	5.749347e+00
2.180000e-06	5.974912e-07	1.333394e-10	4.529509e+00	8.514695e+00
2.190000e-06	6.148399e-07	1.761813e-10	4.661027e+00	1.129069e+01
2.200000e-06	6.321394e-07	2.188953e-10	4.792173e+00	1.407763e+01
2.210000e-06	6.493744e-07	2.639715e-10	4.922829e+00	1.687510e+01
2.220000e-06	6.665549e-07	3.087087e-10	5.053073e+00	1.968204e+01
2.230000e-06	6.836964e-07	3.500418e-10	5.183020e+00	2.249683e+01
2.240000e-06	7.007924e-07	3.894141e-10	5.312623e+00	2.531753e+01
2.250000e-06	7.178524e-07	4.298099e-10	5.441953e+00	2.814213e+01
2.260000e-06	7.348944e-07	4.719255e-10	5.571146e+00	3.096892e+01
2.270000e-06	7.519207e-07	5.131231e-10	5.700221e+00	3.379673e+01
2.280000e-06	7.689200e-07	5.525191e-10	5.829090e+00	3.662516e+01
2.290000e-06	7.858811e-07	5.931014e-10	5.957670e+00	3.945463e+01
2.300000e-06	8.027812e-07	6.344850e-10	6.085788e+00	4.228638e+01
2.310000e-06	8.196106e-07	6.734758e-10	6.213369e+00	4.512229e+01
2.320000e-06	8.363772e-07	7.117881e-10	6.340475e+00	4.796459e+01
2.330000e-06	8.530558e-07	7.522898e-10	6.466914e+00	5.081558e+01
2.340000e-06	8.696406e-07	7.939854e-10	6.592641e+00	5.367722e+01
2.350000e-06	8.861782e-07	8.360412e-10	6.718010e+00	5.655087e+01
2.360000e-06	9.026630e-07	8.786311e-10	6.842979e+00	5.943702e+01
2.370000e-06	9.190878e-07	9.237404e-10	6.967494e+00	6.233524e+01
2.380000e-06	9.354721e-07	9.707749e-10	7.091701e+00	6.524409e+01
2.390000e-06	9.517917e-07	1.015383e-09	7.215418e+00	6.816137e+01
2.400000e-06	9.680454e-07	1.057257e-09	7.338636e+00	7.108428e+01
2.410000e-06	9.842366e-07	1.098994e-09	7.461379e+00	7.400973e+01
2.420000e-06	1.000320e-06	1.142064e-09	7.583306e+00	7.693470e+01
2.430000e-06	1.016293e-06	1.185526e-09	7.704393e+00	7.985647e+01
2.440000e-06	1.032195e-06	1.227890e-09	7.824947e+00	8.277292e+01
2.450000e-06	1.048038e-06	1.270981e-09	7.945049e+00	8.568257e+01
2.460000e-06	1.063804e-06	1.314996e-09	8.064570e+00	8.858468e+01
2.470000e-06	1.079477e-06	1.356895e-09	8.183389e+00	9.147914e+01
2.480000e-06	1.095062e-06	1.396849e-09	8.301534e+00	9.436631e+01
2.490000e-06	1.110573e-06	1.437115e-09	8.419123e+00	9.724683e+01
2.500000e-06	1.126017e-06	1.479026e-09	8.536198e+00	1.001214e+02
2.510000e-06	1.141393e-06	1.522604e-09	8.652762e+00	1.029905e+02
2.520000e-06	1.156701e-06	1.566111e-09	8.768807e+00	1.058545e+02
2.530000e-06	1.171897e-06	1.607512e-09	8.884009e+00	1.087133e+02
2.540000e-06	1.186936e-06	1.646579e-09	8.998017e+00	1.115663e+02
2.550000e-06	1.201828e-06	1.683973e-09	9.110911e+00	1.144129e+02
2.560000e-06	1.216613e-06	1.721706e-09	9.222995e+00	1.172521e+02
2.570000e-06	1.231313e-06	1.760436e-09	9.334437e+00	1.200828e+02
2.580000e-06	1.245948e-06	1.801714e-09	9.445379e+00	1.229043e+02
2.590000e-06	1.260529e-06	1.844393e-09	9.555916e+00	1.257158e+02
2.600000e-06	1.275030e-06	1.886042e-09	9.665850e+00	1.285167e+02
2.610000e-06	1.289427e-06	1.927975e-09	9.774989e+00	1.313068e+02
2.620000e-06	1.303721e-06	1.970701e-09	9.883356e+00	1.340859e+02
2.630000e-06	1.317932e-06	2.012545e-09	9.991085e+00	1.368538e+02
2.640000e-06	1.332073e-06	2.051680e-09	1.009828e+01	1.396103e+02
2.650000e-06	1.346126e-06	2.090697e-09	1.020482e+01	1.423549e+02
2.660000e-06	1.360069e-06	2.131313e-09	1.031052e+01	1.450868e+02
2.670000e-06	1.373929e-06	2.174025e-09	1.041559e+01	1.478049e+02
2.680000e-06	1.387732e-06	2.217275e-09	1.052023e+01	1.505075e+02
2.690000e-06	1.401457e-06	2.259312e-09	1.062428e+01	1.531929e+02
2.700000e-06	1.415068e-06	2.300244e-09	1.072746e+01	1.558592e+02
2.710000e-06	1.428534e-06	2.339891e-09	1.082955e+01	1.585044e+02
2.720000e-06	1.441844e-06	2.377739e-09	1.093045e+01	1.611269e+02
2.730000e-06	1.455005e-06	2.412548e-09	1.103022e+01	1.637253e+02
2.740000e-06	1.468069e-06	2.447010e-09	1.112926e+01	1.662986e+02
2.750000e-06	1.481078e-06	2.483411e-09	1.122788e+01	1.688466e+02
2.760000e-06	1.494014e-06	2.520392e-09	1.132594e+01	1.713694e+02
2.770000e-06	1.506843e-06	2.556134e-09	1.142319e+01	1.738677e+02
2.780000e-06	1.519556e-06	2.590990e-09	1.151957e+01	1.763424e+02
2.790000e-06	1.532168e-06	2.627417e-09	1.161519e+01	1.787947e+02
2.800000e-06	1.544696e-06	2.665994e-09	1.171015e+01	1.812260e+02
2.810000e-06	1.557124e-06	2.704680e-09	1.180437e+01	1.836372e+02
2.820000e-06	1.569452e-06	2.741948e-09	1.189783e+01	1.860294e+02
2.830000e-06	1.581704e-06	2.779105e-09	1.199071e+01	1.884029e+02
2.840000e-06	1.593869e-06	2.816071e-09	1.208293e+01	1.907581e+02
2.850000e-06	1.605918e-06	2.851845e-09	1.217427e+01	1.930945e+02
2.860000e-06	1.617811e-06	2.885029e-09	1.226443e+01	1.954118e+02
2.870000e-06	1.629511e-06	2.918387e-09	1.235313e+01	1.977090e+02
2.880000e-06	1.641048e-06	2.954077e-09	1.244059e+01	1.999853e+02
2.890000e-06	1.652483e-06	2.988981e-09	1.252728e+01	2.022399e+02
2.900000e-06	1.663833e-06	3.023075e-09	1.261332e+01	2.044717e+02
