# Temperatura_=_20.0
# Concentracion g/m^3_=_10000.0
# C_Vs_to_Am_M_A/Vsm_=_65563218390.804596
# pendiente_HvsI_1/m_=_3716.3
# ordenada_HvsI_A/m_=_1297.0
# frecuencia_Hz_=_135200.56867303402

Tiempo_(s)	Campo_(V.s)	Magnetizacion_(V.s)	Campo_(kA/m)	Magnetizacion_(A/m)
0.000000e+00	-2.042800e-06	-2.281396e-09	-1.614197e+01	-1.469332e+02
1.000000e-08	-2.042811e-06	-2.283863e-09	-1.614206e+01	-1.470472e+02
2.000000e-08	-2.042618e-06	-2.287185e-09	-1.614053e+01	-1.471530e+02
3.000000e-08	-2.042186e-06	-2.279807e-09	-1.613712e+01	-1.472497e+02
4.000000e-08	-2.041588e-06	-2.270845e-09	-1.613239e+01	-1.473363e+02
5.000000e-08	-2.041025e-06	-2.243286e-09	-1.612794e+01	-1.474120e+02
6.000000e-08	-2.040500e-06	-2.265781e-09	-1.612379e+01	-1.474758e+02
7.000000e-08	-2.039841e-06	-2.266176e-09	-1.611859e+01	-1.475272e+02
8.000000e-08	-2.038933e-06	-2.284101e-09	-1.611141e+01	-1.475657e+02
9.000000e-08	-2.037815e-06	-2.294892e-09	-1.610258e+01	-1.475909e+02
1.000000e-07	-2.036525e-06	-2.294600e-09	-1.609239e+01	-1.476026e+02
1.100000e-07	-2.035030e-06	-2.295978e-09	-1.608058e+01	-1.476009e+02
1.200000e-07	-2.033272e-06	-2.275683e-09	-1.606668e+01	-1.475859e+02
1.300000e-07	-2.031285e-06	-2.274325e-09	-1.605098e+01	-1.475577e+02
1.400000e-07	-2.029274e-06	-2.263640e-09	-1.603509e+01	-1.475170e+02
1.500000e-07	-2.027309e-06	-2.267474e-09	-1.601956e+01	-1.474641e+02
1.600000e-07	-2.025219e-06	-2.263173e-09	-1.600305e+01	-1.474000e+02
1.700000e-07	-2.022847e-06	-2.270215e-09	-1.598430e+01	-1.473255e+02
1.800000e-07	-2.020236e-06	-2.263686e-09	-1.596367e+01	-1.472417e+02
1.900000e-07	-2.017515e-06	-2.258965e-09	-1.594217e+01	-1.471499e+02
2.000000e-07	-2.014695e-06	-2.247262e-09	-1.591988e+01	-1.470509e+02
2.100000e-07	-2.011691e-06	-2.248156e-09	-1.589615e+01	-1.469460e+02
2.200000e-07	-2.008496e-06	-2.250931e-09	-1.587090e+01	-1.468358e+02
2.300000e-07	-2.005159e-06	-2.261732e-09	-1.584453e+01	-1.467207e+02
2.400000e-07	-2.001689e-06	-2.257221e-09	-1.581712e+01	-1.466008e+02
2.500000e-07	-1.998037e-06	-2.251427e-09	-1.578826e+01	-1.464756e+02
2.600000e-07	-1.994206e-06	-2.240909e-09	-1.575799e+01	-1.463443e+02
2.700000e-07	-1.990273e-06	-2.235204e-09	-1.572691e+01	-1.462060e+02
2.800000e-07	-1.986253e-06	-2.226654e-09	-1.569514e+01	-1.460596e+02
2.900000e-07	-1.982090e-06	-2.226073e-09	-1.566224e+01	-1.459042e+02
3.000000e-07	-1.977784e-06	-2.229193e-09	-1.562822e+01	-1.457393e+02
3.100000e-07	-1.973384e-06	-2.228623e-09	-1.559345e+01	-1.455646e+02
3.200000e-07	-1.968856e-06	-2.219223e-09	-1.555767e+01	-1.453808e+02
3.300000e-07	-1.964160e-06	-2.208101e-09	-1.552057e+01	-1.451891e+02
3.400000e-07	-1.959327e-06	-2.204927e-09	-1.548238e+01	-1.449915e+02
3.500000e-07	-1.954415e-06	-2.203430e-09	-1.544356e+01	-1.447901e+02
3.600000e-07	-1.949392e-06	-2.205816e-09	-1.540387e+01	-1.445877e+02
3.700000e-07	-1.944137e-06	-2.202127e-09	-1.536235e+01	-1.443866e+02
3.800000e-07	-1.938664e-06	-2.202462e-09	-1.531910e+01	-1.441889e+02
3.900000e-07	-1.933085e-06	-2.195814e-09	-1.527502e+01	-1.439961e+02
4.000000e-07	-1.927391e-06	-2.192649e-09	-1.523002e+01	-1.438088e+02
4.100000e-07	-1.921538e-06	-2.184478e-09	-1.518377e+01	-1.436263e+02
4.200000e-07	-1.915550e-06	-2.181878e-09	-1.513645e+01	-1.434471e+02
4.300000e-07	-1.909457e-06	-2.174687e-09	-1.508831e+01	-1.432686e+02
4.400000e-07	-1.903248e-06	-2.174857e-09	-1.503925e+01	-1.430877e+02
4.500000e-07	-1.896915e-06	-2.171834e-09	-1.498920e+01	-1.429007e+02
4.600000e-07	-1.890489e-06	-2.169455e-09	-1.493843e+01	-1.427040e+02
4.700000e-07	-1.883950e-06	-2.161509e-09	-1.488675e+01	-1.424942e+02
4.800000e-07	-1.877192e-06	-2.156402e-09	-1.483335e+01	-1.422687e+02
4.900000e-07	-1.870228e-06	-2.149354e-09	-1.477833e+01	-1.420257e+02
5.000000e-07	-1.863153e-06	-2.142095e-09	-1.472242e+01	-1.417646e+02
5.100000e-07	-1.855984e-06	-2.135402e-09	-1.466577e+01	-1.414855e+02
5.200000e-07	-1.848679e-06	-2.131377e-09	-1.460805e+01	-1.411897e+02
5.300000e-07	-1.841226e-06	-2.127663e-09	-1.454915e+01	-1.408790e+02
5.400000e-07	-1.833633e-06	-2.123530e-09	-1.448916e+01	-1.405554e+02
5.500000e-07	-1.825906e-06	-2.123504e-09	-1.442810e+01	-1.402211e+02
5.600000e-07	-1.818083e-06	-2.118617e-09	-1.436628e+01	-1.398780e+02
5.700000e-07	-1.810169e-06	-2.108659e-09	-1.430375e+01	-1.395274e+02
5.800000e-07	-1.802130e-06	-2.096940e-09	-1.424022e+01	-1.391702e+02
5.900000e-07	-1.793924e-06	-2.090311e-09	-1.417538e+01	-1.388063e+02
6.000000e-07	-1.785526e-06	-2.080492e-09	-1.410902e+01	-1.384354e+02
6.100000e-07	-1.776968e-06	-2.073821e-09	-1.404140e+01	-1.380564e+02
6.200000e-07	-1.768312e-06	-2.071168e-09	-1.397300e+01	-1.376685e+02
6.300000e-07	-1.759563e-06	-2.071569e-09	-1.390386e+01	-1.372705e+02
6.400000e-07	-1.750702e-06	-2.065655e-09	-1.383385e+01	-1.368618e+02
6.500000e-07	-1.741718e-06	-2.056487e-09	-1.376285e+01	-1.364422e+02
6.600000e-07	-1.732597e-06	-2.045956e-09	-1.369078e+01	-1.360118e+02
6.700000e-07	-1.723333e-06	-2.037477e-09	-1.361758e+01	-1.355716e+02
6.800000e-07	-1.713964e-06	-2.027764e-09	-1.354354e+01	-1.351227e+02
6.900000e-07	-1.704499e-06	-2.016797e-09	-1.346876e+01	-1.346666e+02
7.000000e-07	-1.694877e-06	-2.006531e-09	-1.339272e+01	-1.342048e+02
7.100000e-07	-1.685060e-06	-1.998349e-09	-1.331515e+01	-1.337385e+02
7.200000e-07	-1.675064e-06	-1.993139e-09	-1.323616e+01	-1.332687e+02
7.300000e-07	-1.664925e-06	-1.988371e-09	-1.315604e+01	-1.327959e+02
7.400000e-07	-1.654668e-06	-1.980878e-09	-1.307500e+01	-1.323198e+02
7.500000e-07	-1.644296e-06	-1.974774e-09	-1.299304e+01	-1.318399e+02
7.600000e-07	-1.633815e-06	-1.970310e-09	-1.291022e+01	-1.313551e+02
7.700000e-07	-1.623214e-06	-1.962881e-09	-1.282645e+01	-1.308643e+02
7.800000e-07	-1.612475e-06	-1.951106e-09	-1.274159e+01	-1.303664e+02
7.900000e-07	-1.601629e-06	-1.937204e-09	-1.265589e+01	-1.298604e+02
8.000000e-07	-1.590711e-06	-1.926183e-09	-1.256961e+01	-1.293459e+02
8.100000e-07	-1.579700e-06	-1.918979e-09	-1.248261e+01	-1.288228e+02
8.200000e-07	-1.568559e-06	-1.916672e-09	-1.239458e+01	-1.282918e+02
8.300000e-07	-1.557275e-06	-1.915839e-09	-1.230541e+01	-1.277538e+02
8.400000e-07	-1.545842e-06	-1.912665e-09	-1.221506e+01	-1.272100e+02
8.500000e-07	-1.534266e-06	-1.904887e-09	-1.212359e+01	-1.266620e+02
8.600000e-07	-1.522579e-06	-1.894476e-09	-1.203124e+01	-1.261109e+02
8.700000e-07	-1.510822e-06	-1.882539e-09	-1.193834e+01	-1.255576e+02
8.800000e-07	-1.498995e-06	-1.869879e-09	-1.184489e+01	-1.250024e+02
8.900000e-07	-1.487062e-06	-1.858037e-09	-1.175059e+01	-1.244448e+02
9.000000e-07	-1.475024e-06	-1.848276e-09	-1.165547e+01	-1.238840e+02
9.100000e-07	-1.462880e-06	-1.839061e-09	-1.155951e+01	-1.233181e+02
9.200000e-07	-1.450620e-06	-1.832488e-09	-1.146263e+01	-1.227451e+02
9.300000e-07	-1.438273e-06	-1.826062e-09	-1.136507e+01	-1.221626e+02
9.400000e-07	-1.425835e-06	-1.818798e-09	-1.126678e+01	-1.215685e+02
9.500000e-07	-1.413304e-06	-1.809327e-09	-1.116776e+01	-1.209607e+02
9.600000e-07	-1.400679e-06	-1.796507e-09	-1.106800e+01	-1.203378e+02
9.700000e-07	-1.387934e-06	-1.782678e-09	-1.096730e+01	-1.196992e+02
9.800000e-07	-1.375059e-06	-1.769478e-09	-1.086555e+01	-1.190450e+02
9.900000e-07	-1.362045e-06	-1.756189e-09	-1.076272e+01	-1.183762e+02
1.000000e-06	-1.348913e-06	-1.744213e-09	-1.065895e+01	-1.176943e+02
1.010000e-06	-1.335699e-06	-1.735055e-09	-1.055454e+01	-1.170015e+02
1.020000e-06	-1.322432e-06	-1.729693e-09	-1.044971e+01	-1.163001e+02
1.030000e-06	-1.309109e-06	-1.724647e-09	-1.034443e+01	-1.155928e+02
1.040000e-06	-1.295700e-06	-1.715514e-09	-1.023847e+01	-1.148815e+02
1.050000e-06	-1.282187e-06	-1.703541e-09	-1.013170e+01	-1.141681e+02
1.060000e-06	-1.268572e-06	-1.691168e-09	-1.002411e+01	-1.134538e+02
1.070000e-06	-1.254867e-06	-1.678179e-09	-9.915816e+00	-1.127388e+02
1.080000e-06	-1.241077e-06	-1.661570e-09	-9.806848e+00	-1.120231e+02
1.090000e-06	-1.227199e-06	-1.645011e-09	-9.697186e+00	-1.113057e+02
1.100000e-06	-1.213244e-06	-1.633316e-09	-9.586913e+00	-1.105855e+02
1.110000e-06	-1.199224e-06	-1.626930e-09	-9.476127e+00	-1.098607e+02
1.120000e-06	-1.185145e-06	-1.620317e-09	-9.364877e+00	-1.091297e+02
1.130000e-06	-1.170994e-06	-1.610334e-09	-9.253060e+00	-1.083911e+02
1.140000e-06	-1.156739e-06	-1.598998e-09	-9.140417e+00	-1.076436e+02
1.150000e-06	-1.142381e-06	-1.588146e-09	-9.026961e+00	-1.068865e+02
1.160000e-06	-1.127903e-06	-1.575861e-09	-8.912562e+00	-1.061195e+02
1.170000e-06	-1.113283e-06	-1.561462e-09	-8.797035e+00	-1.053428e+02
1.180000e-06	-1.098558e-06	-1.545882e-09	-8.680675e+00	-1.045573e+02
1.190000e-06	-1.083753e-06	-1.533612e-09	-8.563692e+00	-1.037641e+02
1.200000e-06	-1.068867e-06	-1.524583e-09	-8.446063e+00	-1.029646e+02
1.210000e-06	-1.053904e-06	-1.513268e-09	-8.327830e+00	-1.021603e+02
1.220000e-06	-1.038888e-06	-1.497961e-09	-8.209174e+00	-1.013529e+02
1.230000e-06	-1.023798e-06	-1.482506e-09	-8.089931e+00	-1.005436e+02
1.240000e-06	-1.008617e-06	-1.470784e-09	-7.969979e+00	-9.973364e+01
1.250000e-06	-9.933680e-07	-1.460238e-09	-7.849479e+00	-9.892384e+01
1.260000e-06	-9.780492e-07	-1.448286e-09	-7.728432e+00	-9.811465e+01
1.270000e-06	-9.626319e-07	-1.437352e-09	-7.606606e+00	-9.730614e+01
1.280000e-06	-9.471230e-07	-1.428815e-09	-7.484057e+00	-9.649808e+01
1.290000e-06	-9.315298e-07	-1.419143e-09	-7.360841e+00	-9.568992e+01
1.300000e-06	-9.158465e-07	-1.405841e-09	-7.236914e+00	-9.488091e+01
1.310000e-06	-9.001116e-07	-1.389391e-09	-7.112578e+00	-9.407013e+01
1.320000e-06	-8.843354e-07	-1.375366e-09	-6.987916e+00	-9.325661e+01
1.330000e-06	-8.685009e-07	-1.365288e-09	-6.862794e+00	-9.243933e+01
1.340000e-06	-8.526112e-07	-1.354614e-09	-6.737235e+00	-9.161735e+01
1.350000e-06	-8.366677e-07	-1.340258e-09	-6.611251e+00	-9.078976e+01
1.360000e-06	-8.206578e-07	-1.326328e-09	-6.484744e+00	-8.995577e+01
1.370000e-06	-8.045749e-07	-1.314840e-09	-6.357658e+00	-8.911471e+01
1.380000e-06	-7.884146e-07	-1.301771e-09	-6.229962e+00	-8.826602e+01
1.390000e-06	-7.721975e-07	-1.284265e-09	-6.101815e+00	-8.740929e+01
1.400000e-06	-7.559500e-07	-1.266459e-09	-5.973430e+00	-8.654425e+01
1.410000e-06	-7.396664e-07	-1.253219e-09	-5.844758e+00	-8.567075e+01
1.420000e-06	-7.233473e-07	-1.243801e-09	-5.715807e+00	-8.478886e+01
1.430000e-06	-7.070078e-07	-1.234966e-09	-5.586694e+00	-8.389879e+01
1.440000e-06	-6.906476e-07	-1.222938e-09	-5.457418e+00	-8.300094e+01
1.450000e-06	-6.742574e-07	-1.208409e-09	-5.327904e+00	-8.209584e+01
1.460000e-06	-6.578197e-07	-1.192962e-09	-5.198016e+00	-8.118420e+01
1.470000e-06	-6.413299e-07	-1.178305e-09	-5.067715e+00	-8.026676e+01
1.480000e-06	-6.247953e-07	-1.162301e-09	-4.937060e+00	-7.934428e+01
1.490000e-06	-6.081978e-07	-1.145863e-09	-4.805909e+00	-7.841742e+01
1.500000e-06	-5.915555e-07	-1.130924e-09	-4.674403e+00	-7.748663e+01
1.510000e-06	-5.748893e-07	-1.115025e-09	-4.542709e+00	-7.655205e+01
1.520000e-06	-5.581789e-07	-1.099651e-09	-4.410666e+00	-7.561344e+01
1.530000e-06	-5.414303e-07	-1.087641e-09	-4.278320e+00	-7.467012e+01
1.540000e-06	-5.246565e-07	-1.075733e-09	-4.145775e+00	-7.372098e+01
1.550000e-06	-5.078612e-07	-1.062629e-09	-4.013060e+00	-7.276452e+01
1.560000e-06	-4.910251e-07	-1.049200e-09	-3.880024e+00	-7.179901e+01
1.570000e-06	-4.741318e-07	-1.035202e-09	-3.746535e+00	-7.082262e+01
1.580000e-06	-4.571921e-07	-1.021609e-09	-3.612679e+00	-6.983369e+01
1.590000e-06	-4.402227e-07	-1.005989e-09	-3.478589e+00	-6.883094e+01
1.600000e-06	-4.232160e-07	-9.873632e-10	-3.344204e+00	-6.781372e+01
1.610000e-06	-4.061733e-07	-9.683832e-10	-3.209535e+00	-6.678218e+01
1.620000e-06	-3.891160e-07	-9.522945e-10	-3.074750e+00	-6.573736e+01
1.630000e-06	-3.720436e-07	-9.371187e-10	-2.939845e+00	-6.468127e+01
1.640000e-06	-3.549638e-07	-9.220155e-10	-2.804883e+00	-6.361669e+01
1.650000e-06	-3.378880e-07	-9.086900e-10	-2.669952e+00	-6.254703e+01
1.660000e-06	-3.208087e-07	-8.953181e-10	-2.534993e+00	-6.147596e+01
1.670000e-06	-3.037179e-07	-8.785295e-10	-2.399944e+00	-6.040702e+01
1.680000e-06	-2.866102e-07	-8.600375e-10	-2.264761e+00	-5.934325e+01
1.690000e-06	-2.694896e-07	-8.435712e-10	-2.129476e+00	-5.828674e+01
1.700000e-06	-2.523552e-07	-8.285672e-10	-1.994081e+00	-5.723834e+01
1.710000e-06	-2.352058e-07	-8.136803e-10	-1.858569e+00	-5.619748e+01
1.720000e-06	-2.180467e-07	-7.975386e-10	-1.722980e+00	-5.516211e+01
1.730000e-06	-2.008836e-07	-7.813805e-10	-1.587359e+00	-5.412888e+01
1.740000e-06	-1.837109e-07	-7.660593e-10	-1.451663e+00	-5.309342e+01
1.750000e-06	-1.665137e-07	-7.532431e-10	-1.315772e+00	-5.205078e+01
1.760000e-06	-1.492993e-07	-7.412033e-10	-1.179746e+00	-5.099600e+01
1.770000e-06	-1.320685e-07	-7.276476e-10	-1.043590e+00	-4.992463e+01
1.780000e-06	-1.148276e-07	-7.120026e-10	-9.073542e-01	-4.883330e+01
1.790000e-06	-9.757109e-08	-6.912251e-10	-7.709955e-01	-4.772007e+01
1.800000e-06	-8.031181e-08	-6.683479e-10	-6.346146e-01	-4.658469e+01
1.810000e-06	-6.306839e-08	-6.462540e-10	-4.983591e-01	-4.542860e+01
1.820000e-06	-4.583453e-08	-6.258244e-10	-3.621792e-01	-4.425478e+01
1.830000e-06	-2.860920e-08	-6.086465e-10	-2.260666e-01	-4.306735e+01
1.840000e-06	-1.137991e-08	-5.956373e-10	-8.992276e-02	-4.187104e+01
1.850000e-06	5.847589e-09	-5.842939e-10	4.620698e-02	-4.067055e+01
1.860000e-06	2.308238e-08	-5.715843e-10	1.823943e-01	-3.947000e+01
1.870000e-06	4.035089e-08	-5.538645e-10	3.188481e-01	-3.827234e+01
1.880000e-06	5.762522e-08	-5.299303e-10	4.553478e-01	-3.707900e+01
1.890000e-06	7.488007e-08	-5.052465e-10	5.916936e-01	-3.588974e+01
1.900000e-06	9.212152e-08	-4.857505e-10	7.279337e-01	-3.470270e+01
1.910000e-06	1.093394e-07	-4.718420e-10	8.639874e-01	-3.351465e+01
1.920000e-06	1.265352e-07	-4.577726e-10	9.998667e-01	-3.232155e+01
1.930000e-06	1.437409e-07	-4.434965e-10	1.135824e+00	-3.111909e+01
1.940000e-06	1.609484e-07	-4.304880e-10	1.271796e+00	-2.990329e+01
1.950000e-06	1.781329e-07	-4.158120e-10	1.407586e+00	-2.867117e+01
1.960000e-06	1.952980e-07	-3.965164e-10	1.543222e+00	-2.742109e+01
1.970000e-06	2.124490e-07	-3.738270e-10	1.678748e+00	-2.615306e+01
1.980000e-06	2.295878e-07	-3.506271e-10	1.814176e+00	-2.486874e+01
1.990000e-06	2.467174e-07	-3.285383e-10	1.949532e+00	-2.357116e+01
2.000000e-06	2.638470e-07	-3.086661e-10	2.084888e+00	-2.226435e+01
2.010000e-06	2.809685e-07	-2.907535e-10	2.220181e+00	-2.095274e+01
2.020000e-06	2.980756e-07	-2.734320e-10	2.355359e+00	-1.964053e+01
2.030000e-06	3.151741e-07	-2.562333e-10	2.490469e+00	-1.833110e+01
2.040000e-06	3.322665e-07	-2.383406e-10	2.625531e+00	-1.702652e+01
2.050000e-06	3.493477e-07	-2.180796e-10	2.760505e+00	-1.572730e+01
2.060000e-06	3.664129e-07	-1.962078e-10	2.895352e+00	-1.443230e+01
2.070000e-06	3.834533e-07	-1.748421e-10	3.030004e+00	-1.313893e+01
2.080000e-06	4.004534e-07	-1.554672e-10	3.164337e+00	-1.184357e+01
2.090000e-06	4.174335e-07	-1.374018e-10	3.298511e+00	-1.054210e+01
2.100000e-06	4.344040e-07	-1.184142e-10	3.432611e+00	-9.230520e+00
2.110000e-06	4.513485e-07	-9.720959e-11	3.566504e+00	-7.905569e+00
2.120000e-06	4.682523e-07	-7.602917e-11	3.700076e+00	-6.565191e+00
2.130000e-06	4.851041e-07	-5.679496e-11	3.833236e+00	-5.208849e+00
2.140000e-06	5.019155e-07	-3.815378e-11	3.966078e+00	-3.837601e+00
2.150000e-06	5.187029e-07	-1.893135e-11	4.098731e+00	-2.453937e+00
2.160000e-06	5.354692e-07	3.867051e-13	4.231216e+00	-1.061398e+00
2.170000e-06	5.522086e-07	1.908167e-11	4.363488e+00	3.359499e-01
2.180000e-06	5.689035e-07	3.822911e-11	4.495410e+00	1.734133e+00
2.190000e-06	5.855472e-07	6.032016e-11	4.626926e+00	3.129861e+00
2.200000e-06	6.021388e-07	8.176058e-11	4.758032e+00	4.521020e+00
2.210000e-06	6.186811e-07	1.003076e-10	4.888747e+00	5.906989e+00
2.220000e-06	6.351937e-07	1.187077e-10	5.019227e+00	7.288733e+00
2.230000e-06	6.516640e-07	1.387789e-10	5.149374e+00	8.668662e+00
2.240000e-06	6.680804e-07	1.593723e-10	5.279094e+00	1.005028e+01
2.250000e-06	6.844617e-07	1.795327e-10	5.408537e+00	1.143767e+01
2.260000e-06	7.008182e-07	2.011387e-10	5.537784e+00	1.283490e+01
2.270000e-06	7.171457e-07	2.226661e-10	5.666803e+00	1.424544e+01
2.280000e-06	7.334548e-07	2.448989e-10	5.795676e+00	1.567165e+01
2.290000e-06	7.497348e-07	2.676276e-10	5.924318e+00	1.711447e+01
2.300000e-06	7.659783e-07	2.878514e-10	6.052672e+00	1.857327e+01
2.310000e-06	7.821698e-07	3.048357e-10	6.180615e+00	2.004594e+01
2.320000e-06	7.982914e-07	3.230274e-10	6.308007e+00	2.152922e+01
2.330000e-06	8.143442e-07	3.448462e-10	6.434854e+00	2.301911e+01
2.340000e-06	8.302988e-07	3.671641e-10	6.560926e+00	2.451141e+01
2.350000e-06	8.461637e-07	3.889234e-10	6.686288e+00	2.600225e+01
2.360000e-06	8.619697e-07	4.092597e-10	6.811185e+00	2.748857e+01
2.370000e-06	8.777377e-07	4.304589e-10	6.935782e+00	2.896839e+01
2.380000e-06	8.934613e-07	4.537518e-10	7.060028e+00	3.044096e+01
2.390000e-06	9.091151e-07	4.748951e-10	7.183723e+00	3.190673e+01
2.400000e-06	9.247010e-07	4.937077e-10	7.306881e+00	3.336706e+01
2.410000e-06	9.402267e-07	5.134878e-10	7.429563e+00	3.482392e+01
2.420000e-06	9.556660e-07	5.338877e-10	7.551562e+00	3.627945e+01
2.430000e-06	9.710174e-07	5.549470e-10	7.672868e+00	3.773551e+01
2.440000e-06	9.862934e-07	5.775964e-10	7.793576e+00	3.919338e+01
2.450000e-06	1.001499e-06	6.004006e-10	7.913729e+00	4.065354e+01
2.460000e-06	1.016659e-06	6.222722e-10	8.033524e+00	4.211557e+01
2.470000e-06	1.031760e-06	6.437294e-10	8.152847e+00	4.357831e+01
2.480000e-06	1.046760e-06	6.638963e-10	8.271377e+00	4.504002e+01
2.490000e-06	1.061657e-06	6.837051e-10	8.389089e+00	4.649875e+01
2.500000e-06	1.076489e-06	7.036899e-10	8.506289e+00	4.795266e+01
2.510000e-06	1.091268e-06	7.250002e-10	8.623076e+00	4.940034e+01
2.520000e-06	1.105975e-06	7.474695e-10	8.739289e+00	5.084103e+01
2.530000e-06	1.120591e-06	7.686028e-10	8.854777e+00	5.227473e+01
2.540000e-06	1.135078e-06	7.868426e-10	8.969257e+00	5.370214e+01
2.550000e-06	1.149439e-06	8.023391e-10	9.082735e+00	5.512446e+01
2.560000e-06	1.163685e-06	8.196010e-10	9.195301e+00	5.654316e+01
2.570000e-06	1.177818e-06	8.393873e-10	9.306981e+00	5.795958e+01
2.580000e-06	1.191880e-06	8.596855e-10	9.418095e+00	5.937461e+01
2.590000e-06	1.205890e-06	8.833196e-10	9.528802e+00	6.078848e+01
2.600000e-06	1.219834e-06	9.100843e-10	9.638991e+00	6.220053e+01
2.610000e-06	1.233687e-06	9.352835e-10	9.748456e+00	6.360925e+01
2.620000e-06	1.247456e-06	9.555891e-10	9.857255e+00	6.501241e+01
2.630000e-06	1.261141e-06	9.708188e-10	9.965391e+00	6.640733e+01
2.640000e-06	1.274728e-06	9.871264e-10	1.007275e+01	6.779121e+01
2.650000e-06	1.288214e-06	1.006709e-09	1.017932e+01	6.916154e+01
2.660000e-06	1.301601e-06	1.028058e-09	1.028510e+01	7.051646e+01
2.670000e-06	1.314912e-06	1.050584e-09	1.039028e+01	7.185500e+01
2.680000e-06	1.328173e-06	1.073238e-09	1.049507e+01	7.317721e+01
2.690000e-06	1.341388e-06	1.094611e-09	1.059950e+01	7.448417e+01
2.700000e-06	1.354499e-06	1.115710e-09	1.070310e+01	7.577778e+01
2.710000e-06	1.367465e-06	1.135241e-09	1.080555e+01	7.706047e+01
2.720000e-06	1.380284e-06	1.151417e-09	1.090685e+01	7.833480e+01
2.730000e-06	1.392956e-06	1.167403e-09	1.100698e+01	7.960308e+01
2.740000e-06	1.405519e-06	1.185273e-09	1.110625e+01	8.086701e+01
2.750000e-06	1.418002e-06	1.204190e-09	1.120489e+01	8.212736e+01
2.760000e-06	1.430414e-06	1.223835e-09	1.130296e+01	8.338392e+01
2.770000e-06	1.442743e-06	1.244356e-09	1.140039e+01	8.463546e+01
2.780000e-06	1.454980e-06	1.262965e-09	1.149708e+01	8.587999e+01
2.790000e-06	1.467129e-06	1.279303e-09	1.159308e+01	8.711498e+01
2.800000e-06	1.479177e-06	1.295914e-09	1.168829e+01	8.833782e+01
2.810000e-06	1.491120e-06	1.313916e-09	1.178266e+01	8.954616e+01
2.820000e-06	1.502967e-06	1.332297e-09	1.187627e+01	9.073828e+01
2.830000e-06	1.514737e-06	1.351080e-09	1.196928e+01	9.191334e+01
2.840000e-06	1.526452e-06	1.368644e-09	1.206185e+01	9.307150e+01
2.850000e-06	1.538083e-06	1.384378e-09	1.215376e+01	9.421388e+01
2.860000e-06	1.549555e-06	1.398962e-09	1.224441e+01	9.534240e+01
2.870000e-06	1.560819e-06	1.413132e-09	1.233341e+01	9.645948e+01
2.880000e-06	1.571924e-06	1.427251e-09	1.242116e+01	9.756769e+01
2.890000e-06	1.582930e-06	1.443220e-09	1.250813e+01	9.866943e+01
2.900000e-06	1.593843e-06	1.463728e-09	1.259437e+01	9.976656e+01
