# Temperatura_=_20.0
# Concentracion g/m^3_=_10000.0
# C_Vs_to_Am_M_A/Vsm_=_65563218390.804596
# pendiente_HvsI_1/m_=_3716.3
# ordenada_HvsI_A/m_=_1297.0
# frecuencia_Hz_=_135206.75084958598

Tiempo_(s)	Campo_(V.s)	Magnetizacion_(V.s)	Campo_(kA/m)	Magnetizacion_(A/m)
0.000000e+00	-2.129615e-06	-4.637134e-09	-1.614045e+01	-2.990460e+02
1.000000e-08	-2.129497e-06	-4.658346e-09	-1.613955e+01	-2.992985e+02
2.000000e-08	-2.129149e-06	-4.662123e-09	-1.613691e+01	-2.995340e+02
3.000000e-08	-2.128611e-06	-4.627081e-09	-1.613284e+01	-2.997520e+02
4.000000e-08	-2.128030e-06	-4.578515e-09	-1.612844e+01	-2.999515e+02
5.000000e-08	-2.127422e-06	-4.548461e-09	-1.612383e+01	-3.001307e+02
6.000000e-08	-2.126750e-06	-4.672272e-09	-1.611874e+01	-3.002870e+02
7.000000e-08	-2.125900e-06	-4.671820e-09	-1.611229e+01	-3.004178e+02
8.000000e-08	-2.124852e-06	-4.669284e-09	-1.610435e+01	-3.005198e+02
9.000000e-08	-2.123602e-06	-4.664931e-09	-1.609488e+01	-3.005905e+02
1.000000e-07	-2.122149e-06	-4.664399e-09	-1.608386e+01	-3.006276e+02
1.100000e-07	-2.120439e-06	-4.644223e-09	-1.607091e+01	-3.006301e+02
1.200000e-07	-2.118503e-06	-4.584114e-09	-1.605623e+01	-3.005981e+02
1.300000e-07	-2.116485e-06	-4.618822e-09	-1.604094e+01	-3.005329e+02
1.400000e-07	-2.114444e-06	-4.625583e-09	-1.602547e+01	-3.004373e+02
1.500000e-07	-2.112310e-06	-4.636576e-09	-1.600930e+01	-3.003150e+02
1.600000e-07	-2.109954e-06	-4.609506e-09	-1.599144e+01	-3.001704e+02
1.700000e-07	-2.107365e-06	-4.634604e-09	-1.597182e+01	-3.000085e+02
1.800000e-07	-2.104603e-06	-4.637167e-09	-1.595088e+01	-2.998337e+02
1.900000e-07	-2.101703e-06	-4.605798e-09	-1.592891e+01	-2.996501e+02
2.000000e-07	-2.098620e-06	-4.566465e-09	-1.590554e+01	-2.994606e+02
2.100000e-07	-2.095350e-06	-4.582610e-09	-1.588075e+01	-2.992670e+02
2.200000e-07	-2.091915e-06	-4.619343e-09	-1.585472e+01	-2.990695e+02
2.300000e-07	-2.088355e-06	-4.635257e-09	-1.582774e+01	-2.988674e+02
2.400000e-07	-2.084628e-06	-4.598378e-09	-1.579949e+01	-2.986586e+02
2.500000e-07	-2.080726e-06	-4.568369e-09	-1.576992e+01	-2.984404e+02
2.600000e-07	-2.076691e-06	-4.557169e-09	-1.573933e+01	-2.982097e+02
2.700000e-07	-2.072536e-06	-4.557185e-09	-1.570785e+01	-2.979632e+02
2.800000e-07	-2.068252e-06	-4.546234e-09	-1.567538e+01	-2.976983e+02
2.900000e-07	-2.063831e-06	-4.556746e-09	-1.564187e+01	-2.974126e+02
3.000000e-07	-2.059278e-06	-4.569667e-09	-1.560736e+01	-2.971048e+02
3.100000e-07	-2.054603e-06	-4.557884e-09	-1.557193e+01	-2.967744e+02
3.200000e-07	-2.049776e-06	-4.528180e-09	-1.553535e+01	-2.964215e+02
3.300000e-07	-2.044815e-06	-4.512421e-09	-1.549775e+01	-2.960469e+02
3.400000e-07	-2.039757e-06	-4.504049e-09	-1.545941e+01	-2.956520e+02
3.500000e-07	-2.034566e-06	-4.484074e-09	-1.542007e+01	-2.952381e+02
3.600000e-07	-2.029186e-06	-4.480471e-09	-1.537930e+01	-2.948068e+02
3.700000e-07	-2.023598e-06	-4.492040e-09	-1.533694e+01	-2.943592e+02
3.800000e-07	-2.017846e-06	-4.492340e-09	-1.529335e+01	-2.938963e+02
3.900000e-07	-2.011964e-06	-4.453216e-09	-1.524877e+01	-2.934189e+02
4.000000e-07	-2.005937e-06	-4.436270e-09	-1.520309e+01	-2.929271e+02
4.100000e-07	-1.999758e-06	-4.445690e-09	-1.515626e+01	-2.924212e+02
4.200000e-07	-1.993437e-06	-4.445654e-09	-1.510835e+01	-2.919009e+02
4.300000e-07	-1.986969e-06	-4.407873e-09	-1.505933e+01	-2.913659e+02
4.400000e-07	-1.980405e-06	-4.396616e-09	-1.500958e+01	-2.908158e+02
4.500000e-07	-1.973777e-06	-4.407184e-09	-1.495935e+01	-2.902503e+02
4.600000e-07	-1.967031e-06	-4.402153e-09	-1.490822e+01	-2.896686e+02
4.700000e-07	-1.960062e-06	-4.367413e-09	-1.485540e+01	-2.890702e+02
4.800000e-07	-1.952878e-06	-4.354213e-09	-1.480095e+01	-2.884543e+02
4.900000e-07	-1.945556e-06	-4.355693e-09	-1.474546e+01	-2.878200e+02
5.000000e-07	-1.938123e-06	-4.346035e-09	-1.468912e+01	-2.871662e+02
5.100000e-07	-1.930569e-06	-4.325707e-09	-1.463187e+01	-2.864919e+02
5.200000e-07	-1.922882e-06	-4.312912e-09	-1.457361e+01	-2.857960e+02
5.300000e-07	-1.915043e-06	-4.301888e-09	-1.451420e+01	-2.850780e+02
5.400000e-07	-1.907037e-06	-4.290682e-09	-1.445352e+01	-2.843372e+02
5.500000e-07	-1.898913e-06	-4.286299e-09	-1.439195e+01	-2.835741e+02
5.600000e-07	-1.890713e-06	-4.274366e-09	-1.432980e+01	-2.827893e+02
5.700000e-07	-1.882386e-06	-4.252761e-09	-1.426669e+01	-2.819844e+02
5.800000e-07	-1.873899e-06	-4.236795e-09	-1.420237e+01	-2.811616e+02
5.900000e-07	-1.865226e-06	-4.230678e-09	-1.413663e+01	-2.803237e+02
6.000000e-07	-1.856385e-06	-4.210243e-09	-1.406963e+01	-2.794737e+02
6.100000e-07	-1.847423e-06	-4.187018e-09	-1.400170e+01	-2.786147e+02
6.200000e-07	-1.838331e-06	-4.179075e-09	-1.393279e+01	-2.777495e+02
6.300000e-07	-1.829112e-06	-4.177645e-09	-1.386293e+01	-2.768803e+02
6.400000e-07	-1.819774e-06	-4.157258e-09	-1.379215e+01	-2.760087e+02
6.500000e-07	-1.810302e-06	-4.133066e-09	-1.372036e+01	-2.751350e+02
6.600000e-07	-1.800707e-06	-4.116915e-09	-1.364764e+01	-2.742585e+02
6.700000e-07	-1.791004e-06	-4.108263e-09	-1.357410e+01	-2.733778e+02
6.800000e-07	-1.781178e-06	-4.095168e-09	-1.349963e+01	-2.724905e+02
6.900000e-07	-1.771201e-06	-4.078079e-09	-1.342402e+01	-2.715939e+02
7.000000e-07	-1.761054e-06	-4.059591e-09	-1.334711e+01	-2.706849e+02
7.100000e-07	-1.750715e-06	-4.046708e-09	-1.326875e+01	-2.697610e+02
7.200000e-07	-1.740191e-06	-4.038299e-09	-1.318898e+01	-2.688199e+02
7.300000e-07	-1.729542e-06	-4.020982e-09	-1.310828e+01	-2.678605e+02
7.400000e-07	-1.718786e-06	-3.994909e-09	-1.302676e+01	-2.668824e+02
7.500000e-07	-1.707908e-06	-3.977256e-09	-1.294432e+01	-2.658861e+02
7.600000e-07	-1.696906e-06	-3.966263e-09	-1.286092e+01	-2.648730e+02
7.700000e-07	-1.685773e-06	-3.947235e-09	-1.277655e+01	-2.638451e+02
7.800000e-07	-1.674527e-06	-3.922345e-09	-1.269131e+01	-2.628047e+02
7.900000e-07	-1.663193e-06	-3.901535e-09	-1.260541e+01	-2.617541e+02
8.000000e-07	-1.651760e-06	-3.886338e-09	-1.251876e+01	-2.606953e+02
8.100000e-07	-1.640208e-06	-3.870485e-09	-1.243121e+01	-2.596297e+02
8.200000e-07	-1.628508e-06	-3.854148e-09	-1.234254e+01	-2.585581e+02
8.300000e-07	-1.616632e-06	-3.836371e-09	-1.225253e+01	-2.574805e+02
8.400000e-07	-1.604608e-06	-3.818821e-09	-1.216140e+01	-2.563960e+02
8.500000e-07	-1.592479e-06	-3.801447e-09	-1.206947e+01	-2.553035e+02
8.600000e-07	-1.580275e-06	-3.782650e-09	-1.197698e+01	-2.542013e+02
8.700000e-07	-1.567988e-06	-3.761774e-09	-1.188385e+01	-2.530875e+02
8.800000e-07	-1.555587e-06	-3.744575e-09	-1.178987e+01	-2.519604e+02
8.900000e-07	-1.543062e-06	-3.730204e-09	-1.169493e+01	-2.508183e+02
9.000000e-07	-1.530427e-06	-3.711279e-09	-1.159918e+01	-2.496598e+02
9.100000e-07	-1.517685e-06	-3.687976e-09	-1.150261e+01	-2.484838e+02
9.200000e-07	-1.504837e-06	-3.667780e-09	-1.140523e+01	-2.472895e+02
9.300000e-07	-1.491903e-06	-3.650844e-09	-1.130720e+01	-2.460761e+02
9.400000e-07	-1.478900e-06	-3.630420e-09	-1.120865e+01	-2.448431e+02
9.500000e-07	-1.465820e-06	-3.605545e-09	-1.110952e+01	-2.435901e+02
9.600000e-07	-1.452617e-06	-3.581505e-09	-1.100945e+01	-2.423164e+02
9.700000e-07	-1.439264e-06	-3.562614e-09	-1.090825e+01	-2.410217e+02
9.800000e-07	-1.425783e-06	-3.545325e-09	-1.080608e+01	-2.397057e+02
9.900000e-07	-1.412183e-06	-3.523756e-09	-1.070300e+01	-2.383683e+02
1.000000e-06	-1.398468e-06	-3.501084e-09	-1.059905e+01	-2.370098e+02
1.010000e-06	-1.384683e-06	-3.484948e-09	-1.049458e+01	-2.356311e+02
1.020000e-06	-1.370836e-06	-3.471581e-09	-1.038963e+01	-2.342336e+02
1.030000e-06	-1.356898e-06	-3.451461e-09	-1.028399e+01	-2.328190e+02
1.040000e-06	-1.342866e-06	-3.424545e-09	-1.017764e+01	-2.313898e+02
1.050000e-06	-1.328744e-06	-3.398039e-09	-1.007061e+01	-2.299486e+02
1.060000e-06	-1.314525e-06	-3.375918e-09	-9.962843e+00	-2.284980e+02
1.070000e-06	-1.300204e-06	-3.352599e-09	-9.854306e+00	-2.270402e+02
1.080000e-06	-1.285786e-06	-3.326431e-09	-9.745029e+00	-2.255772e+02
1.090000e-06	-1.271276e-06	-3.303690e-09	-9.635060e+00	-2.241098e+02
1.100000e-06	-1.256697e-06	-3.287254e-09	-9.524561e+00	-2.226379e+02
1.110000e-06	-1.242053e-06	-3.270480e-09	-9.413576e+00	-2.211605e+02
1.120000e-06	-1.227319e-06	-3.247243e-09	-9.301909e+00	-2.196755e+02
1.130000e-06	-1.212488e-06	-3.221698e-09	-9.189500e+00	-2.181805e+02
1.140000e-06	-1.197556e-06	-3.198831e-09	-9.076332e+00	-2.166725e+02
1.150000e-06	-1.182493e-06	-3.178457e-09	-8.962172e+00	-2.151486e+02
1.160000e-06	-1.167282e-06	-3.158580e-09	-8.846884e+00	-2.136066e+02
1.170000e-06	-1.151963e-06	-3.135064e-09	-8.730782e+00	-2.120452e+02
1.180000e-06	-1.136579e-06	-3.111899e-09	-8.614181e+00	-2.104640e+02
1.190000e-06	-1.121129e-06	-3.091076e-09	-8.497089e+00	-2.088642e+02
1.200000e-06	-1.105604e-06	-3.069249e-09	-8.379427e+00	-2.072480e+02
1.210000e-06	-1.089994e-06	-3.043074e-09	-8.261113e+00	-2.056186e+02
1.220000e-06	-1.074297e-06	-3.015782e-09	-8.142146e+00	-2.039798e+02
1.230000e-06	-1.058526e-06	-2.992141e-09	-8.022614e+00	-2.023355e+02
1.240000e-06	-1.042684e-06	-2.968528e-09	-7.902553e+00	-2.006891e+02
1.250000e-06	-1.026737e-06	-2.943957e-09	-7.781689e+00	-1.990431e+02
1.260000e-06	-1.010682e-06	-2.919886e-09	-7.660008e+00	-1.973986e+02
1.270000e-06	-9.945350e-07	-2.898786e-09	-7.537627e+00	-1.957553e+02
1.280000e-06	-9.782773e-07	-2.875855e-09	-7.414409e+00	-1.941114e+02
1.290000e-06	-9.619516e-07	-2.850606e-09	-7.290675e+00	-1.924634e+02
1.300000e-06	-9.455707e-07	-2.825114e-09	-7.166524e+00	-1.908072e+02
1.310000e-06	-9.291340e-07	-2.801779e-09	-7.041949e+00	-1.891376e+02
1.320000e-06	-9.126558e-07	-2.780105e-09	-6.917060e+00	-1.874499e+02
1.330000e-06	-8.961096e-07	-2.758082e-09	-6.791655e+00	-1.857395e+02
1.340000e-06	-8.795042e-07	-2.731738e-09	-6.665802e+00	-1.840032e+02
1.350000e-06	-8.628515e-07	-2.703963e-09	-6.539591e+00	-1.822390e+02
1.360000e-06	-8.461322e-07	-2.677904e-09	-6.412874e+00	-1.804465e+02
1.370000e-06	-8.293244e-07	-2.649074e-09	-6.285487e+00	-1.786270e+02
1.380000e-06	-8.124446e-07	-2.617901e-09	-6.157555e+00	-1.767832e+02
1.390000e-06	-7.955164e-07	-2.589631e-09	-6.029255e+00	-1.749190e+02
1.400000e-06	-7.785509e-07	-2.564545e-09	-5.900673e+00	-1.730389e+02
1.410000e-06	-7.615675e-07	-2.538658e-09	-5.771955e+00	-1.711478e+02
1.420000e-06	-7.445644e-07	-2.511137e-09	-5.643088e+00	-1.692502e+02
1.430000e-06	-7.275385e-07	-2.479873e-09	-5.514047e+00	-1.673503e+02
1.440000e-06	-7.104798e-07	-2.447597e-09	-5.384759e+00	-1.654510e+02
1.450000e-06	-6.933706e-07	-2.414385e-09	-5.255088e+00	-1.635545e+02
1.460000e-06	-6.762055e-07	-2.382214e-09	-5.124992e+00	-1.616615e+02
1.470000e-06	-6.589814e-07	-2.352164e-09	-4.994450e+00	-1.597721e+02
1.480000e-06	-6.416919e-07	-2.325200e-09	-4.863413e+00	-1.578850e+02
1.490000e-06	-6.243540e-07	-2.298575e-09	-4.732008e+00	-1.559985e+02
1.500000e-06	-6.069816e-07	-2.269909e-09	-4.600342e+00	-1.541102e+02
1.510000e-06	-5.895787e-07	-2.241338e-09	-4.468444e+00	-1.522177e+02
1.520000e-06	-5.721573e-07	-2.213349e-09	-4.336407e+00	-1.503180e+02
1.530000e-06	-5.547061e-07	-2.184385e-09	-4.204143e+00	-1.484085e+02
1.540000e-06	-5.372083e-07	-2.153710e-09	-4.071526e+00	-1.464865e+02
1.550000e-06	-5.196585e-07	-2.123229e-09	-3.938515e+00	-1.445493e+02
1.560000e-06	-5.020692e-07	-2.092323e-09	-3.805205e+00	-1.425945e+02
1.570000e-06	-4.844421e-07	-2.061337e-09	-3.671609e+00	-1.406201e+02
1.580000e-06	-4.667711e-07	-2.029571e-09	-3.537680e+00	-1.386241e+02
1.590000e-06	-4.490653e-07	-1.997852e-09	-3.403486e+00	-1.366050e+02
1.600000e-06	-4.313301e-07	-1.966748e-09	-3.269071e+00	-1.345618e+02
1.610000e-06	-4.135700e-07	-1.936723e-09	-3.134466e+00	-1.324941e+02
1.620000e-06	-3.957991e-07	-1.906552e-09	-2.999779e+00	-1.304022e+02
1.630000e-06	-3.780182e-07	-1.875479e-09	-2.865017e+00	-1.282870e+02
1.640000e-06	-3.602212e-07	-1.843960e-09	-2.730133e+00	-1.261505e+02
1.650000e-06	-3.424162e-07	-1.810939e-09	-2.595188e+00	-1.239949e+02
1.660000e-06	-3.246153e-07	-1.775311e-09	-2.460274e+00	-1.218233e+02
1.670000e-06	-3.068108e-07	-1.739303e-09	-2.325333e+00	-1.196386e+02
1.680000e-06	-2.889899e-07	-1.705164e-09	-2.190268e+00	-1.174440e+02
1.690000e-06	-2.711505e-07	-1.675481e-09	-2.055062e+00	-1.152421e+02
1.700000e-06	-2.532976e-07	-1.647574e-09	-1.919754e+00	-1.130350e+02
1.710000e-06	-2.354331e-07	-1.616572e-09	-1.784358e+00	-1.108240e+02
1.720000e-06	-2.175559e-07	-1.582421e-09	-1.648866e+00	-1.086090e+02
1.730000e-06	-1.996508e-07	-1.546972e-09	-1.513162e+00	-1.063894e+02
1.740000e-06	-1.817203e-07	-1.512114e-09	-1.377267e+00	-1.041634e+02
1.750000e-06	-1.637918e-07	-1.477734e-09	-1.241386e+00	-1.019283e+02
1.760000e-06	-1.458621e-07	-1.443612e-09	-1.105495e+00	-9.968141e+01
1.770000e-06	-1.279198e-07	-1.410518e-09	-9.695099e-01	-9.741964e+01
1.780000e-06	-1.099476e-07	-1.378379e-09	-8.332977e-01	-9.514028e+01
1.790000e-06	-9.194395e-08	-1.345068e-09	-6.968474e-01	-9.284112e+01
1.800000e-06	-7.393445e-08	-1.311560e-09	-5.603526e-01	-9.052075e+01
1.810000e-06	-5.592809e-08	-1.279160e-09	-4.238816e-01	-8.817859e+01
1.820000e-06	-3.792446e-08	-1.249208e-09	-2.874312e-01	-8.581494e+01
1.830000e-06	-1.992684e-08	-1.217832e-09	-1.510264e-01	-8.343079e+01
1.840000e-06	-1.922299e-09	-1.183551e-09	-1.456919e-02	-8.102764e+01
1.850000e-06	1.607063e-08	-1.147301e-09	1.218000e-01	-7.860727e+01
1.860000e-06	3.404030e-08	-1.110040e-09	2.579930e-01	-7.617138e+01
1.870000e-06	5.200920e-08	-1.070809e-09	3.941801e-01	-7.372145e+01
1.880000e-06	6.997830e-08	-1.030512e-09	5.303688e-01	-7.125850e+01
1.890000e-06	8.795701e-08	-9.945543e-10	6.666302e-01	-6.878303e+01
1.900000e-06	1.059362e-07	-9.632401e-10	8.028955e-01	-6.629507e+01
1.910000e-06	1.239229e-07	-9.336894e-10	9.392173e-01	-6.379424e+01
1.920000e-06	1.418923e-07	-9.003638e-10	1.075408e+00	-6.127997e+01
1.930000e-06	1.598233e-07	-8.648735e-10	1.211308e+00	-5.875165e+01
1.940000e-06	1.777587e-07	-8.274657e-10	1.347241e+00	-5.620891e+01
1.950000e-06	1.956846e-07	-7.870936e-10	1.483102e+00	-5.365171e+01
1.960000e-06	2.135748e-07	-7.455032e-10	1.618693e+00	-5.108046e+01
1.970000e-06	2.314394e-07	-7.042946e-10	1.754090e+00	-4.849603e+01
1.980000e-06	2.492960e-07	-6.656365e-10	1.889426e+00	-4.589968e+01
1.990000e-06	2.671402e-07	-6.300087e-10	2.024668e+00	-4.329285e+01
2.000000e-06	2.849670e-07	-5.954344e-10	2.159778e+00	-4.067703e+01
2.010000e-06	3.027814e-07	-5.596552e-10	2.294794e+00	-3.805351e+01
2.020000e-06	3.205790e-07	-5.219472e-10	2.429683e+00	-3.542320e+01
2.030000e-06	3.383704e-07	-4.801179e-10	2.564525e+00	-3.278649e+01
2.040000e-06	3.561621e-07	-4.352422e-10	2.699369e+00	-3.014322e+01
2.050000e-06	3.739452e-07	-3.928522e-10	2.834148e+00	-2.749266e+01
2.060000e-06	3.917066e-07	-3.524231e-10	2.968762e+00	-2.483367e+01
2.070000e-06	4.094443e-07	-3.123938e-10	3.103197e+00	-2.216488e+01
2.080000e-06	4.271687e-07	-2.752292e-10	3.237531e+00	-1.948485e+01
2.090000e-06	4.448716e-07	-2.403884e-10	3.371702e+00	-1.679232e+01
2.100000e-06	4.625464e-07	-2.058077e-10	3.505660e+00	-1.408642e+01
2.110000e-06	4.801954e-07	-1.686270e-10	3.639423e+00	-1.136671e+01
2.120000e-06	4.978084e-07	-1.275236e-10	3.772912e+00	-8.633291e+00
2.130000e-06	5.153715e-07	-8.375504e-11	3.906024e+00	-5.886737e+00
2.140000e-06	5.329097e-07	-3.946142e-11	4.038947e+00	-3.127968e+00
2.150000e-06	5.504118e-07	5.288062e-12	4.171596e+00	-3.580958e-01
2.160000e-06	5.678575e-07	4.937703e-11	4.303818e+00	2.421773e+00
2.170000e-06	5.852691e-07	9.153910e-11	4.435781e+00	5.210720e+00
2.180000e-06	6.026368e-07	1.323103e-10	4.567412e+00	8.008155e+00
2.190000e-06	6.199546e-07	1.715969e-10	4.698664e+00	1.081389e+01
2.200000e-06	6.372304e-07	2.106163e-10	4.829598e+00	1.362815e+01
2.210000e-06	6.544563e-07	2.508451e-10	4.960154e+00	1.645149e+01
2.220000e-06	6.716300e-07	2.943312e-10	5.090315e+00	1.928465e+01
2.230000e-06	6.887668e-07	3.406985e-10	5.220195e+00	2.212841e+01
2.240000e-06	7.058664e-07	3.863507e-10	5.349794e+00	2.498337e+01
2.250000e-06	7.229214e-07	4.311826e-10	5.479054e+00	2.784985e+01
2.260000e-06	7.399399e-07	4.753682e-10	5.608038e+00	3.072772e+01
2.270000e-06	7.569280e-07	5.170711e-10	5.736792e+00	3.361639e+01
2.280000e-06	7.738907e-07	5.575958e-10	5.865353e+00	3.651486e+01
2.290000e-06	7.908168e-07	5.986161e-10	5.993636e+00	3.942183e+01
2.300000e-06	8.076877e-07	6.388038e-10	6.121502e+00	4.233584e+01
2.310000e-06	8.244934e-07	6.793341e-10	6.248873e+00	4.525545e+01
2.320000e-06	8.412165e-07	7.235286e-10	6.375618e+00	4.817944e+01
2.330000e-06	8.578694e-07	7.700379e-10	6.501832e+00	5.110693e+01
2.340000e-06	8.744518e-07	8.166207e-10	6.627510e+00	5.403748e+01
2.350000e-06	8.909610e-07	8.622122e-10	6.752634e+00	5.697105e+01
2.360000e-06	9.074091e-07	9.060121e-10	6.877295e+00	5.990795e+01
2.370000e-06	9.237964e-07	9.500760e-10	7.001495e+00	6.284869e+01
2.380000e-06	9.401456e-07	9.923792e-10	7.125407e+00	6.579380e+01
2.390000e-06	9.564420e-07	1.031912e-09	7.248918e+00	6.874360e+01
2.400000e-06	9.726654e-07	1.070136e-09	7.371876e+00	7.169806e+01
2.410000e-06	9.888058e-07	1.109043e-09	7.494204e+00	7.465662e+01
2.420000e-06	1.004853e-06	1.151921e-09	7.615826e+00	7.761815e+01
2.430000e-06	1.020834e-06	1.196766e-09	7.736946e+00	8.058098e+01
2.440000e-06	1.036739e-06	1.241046e-09	7.857495e+00	8.354298e+01
2.450000e-06	1.052562e-06	1.285839e-09	7.977413e+00	8.650177e+01
2.460000e-06	1.068310e-06	1.331764e-09	8.096767e+00	8.945492e+01
2.470000e-06	1.083982e-06	1.376805e-09	8.215551e+00	9.240021e+01
2.480000e-06	1.099596e-06	1.419649e-09	8.333891e+00	9.533580e+01
2.490000e-06	1.115129e-06	1.458927e-09	8.451612e+00	9.826047e+01
2.500000e-06	1.130567e-06	1.496747e-09	8.568618e+00	1.011737e+02
2.510000e-06	1.145932e-06	1.535955e-09	8.685070e+00	1.040754e+02
2.520000e-06	1.161203e-06	1.577053e-09	8.800814e+00	1.069666e+02
2.530000e-06	1.176365e-06	1.619161e-09	8.915724e+00	1.098481e+02
2.540000e-06	1.191402e-06	1.661360e-09	9.029687e+00	1.127214e+02
2.550000e-06	1.206302e-06	1.703394e-09	9.142620e+00	1.155878e+02
2.560000e-06	1.221087e-06	1.743101e-09	9.254673e+00	1.184482e+02
2.570000e-06	1.235768e-06	1.782234e-09	9.365943e+00	1.213033e+02
2.580000e-06	1.250382e-06	1.822933e-09	9.476700e+00	1.241531e+02
2.590000e-06	1.264934e-06	1.864369e-09	9.586993e+00	1.269968e+02
2.600000e-06	1.279396e-06	1.905387e-09	9.696602e+00	1.298334e+02
2.610000e-06	1.293778e-06	1.946130e-09	9.805604e+00	1.326610e+02
2.620000e-06	1.308078e-06	1.987889e-09	9.913980e+00	1.354776e+02
2.630000e-06	1.322271e-06	2.031114e-09	1.002156e+01	1.382812e+02
2.640000e-06	1.336368e-06	2.073749e-09	1.012839e+01	1.410697e+02
2.650000e-06	1.350373e-06	2.115396e-09	1.023454e+01	1.438414e+02
2.660000e-06	1.364295e-06	2.156849e-09	1.034005e+01	1.465950e+02
2.670000e-06	1.378146e-06	2.196614e-09	1.044503e+01	1.493297e+02
2.680000e-06	1.391923e-06	2.235042e-09	1.054945e+01	1.520452e+02
2.690000e-06	1.405622e-06	2.273746e-09	1.065328e+01	1.547417e+02
2.700000e-06	1.419222e-06	2.313425e-09	1.075635e+01	1.574197e+02
2.710000e-06	1.432686e-06	2.352598e-09	1.085839e+01	1.600798e+02
2.720000e-06	1.445987e-06	2.389766e-09	1.095920e+01	1.627229e+02
2.730000e-06	1.459139e-06	2.424973e-09	1.105888e+01	1.653493e+02
2.740000e-06	1.472186e-06	2.459253e-09	1.115776e+01	1.679594e+02
2.750000e-06	1.485156e-06	2.495379e-09	1.125606e+01	1.705529e+02
2.760000e-06	1.498048e-06	2.534960e-09	1.135377e+01	1.731294e+02
2.770000e-06	1.510860e-06	2.575985e-09	1.145088e+01	1.756877e+02
2.780000e-06	1.523578e-06	2.616946e-09	1.154727e+01	1.782265e+02
2.790000e-06	1.536188e-06	2.658231e-09	1.164284e+01	1.807444e+02
2.800000e-06	1.548694e-06	2.698867e-09	1.173763e+01	1.832396e+02
2.810000e-06	1.561104e-06	2.736223e-09	1.183168e+01	1.857107e+02
2.820000e-06	1.573423e-06	2.770647e-09	1.192505e+01	1.881561e+02
2.830000e-06	1.585647e-06	2.803283e-09	1.201769e+01	1.905751e+02
2.840000e-06	1.597781e-06	2.836136e-09	1.210966e+01	1.929668e+02
2.850000e-06	1.609787e-06	2.871011e-09	1.220065e+01	1.953314e+02
2.860000e-06	1.621618e-06	2.906312e-09	1.229031e+01	1.976689e+02
2.870000e-06	1.633297e-06	2.942676e-09	1.237883e+01	1.999801e+02
2.880000e-06	1.644853e-06	2.979116e-09	1.246642e+01	2.022659e+02
2.890000e-06	1.656300e-06	3.014930e-09	1.255317e+01	2.045273e+02
2.900000e-06	1.667648e-06	3.050765e-09	1.263918e+01	2.067653e+02
