# Temperatura_=_20.0
# Concentracion g/m^3_=_10000.0
# C_Vs_to_Am_M_A/Vsm_=_65563218390.804596
# pendiente_HvsI_1/m_=_3716.3
# ordenada_HvsI_A/m_=_1297.0
# frecuencia_Hz_=_135211.12084658304

Tiempo_(s)	Campo_(V.s)	Magnetizacion_(V.s)	Campo_(kA/m)	Magnetizacion_(A/m)
0.000000e+00	-2.128699e-06	-4.636760e-09	-1.613817e+01	-2.987368e+02
1.000000e-08	-2.128698e-06	-4.641410e-09	-1.613816e+01	-2.989750e+02
2.000000e-08	-2.128489e-06	-4.656339e-09	-1.613658e+01	-2.992041e+02
3.000000e-08	-2.128021e-06	-4.652740e-09	-1.613303e+01	-2.994210e+02
4.000000e-08	-2.127410e-06	-4.635503e-09	-1.612840e+01	-2.996216e+02
5.000000e-08	-2.126857e-06	-4.599005e-09	-1.612420e+01	-2.998012e+02
6.000000e-08	-2.126289e-06	-4.606038e-09	-1.611990e+01	-2.999554e+02
7.000000e-08	-2.125590e-06	-4.669909e-09	-1.611460e+01	-3.000801e+02
8.000000e-08	-2.124638e-06	-4.645649e-09	-1.610739e+01	-3.001725e+02
9.000000e-08	-2.123464e-06	-4.663912e-09	-1.609848e+01	-3.002311e+02
1.000000e-07	-2.122100e-06	-4.643137e-09	-1.608814e+01	-3.002558e+02
1.100000e-07	-2.120522e-06	-4.662806e-09	-1.607618e+01	-3.002479e+02
1.200000e-07	-2.118665e-06	-4.622044e-09	-1.606210e+01	-3.002098e+02
1.300000e-07	-2.116591e-06	-4.602349e-09	-1.604638e+01	-3.001443e+02
1.400000e-07	-2.114518e-06	-4.618370e-09	-1.603066e+01	-3.000549e+02
1.500000e-07	-2.112468e-06	-4.622382e-09	-1.601512e+01	-2.999445e+02
1.600000e-07	-2.110255e-06	-4.622872e-09	-1.599834e+01	-2.998158e+02
1.700000e-07	-2.107758e-06	-4.609842e-09	-1.597941e+01	-2.996709e+02
1.800000e-07	-2.105053e-06	-4.635455e-09	-1.595890e+01	-2.995108e+02
1.900000e-07	-2.102237e-06	-4.618360e-09	-1.593756e+01	-2.993362e+02
2.000000e-07	-2.099290e-06	-4.589550e-09	-1.591521e+01	-2.991471e+02
2.100000e-07	-2.096120e-06	-4.562537e-09	-1.589118e+01	-2.989434e+02
2.200000e-07	-2.092757e-06	-4.584235e-09	-1.586569e+01	-2.987249e+02
2.300000e-07	-2.089270e-06	-4.601502e-09	-1.583925e+01	-2.984917e+02
2.400000e-07	-2.085646e-06	-4.605435e-09	-1.581177e+01	-2.982441e+02
2.500000e-07	-2.081802e-06	-4.573909e-09	-1.578263e+01	-2.979828e+02
2.600000e-07	-2.077801e-06	-4.559838e-09	-1.575230e+01	-2.977088e+02
2.700000e-07	-2.073699e-06	-4.544722e-09	-1.572121e+01	-2.974230e+02
2.800000e-07	-2.069484e-06	-4.542287e-09	-1.568925e+01	-2.971263e+02
2.900000e-07	-2.065115e-06	-4.534160e-09	-1.565613e+01	-2.968195e+02
3.000000e-07	-2.060617e-06	-4.553262e-09	-1.562203e+01	-2.965025e+02
3.100000e-07	-2.056018e-06	-4.554558e-09	-1.558716e+01	-2.961751e+02
3.200000e-07	-2.051290e-06	-4.540731e-09	-1.555131e+01	-2.958362e+02
3.300000e-07	-2.046382e-06	-4.513388e-09	-1.551411e+01	-2.954847e+02
3.400000e-07	-2.041345e-06	-4.506862e-09	-1.547592e+01	-2.951191e+02
3.500000e-07	-2.036233e-06	-4.495079e-09	-1.543717e+01	-2.947382e+02
3.600000e-07	-2.030991e-06	-4.485006e-09	-1.539742e+01	-2.943409e+02
3.700000e-07	-2.025509e-06	-4.484495e-09	-1.535586e+01	-2.939270e+02
3.800000e-07	-2.019819e-06	-4.495985e-09	-1.531273e+01	-2.934965e+02
3.900000e-07	-2.014021e-06	-4.482446e-09	-1.526877e+01	-2.930505e+02
4.000000e-07	-2.008090e-06	-4.449616e-09	-1.522381e+01	-2.925902e+02
4.100000e-07	-2.001996e-06	-4.439384e-09	-1.517760e+01	-2.921173e+02
4.200000e-07	-1.995767e-06	-4.446938e-09	-1.513038e+01	-2.916332e+02
4.300000e-07	-1.989416e-06	-4.439150e-09	-1.508223e+01	-2.911391e+02
4.400000e-07	-1.982920e-06	-4.414509e-09	-1.503298e+01	-2.906353e+02
4.500000e-07	-1.976309e-06	-4.410705e-09	-1.498287e+01	-2.901213e+02
4.600000e-07	-1.969614e-06	-4.410619e-09	-1.493211e+01	-2.895957e+02
4.700000e-07	-1.962779e-06	-4.394005e-09	-1.488029e+01	-2.890561e+02
4.800000e-07	-1.955711e-06	-4.365581e-09	-1.482671e+01	-2.884994e+02
4.900000e-07	-1.948452e-06	-4.360569e-09	-1.477168e+01	-2.879225e+02
5.000000e-07	-1.941072e-06	-4.360321e-09	-1.471572e+01	-2.873220e+02
5.100000e-07	-1.933565e-06	-4.350164e-09	-1.465881e+01	-2.866953e+02
5.200000e-07	-1.925911e-06	-4.330951e-09	-1.460078e+01	-2.860405e+02
5.300000e-07	-1.918127e-06	-4.316973e-09	-1.454177e+01	-2.853569e+02
5.400000e-07	-1.910208e-06	-4.300695e-09	-1.448174e+01	-2.846449e+02
5.500000e-07	-1.902155e-06	-4.291973e-09	-1.442069e+01	-2.839060e+02
5.600000e-07	-1.893997e-06	-4.284213e-09	-1.435884e+01	-2.831429e+02
5.700000e-07	-1.885735e-06	-4.270860e-09	-1.429621e+01	-2.823586e+02
5.800000e-07	-1.877339e-06	-4.250800e-09	-1.423255e+01	-2.815563e+02
5.900000e-07	-1.868773e-06	-4.237639e-09	-1.416761e+01	-2.807392e+02
6.000000e-07	-1.860006e-06	-4.224179e-09	-1.410115e+01	-2.799098e+02
6.100000e-07	-1.851081e-06	-4.202899e-09	-1.403348e+01	-2.790701e+02
6.200000e-07	-1.842058e-06	-4.184903e-09	-1.396508e+01	-2.782209e+02
6.300000e-07	-1.832920e-06	-4.178830e-09	-1.389580e+01	-2.773626e+02
6.400000e-07	-1.823652e-06	-4.171887e-09	-1.382554e+01	-2.764949e+02
6.500000e-07	-1.814263e-06	-4.150344e-09	-1.375435e+01	-2.756171e+02
6.600000e-07	-1.804743e-06	-4.126015e-09	-1.368219e+01	-2.747286e+02
6.700000e-07	-1.795096e-06	-4.109231e-09	-1.360904e+01	-2.738289e+02
6.800000e-07	-1.785336e-06	-4.095678e-09	-1.353505e+01	-2.729182e+02
6.900000e-07	-1.775446e-06	-4.078375e-09	-1.346007e+01	-2.719970e+02
7.000000e-07	-1.765399e-06	-4.060443e-09	-1.338391e+01	-2.710663e+02
7.100000e-07	-1.755151e-06	-4.044240e-09	-1.330621e+01	-2.701274e+02
7.200000e-07	-1.744708e-06	-4.034667e-09	-1.322705e+01	-2.691815e+02
7.300000e-07	-1.734126e-06	-4.022381e-09	-1.314682e+01	-2.682296e+02
7.400000e-07	-1.723420e-06	-4.003179e-09	-1.306565e+01	-2.672720e+02
7.500000e-07	-1.712594e-06	-3.982594e-09	-1.298358e+01	-2.663080e+02
7.600000e-07	-1.701636e-06	-3.970801e-09	-1.290050e+01	-2.653362e+02
7.700000e-07	-1.690546e-06	-3.957580e-09	-1.281643e+01	-2.643540e+02
7.800000e-07	-1.679333e-06	-3.935661e-09	-1.273142e+01	-2.633585e+02
7.900000e-07	-1.668020e-06	-3.912022e-09	-1.264565e+01	-2.623459e+02
8.000000e-07	-1.656635e-06	-3.895350e-09	-1.255934e+01	-2.613130e+02
8.100000e-07	-1.645154e-06	-3.881569e-09	-1.247230e+01	-2.602566e+02
8.200000e-07	-1.633541e-06	-3.865119e-09	-1.238426e+01	-2.591746e+02
8.300000e-07	-1.621793e-06	-3.847534e-09	-1.229520e+01	-2.580662e+02
8.400000e-07	-1.609878e-06	-3.827556e-09	-1.220487e+01	-2.569318e+02
8.500000e-07	-1.597800e-06	-3.807153e-09	-1.211330e+01	-2.557729e+02
8.600000e-07	-1.585621e-06	-3.786110e-09	-1.202097e+01	-2.545925e+02
8.700000e-07	-1.573362e-06	-3.763475e-09	-1.192803e+01	-2.533938e+02
8.800000e-07	-1.561014e-06	-3.743056e-09	-1.183441e+01	-2.521805e+02
8.900000e-07	-1.548559e-06	-3.725601e-09	-1.173999e+01	-2.509561e+02
9.000000e-07	-1.535994e-06	-3.710298e-09	-1.164474e+01	-2.497232e+02
9.100000e-07	-1.523325e-06	-3.692540e-09	-1.154869e+01	-2.484835e+02
9.200000e-07	-1.510562e-06	-3.674026e-09	-1.145193e+01	-2.472372e+02
9.300000e-07	-1.497695e-06	-3.655263e-09	-1.135438e+01	-2.459834e+02
9.400000e-07	-1.484726e-06	-3.631983e-09	-1.125606e+01	-2.447202e+02
9.500000e-07	-1.471686e-06	-3.606119e-09	-1.115720e+01	-2.434448e+02
9.600000e-07	-1.458546e-06	-3.581584e-09	-1.105758e+01	-2.421539e+02
9.700000e-07	-1.445281e-06	-3.560375e-09	-1.095702e+01	-2.408447e+02
9.800000e-07	-1.431900e-06	-3.542390e-09	-1.085557e+01	-2.395146e+02
9.900000e-07	-1.418367e-06	-3.523423e-09	-1.075297e+01	-2.381621e+02
1.000000e-06	-1.404694e-06	-3.501715e-09	-1.064932e+01	-2.367867e+02
1.010000e-06	-1.390935e-06	-3.480394e-09	-1.054501e+01	-2.353892e+02
1.020000e-06	-1.377121e-06	-3.460932e-09	-1.044028e+01	-2.339714e+02
1.030000e-06	-1.363254e-06	-3.440051e-09	-1.033515e+01	-2.325358e+02
1.040000e-06	-1.349285e-06	-3.416674e-09	-1.022925e+01	-2.310856e+02
1.050000e-06	-1.335206e-06	-3.392381e-09	-1.012252e+01	-2.296238e+02
1.060000e-06	-1.321035e-06	-3.368960e-09	-1.001508e+01	-2.281532e+02
1.070000e-06	-1.306766e-06	-3.348187e-09	-9.906899e+00	-2.266761e+02
1.080000e-06	-1.292395e-06	-3.325187e-09	-9.797955e+00	-2.251938e+02
1.090000e-06	-1.277927e-06	-3.299440e-09	-9.688268e+00	-2.237066e+02
1.100000e-06	-1.263375e-06	-3.273630e-09	-9.577944e+00	-2.222143e+02
1.110000e-06	-1.248758e-06	-3.252382e-09	-9.467130e+00	-2.207156e+02
1.120000e-06	-1.234101e-06	-3.231422e-09	-9.356012e+00	-2.192089e+02
1.130000e-06	-1.219359e-06	-3.206613e-09	-9.244246e+00	-2.176925e+02
1.140000e-06	-1.204490e-06	-3.181565e-09	-9.131525e+00	-2.161645e+02
1.150000e-06	-1.189496e-06	-3.157340e-09	-9.017852e+00	-2.146235e+02
1.160000e-06	-1.174364e-06	-3.134252e-09	-8.903134e+00	-2.130684e+02
1.170000e-06	-1.159114e-06	-3.110724e-09	-8.787520e+00	-2.114990e+02
1.180000e-06	-1.143781e-06	-3.085612e-09	-8.671276e+00	-2.099152e+02
1.190000e-06	-1.128376e-06	-3.061804e-09	-8.554482e+00	-2.083177e+02
1.200000e-06	-1.112881e-06	-3.041170e-09	-8.437015e+00	-2.067076e+02
1.210000e-06	-1.097287e-06	-3.019376e-09	-8.318792e+00	-2.050860e+02
1.220000e-06	-1.081604e-06	-2.992529e-09	-8.199893e+00	-2.034543e+02
1.230000e-06	-1.065864e-06	-2.964535e-09	-8.080563e+00	-2.018138e+02
1.240000e-06	-1.050074e-06	-2.937295e-09	-7.960857e+00	-2.001657e+02
1.250000e-06	-1.034195e-06	-2.909518e-09	-7.840481e+00	-1.985107e+02
1.260000e-06	-1.018229e-06	-2.882044e-09	-7.719434e+00	-1.968495e+02
1.270000e-06	-1.002158e-06	-2.858093e-09	-7.597596e+00	-1.951820e+02
1.280000e-06	-9.859454e-07	-2.835019e-09	-7.474686e+00	-1.935081e+02
1.290000e-06	-9.696337e-07	-2.810812e-09	-7.351022e+00	-1.918269e+02
1.300000e-06	-9.532766e-07	-2.786065e-09	-7.227015e+00	-1.901371e+02
1.310000e-06	-9.368759e-07	-2.760324e-09	-7.102678e+00	-1.884372e+02
1.320000e-06	-9.204178e-07	-2.733718e-09	-6.977905e+00	-1.867251e+02
1.330000e-06	-9.039099e-07	-2.707330e-09	-6.852755e+00	-1.849982e+02
1.340000e-06	-8.873529e-07	-2.681173e-09	-6.727233e+00	-1.832543e+02
1.350000e-06	-8.707286e-07	-2.654610e-09	-6.601199e+00	-1.814906e+02
1.360000e-06	-8.540159e-07	-2.629022e-09	-6.474496e+00	-1.797052e+02
1.370000e-06	-8.372142e-07	-2.603195e-09	-6.347119e+00	-1.778963e+02
1.380000e-06	-8.203592e-07	-2.576121e-09	-6.219337e+00	-1.760633e+02
1.390000e-06	-8.034662e-07	-2.547571e-09	-6.091267e+00	-1.742065e+02
1.400000e-06	-7.865226e-07	-2.517724e-09	-5.962814e+00	-1.723274e+02
1.410000e-06	-7.695384e-07	-2.486658e-09	-5.834052e+00	-1.704290e+02
1.420000e-06	-7.525355e-07	-2.458001e-09	-5.705149e+00	-1.685151e+02
1.430000e-06	-7.355116e-07	-2.430360e-09	-5.576087e+00	-1.665908e+02
1.440000e-06	-7.184599e-07	-2.400139e-09	-5.446815e+00	-1.646615e+02
1.450000e-06	-7.013790e-07	-2.369680e-09	-5.317320e+00	-1.627327e+02
1.460000e-06	-6.842629e-07	-2.342202e-09	-5.187559e+00	-1.608093e+02
1.470000e-06	-6.670837e-07	-2.314504e-09	-5.057320e+00	-1.588954e+02
1.480000e-06	-6.498332e-07	-2.283493e-09	-4.926539e+00	-1.569933e+02
1.490000e-06	-6.325233e-07	-2.250376e-09	-4.795309e+00	-1.551035e+02
1.500000e-06	-6.151734e-07	-2.218372e-09	-4.663775e+00	-1.532246e+02
1.510000e-06	-5.977890e-07	-2.188647e-09	-4.531980e+00	-1.513530e+02
1.520000e-06	-5.803683e-07	-2.160818e-09	-4.399910e+00	-1.494837e+02
1.530000e-06	-5.629134e-07	-2.136019e-09	-4.267580e+00	-1.476104e+02
1.540000e-06	-5.454349e-07	-2.112668e-09	-4.135071e+00	-1.457259e+02
1.550000e-06	-5.279347e-07	-2.086372e-09	-4.002398e+00	-1.438234e+02
1.560000e-06	-5.103860e-07	-2.054005e-09	-3.869357e+00	-1.418966e+02
1.570000e-06	-4.927855e-07	-2.017472e-09	-3.735924e+00	-1.399408e+02
1.580000e-06	-4.751288e-07	-1.981821e-09	-3.602064e+00	-1.379527e+02
1.590000e-06	-4.574305e-07	-1.949256e-09	-3.467889e+00	-1.359311e+02
1.600000e-06	-4.397058e-07	-1.917664e-09	-3.333514e+00	-1.338769e+02
1.610000e-06	-4.219538e-07	-1.887812e-09	-3.198932e+00	-1.317925e+02
1.620000e-06	-4.041785e-07	-1.859842e-09	-3.064173e+00	-1.296820e+02
1.630000e-06	-3.863890e-07	-1.831302e-09	-2.929307e+00	-1.275501e+02
1.640000e-06	-3.685886e-07	-1.801544e-09	-2.794357e+00	-1.254020e+02
1.650000e-06	-3.507784e-07	-1.770116e-09	-2.659334e+00	-1.232425e+02
1.660000e-06	-3.329583e-07	-1.736207e-09	-2.524235e+00	-1.210759e+02
1.670000e-06	-3.151299e-07	-1.702333e-09	-2.389075e+00	-1.189052e+02
1.680000e-06	-2.972980e-07	-1.670052e-09	-2.253887e+00	-1.167324e+02
1.690000e-06	-2.794667e-07	-1.639338e-09	-2.118703e+00	-1.145581e+02
1.700000e-06	-2.616276e-07	-1.608716e-09	-1.983461e+00	-1.123817e+02
1.710000e-06	-2.437787e-07	-1.576973e-09	-1.848144e+00	-1.102018e+02
1.720000e-06	-2.259163e-07	-1.543948e-09	-1.712725e+00	-1.080163e+02
1.730000e-06	-2.080352e-07	-1.510324e-09	-1.577164e+00	-1.058228e+02
1.740000e-06	-1.901434e-07	-1.477323e-09	-1.441522e+00	-1.036187e+02
1.750000e-06	-1.722307e-07	-1.446137e-09	-1.305722e+00	-1.014015e+02
1.760000e-06	-1.542938e-07	-1.414164e-09	-1.169738e+00	-9.916914e+01
1.770000e-06	-1.363339e-07	-1.380197e-09	-1.033580e+00	-9.691973e+01
1.780000e-06	-1.183696e-07	-1.346203e-09	-8.973879e-01	-9.465173e+01
1.790000e-06	-1.004018e-07	-1.310462e-09	-7.611697e-01	-9.236393e+01
1.800000e-06	-8.242540e-08	-1.274393e-09	-6.248865e-01	-9.005534e+01
1.810000e-06	-6.445859e-08	-1.238521e-09	-4.886758e-01	-8.772528e+01
1.820000e-06	-4.650774e-08	-1.204591e-09	-3.525862e-01	-8.537328e+01
1.830000e-06	-2.855458e-08	-1.174052e-09	-2.164790e-01	-8.299920e+01
1.840000e-06	-1.057816e-08	-1.144572e-09	-8.019554e-02	-8.060327e+01
1.850000e-06	7.407800e-09	-1.112885e-09	5.616028e-02	-7.818615e+01
1.860000e-06	2.538887e-08	-1.076553e-09	1.924790e-01	-7.574898e+01
1.870000e-06	4.335901e-08	-1.036782e-09	3.287149e-01	-7.329339e+01
1.880000e-06	6.133050e-08	-9.947059e-10	4.649611e-01	-7.082141e+01
1.890000e-06	7.930842e-08	-9.535511e-10	6.012559e-01	-6.833535e+01
1.900000e-06	9.728040e-08	-9.188602e-10	7.375058e-01	-6.583760e+01
1.910000e-06	1.152329e-07	-8.875881e-10	8.736078e-01	-6.333038e+01
1.920000e-06	1.331592e-07	-8.546927e-10	1.009511e+00	-6.081551e+01
1.930000e-06	1.510828e-07	-8.210529e-10	1.145395e+00	-5.829416e+01
1.940000e-06	1.690084e-07	-7.878132e-10	1.281292e+00	-5.576671e+01
1.950000e-06	1.869192e-07	-7.523848e-10	1.417079e+00	-5.323272e+01
1.960000e-06	2.048126e-07	-7.118496e-10	1.552733e+00	-5.069097e+01
1.970000e-06	2.226856e-07	-6.697132e-10	1.688232e+00	-4.813968e+01
1.980000e-06	2.405463e-07	-6.296104e-10	1.823639e+00	-4.557671e+01
1.990000e-06	2.584080e-07	-5.920807e-10	1.959052e+00	-4.299997e+01
2.000000e-06	2.762623e-07	-5.558524e-10	2.094410e+00	-4.040774e+01
2.010000e-06	2.940944e-07	-5.209636e-10	2.229599e+00	-3.779894e+01
2.020000e-06	3.119117e-07	-4.867805e-10	2.364676e+00	-3.517338e+01
2.030000e-06	3.297175e-07	-4.508613e-10	2.499666e+00	-3.253181e+01
2.040000e-06	3.475156e-07	-4.123269e-10	2.634598e+00	-2.987587e+01
2.050000e-06	3.653070e-07	-3.718057e-10	2.769479e+00	-2.720790e+01
2.060000e-06	3.830859e-07	-3.294874e-10	2.904265e+00	-2.453063e+01
2.070000e-06	4.008498e-07	-2.869547e-10	3.038937e+00	-2.184681e+01
2.080000e-06	4.185901e-07	-2.465766e-10	3.173430e+00	-1.915886e+01
2.090000e-06	4.363007e-07	-2.094021e-10	3.307699e+00	-1.646849e+01
2.100000e-06	4.539993e-07	-1.744802e-10	3.441876e+00	-1.377658e+01
2.110000e-06	4.716688e-07	-1.380653e-10	3.575833e+00	-1.108301e+01
2.120000e-06	4.892877e-07	-1.004003e-10	3.709406e+00	-8.386788e+00
2.130000e-06	5.068801e-07	-6.186446e-11	3.842778e+00	-5.686243e+00
2.140000e-06	5.244363e-07	-2.010928e-11	3.975876e+00	-2.979319e+00
2.150000e-06	5.419358e-07	2.270427e-11	4.108544e+00	-2.639357e-01
2.160000e-06	5.594043e-07	6.325946e-11	4.240976e+00	2.461670e+00
2.170000e-06	5.768470e-07	1.014225e-10	4.373213e+00	5.198676e+00
2.180000e-06	5.942435e-07	1.409018e-10	4.505100e+00	7.947523e+00
2.190000e-06	6.116011e-07	1.824205e-10	4.636693e+00	1.070790e+01
2.200000e-06	6.289233e-07	2.234108e-10	4.768016e+00	1.347888e+01
2.210000e-06	6.461881e-07	2.631305e-10	4.898905e+00	1.625916e+01
2.220000e-06	6.633877e-07	3.028163e-10	5.029299e+00	1.904739e+01
2.230000e-06	6.805315e-07	3.444868e-10	5.159271e+00	2.184248e+01
2.240000e-06	6.976338e-07	3.864660e-10	5.288927e+00	2.464390e+01
2.250000e-06	7.147053e-07	4.271417e-10	5.418350e+00	2.745184e+01
2.260000e-06	7.317512e-07	4.673274e-10	5.547579e+00	3.026725e+01
2.270000e-06	7.487712e-07	5.084406e-10	5.676612e+00	3.309167e+01
2.280000e-06	7.657647e-07	5.504952e-10	5.805444e+00	3.592701e+01
2.290000e-06	7.827196e-07	5.925526e-10	5.933982e+00	3.877515e+01
2.300000e-06	7.996205e-07	6.328897e-10	6.062112e+00	4.163754e+01
2.310000e-06	8.164741e-07	6.706108e-10	6.189883e+00	4.451483e+01
2.320000e-06	8.332636e-07	7.099386e-10	6.317169e+00	4.740660e+01
2.330000e-06	8.499712e-07	7.538127e-10	6.443833e+00	5.031126e+01
2.340000e-06	8.665925e-07	7.986639e-10	6.569843e+00	5.322611e+01
2.350000e-06	8.831446e-07	8.415932e-10	6.695328e+00	5.614760e+01
2.360000e-06	8.996525e-07	8.843532e-10	6.820479e+00	5.907177e+01
2.370000e-06	9.161173e-07	9.282737e-10	6.945302e+00	6.199475e+01
2.380000e-06	9.325177e-07	9.719370e-10	7.069637e+00	6.491326e+01
2.390000e-06	9.488456e-07	1.014321e-09	7.193423e+00	6.782512e+01
2.400000e-06	9.651094e-07	1.054973e-09	7.316723e+00	7.072950e+01
2.410000e-06	9.812879e-07	1.094247e-09	7.439376e+00	7.362705e+01
2.420000e-06	9.973820e-07	1.133464e-09	7.561389e+00	7.651981e+01
2.430000e-06	1.013410e-06	1.173850e-09	7.682904e+00	7.941078e+01
2.440000e-06	1.029349e-06	1.216708e-09	7.803739e+00	8.230349e+01
2.450000e-06	1.045199e-06	1.261245e-09	7.923899e+00	8.520130e+01
2.460000e-06	1.060977e-06	1.306703e-09	8.043520e+00	8.810685e+01
2.470000e-06	1.076686e-06	1.350440e-09	8.162612e+00	9.102146e+01
2.480000e-06	1.092315e-06	1.391392e-09	8.281101e+00	9.394481e+01
2.490000e-06	1.107860e-06	1.431816e-09	8.398951e+00	9.687482e+01
2.500000e-06	1.123326e-06	1.472991e-09	8.516199e+00	9.980779e+01
2.510000e-06	1.138716e-06	1.515279e-09	8.632879e+00	1.027388e+02
2.520000e-06	1.154032e-06	1.557559e-09	8.748988e+00	1.056623e+02
2.530000e-06	1.169255e-06	1.601284e-09	8.864399e+00	1.085729e+02
2.540000e-06	1.184356e-06	1.646707e-09	8.978883e+00	1.114659e+02
2.550000e-06	1.199311e-06	1.690025e-09	9.092259e+00	1.143381e+02
2.560000e-06	1.214133e-06	1.728996e-09	9.204628e+00	1.171880e+02
2.570000e-06	1.228850e-06	1.766614e-09	9.316205e+00	1.200163e+02
2.580000e-06	1.243496e-06	1.806187e-09	9.427240e+00	1.228253e+02
2.590000e-06	1.258081e-06	1.848572e-09	9.537812e+00	1.256190e+02
2.600000e-06	1.272590e-06	1.891330e-09	9.647808e+00	1.284021e+02
2.610000e-06	1.287011e-06	1.932322e-09	9.757133e+00	1.311794e+02
2.620000e-06	1.301331e-06	1.972448e-09	9.865698e+00	1.339552e+02
2.630000e-06	1.315555e-06	2.011849e-09	9.973532e+00	1.367324e+02
2.640000e-06	1.329689e-06	2.050918e-09	1.008069e+01	1.395120e+02
2.650000e-06	1.343744e-06	2.091419e-09	1.018724e+01	1.422932e+02
2.660000e-06	1.357710e-06	2.134102e-09	1.029312e+01	1.450731e+02
2.670000e-06	1.371590e-06	2.177281e-09	1.039835e+01	1.478473e+02
2.680000e-06	1.385406e-06	2.219487e-09	1.050309e+01	1.506101e+02
2.690000e-06	1.399151e-06	2.260489e-09	1.060730e+01	1.533557e+02
2.700000e-06	1.412804e-06	2.299576e-09	1.071080e+01	1.560784e+02
2.710000e-06	1.426312e-06	2.336622e-09	1.081321e+01	1.587736e+02
2.720000e-06	1.439654e-06	2.372747e-09	1.091435e+01	1.614380e+02
2.730000e-06	1.452846e-06	2.409072e-09	1.101437e+01	1.640703e+02
2.740000e-06	1.465926e-06	2.446119e-09	1.111353e+01	1.666707e+02
2.750000e-06	1.478939e-06	2.483224e-09	1.121218e+01	1.692410e+02
2.760000e-06	1.491874e-06	2.520874e-09	1.131025e+01	1.717842e+02
2.770000e-06	1.504714e-06	2.558053e-09	1.140759e+01	1.743035e+02
2.780000e-06	1.517459e-06	2.594729e-09	1.150422e+01	1.768024e+02
2.790000e-06	1.530116e-06	2.631784e-09	1.160017e+01	1.792839e+02
2.800000e-06	1.542676e-06	2.668551e-09	1.169539e+01	1.817497e+02
2.810000e-06	1.555127e-06	2.705083e-09	1.178979e+01	1.842008e+02
2.820000e-06	1.567474e-06	2.740885e-09	1.188339e+01	1.866368e+02
2.830000e-06	1.579737e-06	2.777707e-09	1.197636e+01	1.890562e+02
2.840000e-06	1.591929e-06	2.814179e-09	1.206879e+01	1.914571e+02
2.850000e-06	1.604008e-06	2.848441e-09	1.216036e+01	1.938370e+02
2.860000e-06	1.615930e-06	2.882645e-09	1.225075e+01	1.961938e+02
2.870000e-06	1.627685e-06	2.917932e-09	1.233987e+01	1.985254e+02
2.880000e-06	1.639273e-06	2.952271e-09	1.242772e+01	2.008307e+02
2.890000e-06	1.650739e-06	2.985478e-09	1.251464e+01	2.031091e+02
2.900000e-06	1.662119e-06	3.018868e-09	1.260092e+01	2.053603e+02
