# Temperatura_=_20.0
# Concentracion g/m^3_=_10000.0
# C_Vs_to_Am_M_A/Vsm_=_65563218390.804596
# pendiente_HvsI_1/m_=_3716.3
# ordenada_HvsI_A/m_=_1297.0
# frecuencia_Hz_=_135205.31080813604

Tiempo_(s)	Campo_(V.s)	Magnetizacion_(V.s)	Campo_(kA/m)	Magnetizacion_(A/m)
0.000000e+00	-2.129085e-06	-4.586064e-09	-1.614354e+01	-2.966389e+02
1.000000e-08	-2.128924e-06	-4.592744e-09	-1.614232e+01	-2.968637e+02
2.000000e-08	-2.128537e-06	-4.580346e-09	-1.613939e+01	-2.970708e+02
3.000000e-08	-2.127927e-06	-4.580909e-09	-1.613476e+01	-2.972578e+02
4.000000e-08	-2.127292e-06	-4.558366e-09	-1.612994e+01	-2.974220e+02
5.000000e-08	-2.126712e-06	-4.606453e-09	-1.612555e+01	-2.975605e+02
6.000000e-08	-2.126028e-06	-4.593819e-09	-1.612036e+01	-2.976711e+02
7.000000e-08	-2.125130e-06	-4.577658e-09	-1.611356e+01	-2.977519e+02
8.000000e-08	-2.123989e-06	-4.591874e-09	-1.610490e+01	-2.978023e+02
9.000000e-08	-2.122647e-06	-4.576565e-09	-1.609473e+01	-2.978222e+02
1.000000e-07	-2.121125e-06	-4.588968e-09	-1.608318e+01	-2.978130e+02
1.100000e-07	-2.119340e-06	-4.548817e-09	-1.606965e+01	-2.977763e+02
1.200000e-07	-2.117302e-06	-4.575007e-09	-1.605420e+01	-2.977147e+02
1.300000e-07	-2.115181e-06	-4.571897e-09	-1.603811e+01	-2.976310e+02
1.400000e-07	-2.113090e-06	-4.582468e-09	-1.602226e+01	-2.975278e+02
1.500000e-07	-2.110913e-06	-4.566185e-09	-1.600575e+01	-2.974077e+02
1.600000e-07	-2.108479e-06	-4.571251e-09	-1.598730e+01	-2.972725e+02
1.700000e-07	-2.105786e-06	-4.573828e-09	-1.596688e+01	-2.971239e+02
1.800000e-07	-2.102973e-06	-4.563785e-09	-1.594555e+01	-2.969629e+02
1.900000e-07	-2.100051e-06	-4.550075e-09	-1.592339e+01	-2.967898e+02
2.000000e-07	-2.096944e-06	-4.549382e-09	-1.589983e+01	-2.966048e+02
2.100000e-07	-2.093611e-06	-4.563437e-09	-1.587457e+01	-2.964079e+02
2.200000e-07	-2.090109e-06	-4.561877e-09	-1.584801e+01	-2.961990e+02
2.300000e-07	-2.086505e-06	-4.545094e-09	-1.582068e+01	-2.959779e+02
2.400000e-07	-2.082733e-06	-4.528535e-09	-1.579208e+01	-2.957446e+02
2.500000e-07	-2.078778e-06	-4.527239e-09	-1.576209e+01	-2.954989e+02
2.600000e-07	-2.074708e-06	-4.517747e-09	-1.573123e+01	-2.952408e+02
2.700000e-07	-2.070532e-06	-4.506018e-09	-1.569957e+01	-2.949698e+02
2.800000e-07	-2.066215e-06	-4.497929e-09	-1.566684e+01	-2.946855e+02
2.900000e-07	-2.061756e-06	-4.506807e-09	-1.563303e+01	-2.943869e+02
3.000000e-07	-2.057183e-06	-4.499434e-09	-1.559835e+01	-2.940728e+02
3.100000e-07	-2.052483e-06	-4.488228e-09	-1.556271e+01	-2.937418e+02
3.200000e-07	-2.047623e-06	-4.472553e-09	-1.552586e+01	-2.933924e+02
3.300000e-07	-2.042613e-06	-4.473399e-09	-1.548788e+01	-2.930231e+02
3.400000e-07	-2.037517e-06	-4.462599e-09	-1.544924e+01	-2.926327e+02
3.500000e-07	-2.032320e-06	-4.457593e-09	-1.540984e+01	-2.922208e+02
3.600000e-07	-2.026921e-06	-4.447572e-09	-1.536889e+01	-2.917873e+02
3.700000e-07	-2.021286e-06	-4.447006e-09	-1.532617e+01	-2.913332e+02
3.800000e-07	-2.015488e-06	-4.433426e-09	-1.528221e+01	-2.908599e+02
3.900000e-07	-2.009576e-06	-4.426964e-09	-1.523738e+01	-2.903696e+02
4.000000e-07	-2.003522e-06	-4.420170e-09	-1.519148e+01	-2.898650e+02
4.100000e-07	-1.997316e-06	-4.412448e-09	-1.514441e+01	-2.893485e+02
4.200000e-07	-1.990966e-06	-4.393076e-09	-1.509627e+01	-2.888225e+02
4.300000e-07	-1.984496e-06	-4.382375e-09	-1.504721e+01	-2.882888e+02
4.400000e-07	-1.977919e-06	-4.376269e-09	-1.499734e+01	-2.877484e+02
4.500000e-07	-1.971243e-06	-4.365653e-09	-1.494672e+01	-2.872011e+02
4.600000e-07	-1.964454e-06	-4.349320e-09	-1.489524e+01	-2.866460e+02
4.700000e-07	-1.957459e-06	-4.340147e-09	-1.484221e+01	-2.860813e+02
4.800000e-07	-1.950241e-06	-4.335448e-09	-1.478748e+01	-2.855042e+02
4.900000e-07	-1.942885e-06	-4.320078e-09	-1.473170e+01	-2.849118e+02
5.000000e-07	-1.935429e-06	-4.304673e-09	-1.467517e+01	-2.843013e+02
5.100000e-07	-1.927839e-06	-4.296069e-09	-1.461762e+01	-2.836700e+02
5.200000e-07	-1.920094e-06	-4.289755e-09	-1.455889e+01	-2.830158e+02
5.300000e-07	-1.912223e-06	-4.274222e-09	-1.449921e+01	-2.823376e+02
5.400000e-07	-1.904223e-06	-4.262293e-09	-1.443856e+01	-2.816352e+02
5.500000e-07	-1.896101e-06	-4.248938e-09	-1.437697e+01	-2.809093e+02
5.600000e-07	-1.887882e-06	-4.232854e-09	-1.431465e+01	-2.801612e+02
5.700000e-07	-1.879513e-06	-4.211413e-09	-1.425119e+01	-2.793930e+02
5.800000e-07	-1.870933e-06	-4.196950e-09	-1.418613e+01	-2.786070e+02
5.900000e-07	-1.862178e-06	-4.181698e-09	-1.411975e+01	-2.778055e+02
6.000000e-07	-1.853293e-06	-4.168438e-09	-1.405238e+01	-2.769907e+02
6.100000e-07	-1.844287e-06	-4.157354e-09	-1.398409e+01	-2.761643e+02
6.200000e-07	-1.835186e-06	-4.148079e-09	-1.391508e+01	-2.753278e+02
6.300000e-07	-1.825971e-06	-4.133123e-09	-1.384521e+01	-2.744819e+02
6.400000e-07	-1.816605e-06	-4.115764e-09	-1.377420e+01	-2.736273e+02
6.500000e-07	-1.807086e-06	-4.098324e-09	-1.370202e+01	-2.727642e+02
6.600000e-07	-1.797443e-06	-4.083146e-09	-1.362890e+01	-2.718925e+02
6.700000e-07	-1.787697e-06	-4.069271e-09	-1.355501e+01	-2.710124e+02
6.800000e-07	-1.777837e-06	-4.053729e-09	-1.348025e+01	-2.701237e+02
6.900000e-07	-1.767830e-06	-4.037568e-09	-1.340437e+01	-2.692265e+02
7.000000e-07	-1.757621e-06	-4.021988e-09	-1.332696e+01	-2.683207e+02
7.100000e-07	-1.747220e-06	-4.008742e-09	-1.324809e+01	-2.674062e+02
7.200000e-07	-1.736667e-06	-3.993909e-09	-1.316808e+01	-2.664826e+02
7.300000e-07	-1.725982e-06	-3.977459e-09	-1.308706e+01	-2.655494e+02
7.400000e-07	-1.715175e-06	-3.961764e-09	-1.300512e+01	-2.646056e+02
7.500000e-07	-1.704251e-06	-3.949172e-09	-1.292229e+01	-2.636499e+02
7.600000e-07	-1.693214e-06	-3.933159e-09	-1.283860e+01	-2.626808e+02
7.700000e-07	-1.682044e-06	-3.915602e-09	-1.275390e+01	-2.616967e+02
7.800000e-07	-1.670753e-06	-3.898079e-09	-1.266830e+01	-2.606961e+02
7.900000e-07	-1.659373e-06	-3.881585e-09	-1.258200e+01	-2.596777e+02
8.000000e-07	-1.647912e-06	-3.865642e-09	-1.249510e+01	-2.586406e+02
8.100000e-07	-1.636336e-06	-3.851244e-09	-1.240733e+01	-2.575846e+02
8.200000e-07	-1.624605e-06	-3.836909e-09	-1.231838e+01	-2.565101e+02
8.300000e-07	-1.612710e-06	-3.819903e-09	-1.222818e+01	-2.554182e+02
8.400000e-07	-1.600659e-06	-3.800115e-09	-1.213681e+01	-2.543104e+02
8.500000e-07	-1.588492e-06	-3.780025e-09	-1.204456e+01	-2.531884e+02
8.600000e-07	-1.576242e-06	-3.762191e-09	-1.195167e+01	-2.520539e+02
8.700000e-07	-1.563913e-06	-3.745780e-09	-1.185819e+01	-2.509084e+02
8.800000e-07	-1.551481e-06	-3.729082e-09	-1.176393e+01	-2.497527e+02
8.900000e-07	-1.538940e-06	-3.710456e-09	-1.166884e+01	-2.485868e+02
9.000000e-07	-1.526304e-06	-3.689922e-09	-1.157303e+01	-2.474100e+02
9.100000e-07	-1.513566e-06	-3.670822e-09	-1.147644e+01	-2.462206e+02
9.200000e-07	-1.500721e-06	-3.654262e-09	-1.137905e+01	-2.450164e+02
9.300000e-07	-1.487793e-06	-3.637471e-09	-1.128102e+01	-2.437948e+02
9.400000e-07	-1.474773e-06	-3.620497e-09	-1.118229e+01	-2.425533e+02
9.500000e-07	-1.461633e-06	-3.600898e-09	-1.108266e+01	-2.412895e+02
9.600000e-07	-1.448380e-06	-3.578633e-09	-1.098217e+01	-2.400021e+02
9.700000e-07	-1.434981e-06	-3.556020e-09	-1.088058e+01	-2.386904e+02
9.800000e-07	-1.421428e-06	-3.530453e-09	-1.077781e+01	-2.373552e+02
9.900000e-07	-1.407774e-06	-3.505549e-09	-1.067428e+01	-2.359980e+02
1.000000e-06	-1.394049e-06	-3.485149e-09	-1.057022e+01	-2.346216e+02
1.010000e-06	-1.380249e-06	-3.468502e-09	-1.046558e+01	-2.332290e+02
1.020000e-06	-1.366374e-06	-3.451664e-09	-1.036038e+01	-2.318240e+02
1.030000e-06	-1.352417e-06	-3.433451e-09	-1.025454e+01	-2.304097e+02
1.040000e-06	-1.338368e-06	-3.413191e-09	-1.014802e+01	-2.289891e+02
1.050000e-06	-1.324231e-06	-3.389386e-09	-1.004083e+01	-2.275640e+02
1.060000e-06	-1.309987e-06	-3.362661e-09	-9.932828e+00	-2.261355e+02
1.070000e-06	-1.295634e-06	-3.335919e-09	-9.823996e+00	-2.247033e+02
1.080000e-06	-1.281185e-06	-3.312543e-09	-9.714440e+00	-2.232660e+02
1.090000e-06	-1.266662e-06	-3.293091e-09	-9.604316e+00	-2.218217e+02
1.100000e-06	-1.252067e-06	-3.276088e-09	-9.493656e+00	-2.203679e+02
1.110000e-06	-1.237405e-06	-3.258374e-09	-9.382478e+00	-2.189017e+02
1.120000e-06	-1.222671e-06	-3.238171e-09	-9.270761e+00	-2.174208e+02
1.130000e-06	-1.207821e-06	-3.215909e-09	-9.158167e+00	-2.159232e+02
1.140000e-06	-1.192838e-06	-3.189960e-09	-9.044557e+00	-2.144078e+02
1.150000e-06	-1.177729e-06	-3.161502e-09	-8.929993e+00	-2.128742e+02
1.160000e-06	-1.162502e-06	-3.133798e-09	-8.814539e+00	-2.113230e+02
1.170000e-06	-1.147173e-06	-3.109128e-09	-8.698304e+00	-2.097553e+02
1.180000e-06	-1.131768e-06	-3.087347e-09	-8.581502e+00	-2.081729e+02
1.190000e-06	-1.116289e-06	-3.066798e-09	-8.464136e+00	-2.065774e+02
1.200000e-06	-1.100719e-06	-3.046029e-09	-8.346077e+00	-2.049709e+02
1.210000e-06	-1.085077e-06	-3.021683e-09	-8.227474e+00	-2.033548e+02
1.220000e-06	-1.069375e-06	-2.994613e-09	-8.108412e+00	-2.017302e+02
1.230000e-06	-1.053602e-06	-2.966291e-09	-7.988812e+00	-2.000978e+02
1.240000e-06	-1.037765e-06	-2.939677e-09	-7.868737e+00	-1.984576e+02
1.250000e-06	-1.021832e-06	-2.915059e-09	-7.747924e+00	-1.968095e+02
1.260000e-06	-1.005759e-06	-2.893986e-09	-7.626055e+00	-1.951529e+02
1.270000e-06	-9.895883e-07	-2.872543e-09	-7.503439e+00	-1.934873e+02
1.280000e-06	-9.733492e-07	-2.848451e-09	-7.380308e+00	-1.918121e+02
1.290000e-06	-9.570281e-07	-2.823832e-09	-7.256555e+00	-1.901270e+02
1.300000e-06	-9.406357e-07	-2.799799e-09	-7.132262e+00	-1.884319e+02
1.310000e-06	-9.242037e-07	-2.774653e-09	-7.007668e+00	-1.867269e+02
1.320000e-06	-9.077238e-07	-2.747889e-09	-6.882711e+00	-1.850125e+02
1.330000e-06	-8.911778e-07	-2.719826e-09	-6.757253e+00	-1.832888e+02
1.340000e-06	-8.745567e-07	-2.692605e-09	-6.631226e+00	-1.815564e+02
1.350000e-06	-8.578554e-07	-2.667226e-09	-6.504590e+00	-1.798153e+02
1.360000e-06	-8.410738e-07	-2.641146e-09	-6.377345e+00	-1.780656e+02
1.370000e-06	-8.242317e-07	-2.614533e-09	-6.249642e+00	-1.763070e+02
1.380000e-06	-8.073443e-07	-2.587631e-09	-6.121595e+00	-1.745388e+02
1.390000e-06	-7.904099e-07	-2.560473e-09	-5.993192e+00	-1.727605e+02
1.400000e-06	-7.734506e-07	-2.532277e-09	-5.864600e+00	-1.709714e+02
1.410000e-06	-7.564726e-07	-2.507822e-09	-5.735866e+00	-1.691709e+02
1.420000e-06	-7.394698e-07	-2.485423e-09	-5.606944e+00	-1.673586e+02
1.430000e-06	-7.224239e-07	-2.459783e-09	-5.477696e+00	-1.655345e+02
1.440000e-06	-7.053281e-07	-2.429161e-09	-5.348069e+00	-1.636987e+02
1.450000e-06	-6.882000e-07	-2.398650e-09	-5.218197e+00	-1.618519e+02
1.460000e-06	-6.710255e-07	-2.367203e-09	-5.087973e+00	-1.599947e+02
1.470000e-06	-6.537807e-07	-2.335357e-09	-4.957217e+00	-1.581280e+02
1.480000e-06	-6.364763e-07	-2.303063e-09	-4.826009e+00	-1.562524e+02
1.490000e-06	-6.191287e-07	-2.270017e-09	-4.694472e+00	-1.543683e+02
1.500000e-06	-6.017452e-07	-2.240162e-09	-4.562664e+00	-1.524756e+02
1.510000e-06	-5.843409e-07	-2.212370e-09	-4.430697e+00	-1.505736e+02
1.520000e-06	-5.669071e-07	-2.185950e-09	-4.298508e+00	-1.486613e+02
1.530000e-06	-5.494161e-07	-2.157131e-09	-4.165885e+00	-1.467369e+02
1.540000e-06	-5.318846e-07	-2.127835e-09	-4.032954e+00	-1.447984e+02
1.550000e-06	-5.143151e-07	-2.098482e-09	-3.899735e+00	-1.428438e+02
1.560000e-06	-4.967084e-07	-2.068366e-09	-3.766235e+00	-1.408708e+02
1.570000e-06	-4.790833e-07	-2.036954e-09	-3.632594e+00	-1.388777e+02
1.580000e-06	-4.614170e-07	-2.004385e-09	-3.498641e+00	-1.368633e+02
1.590000e-06	-4.437075e-07	-1.972294e-09	-3.364361e+00	-1.348269e+02
1.600000e-06	-4.259856e-07	-1.942219e-09	-3.229986e+00	-1.327686e+02
1.610000e-06	-4.082461e-07	-1.911353e-09	-3.095479e+00	-1.306893e+02
1.620000e-06	-3.904876e-07	-1.879022e-09	-2.960827e+00	-1.285905e+02
1.630000e-06	-3.727261e-07	-1.847472e-09	-2.826153e+00	-1.264743e+02
1.640000e-06	-3.549561e-07	-1.816076e-09	-2.691414e+00	-1.243429e+02
1.650000e-06	-3.371671e-07	-1.783824e-09	-2.556531e+00	-1.221986e+02
1.660000e-06	-3.193627e-07	-1.750671e-09	-2.421531e+00	-1.200438e+02
1.670000e-06	-3.015504e-07	-1.717575e-09	-2.286471e+00	-1.178800e+02
1.680000e-06	-2.837202e-07	-1.686930e-09	-2.151276e+00	-1.157087e+02
1.690000e-06	-2.658720e-07	-1.657827e-09	-2.015944e+00	-1.135305e+02
1.700000e-06	-2.480135e-07	-1.627166e-09	-1.880534e+00	-1.113451e+02
1.710000e-06	-2.301487e-07	-1.595924e-09	-1.745076e+00	-1.091520e+02
1.720000e-06	-2.122705e-07	-1.564224e-09	-1.609517e+00	-1.069498e+02
1.730000e-06	-1.943684e-07	-1.531198e-09	-1.473776e+00	-1.047369e+02
1.740000e-06	-1.764523e-07	-1.497464e-09	-1.337929e+00	-1.025113e+02
1.750000e-06	-1.585227e-07	-1.465020e-09	-1.201980e+00	-1.002710e+02
1.760000e-06	-1.405597e-07	-1.432680e-09	-1.065778e+00	-9.801397e+01
1.770000e-06	-1.225779e-07	-1.399082e-09	-9.294328e-01	-9.573866e+01
1.780000e-06	-1.045959e-07	-1.361497e-09	-7.930867e-01	-9.344376e+01
1.790000e-06	-8.660895e-08	-1.322807e-09	-6.567024e-01	-9.112850e+01
1.800000e-06	-6.861590e-08	-1.286163e-09	-5.202721e-01	-8.879270e+01
1.810000e-06	-5.060282e-08	-1.251888e-09	-3.836900e-01	-8.643670e+01
1.820000e-06	-3.257928e-08	-1.219806e-09	-2.470287e-01	-8.406143e+01
1.830000e-06	-1.456027e-08	-1.188657e-09	-1.104016e-01	-8.166823e+01
1.840000e-06	3.451689e-09	-1.156760e-09	2.617204e-02	-7.925880e+01
1.850000e-06	2.145363e-08	-1.122486e-09	1.626697e-01	-7.683500e+01
1.860000e-06	3.944682e-08	-1.084439e-09	2.991010e-01	-7.439870e+01
1.870000e-06	5.743260e-08	-1.043517e-09	4.354761e-01	-7.195156e+01
1.880000e-06	7.542513e-08	-1.002749e-09	5.719024e-01	-6.949492e+01
1.890000e-06	9.340810e-08	-9.634526e-10	7.082561e-01	-6.702960e+01
1.900000e-06	1.113660e-07	-9.284972e-10	8.444198e-01	-6.455588e+01
1.910000e-06	1.293163e-07	-8.962720e-10	9.805263e-01	-6.207343e+01
1.920000e-06	1.472439e-07	-8.635040e-10	1.116460e+00	-5.958138e+01
1.930000e-06	1.651488e-07	-8.302963e-10	1.252222e+00	-5.707848e+01
1.940000e-06	1.830513e-07	-7.958711e-10	1.387966e+00	-5.456323e+01
1.950000e-06	2.009304e-07	-7.569167e-10	1.523532e+00	-5.203412e+01
1.960000e-06	2.187770e-07	-7.151497e-10	1.658851e+00	-4.948991e+01
1.970000e-06	2.366168e-07	-6.740331e-10	1.794120e+00	-4.692980e+01
1.980000e-06	2.544556e-07	-6.333277e-10	1.929381e+00	-4.435362e+01
1.990000e-06	2.722792e-07	-5.958811e-10	2.064526e+00	-4.176193e+01
2.000000e-06	2.900882e-07	-5.616894e-10	2.199560e+00	-3.915600e+01
2.010000e-06	3.078884e-07	-5.280112e-10	2.334529e+00	-3.653768e+01
2.020000e-06	3.256768e-07	-4.927559e-10	2.469407e+00	-3.390925e+01
2.030000e-06	3.434551e-07	-4.543043e-10	2.604209e+00	-3.127310e+01
2.040000e-06	3.612246e-07	-4.140351e-10	2.738944e+00	-2.863143e+01
2.050000e-06	3.789805e-07	-3.721354e-10	2.873576e+00	-2.598595e+01
2.060000e-06	3.967311e-07	-3.289512e-10	3.008168e+00	-2.333765e+01
2.070000e-06	4.144789e-07	-2.885634e-10	3.142739e+00	-2.068660e+01
2.080000e-06	4.322022e-07	-2.509484e-10	3.277123e+00	-1.803195e+01
2.090000e-06	4.498874e-07	-2.141290e-10	3.411220e+00	-1.537202e+01
2.100000e-06	4.675287e-07	-1.766602e-10	3.544982e+00	-1.270449e+01
2.110000e-06	4.851186e-07	-1.377704e-10	3.678356e+00	-1.002674e+01
2.120000e-06	5.026694e-07	-9.945508e-11	3.811433e+00	-7.336234e+00
2.130000e-06	5.201907e-07	-6.017467e-11	3.944286e+00	-4.630866e+00
2.140000e-06	5.376896e-07	-1.909895e-11	4.076969e+00	-1.909301e+00
2.150000e-06	5.551700e-07	2.221181e-11	4.209512e+00	8.288075e-01
2.160000e-06	5.726198e-07	6.263999e-11	4.341823e+00	3.582743e+00
2.170000e-06	5.900287e-07	1.034783e-10	4.473824e+00	6.350798e+00
2.180000e-06	6.073991e-07	1.454802e-10	4.605533e+00	9.130505e+00
2.190000e-06	6.247339e-07	1.861826e-10	4.736973e+00	1.191898e+01
2.200000e-06	6.420065e-07	2.233310e-10	4.867940e+00	1.471335e+01
2.210000e-06	6.592165e-07	2.599897e-10	4.998434e+00	1.751119e+01
2.220000e-06	6.763799e-07	3.021735e-10	5.128573e+00	2.031088e+01
2.230000e-06	6.934822e-07	3.480013e-10	5.258249e+00	2.311190e+01
2.240000e-06	7.105289e-07	3.923600e-10	5.387503e+00	2.591491e+01
2.250000e-06	7.275436e-07	4.354136e-10	5.516516e+00	2.872173e+01
2.260000e-06	7.445415e-07	4.786503e-10	5.645400e+00	3.153503e+01
2.270000e-06	7.615219e-07	5.224986e-10	5.774152e+00	3.435799e+01
2.280000e-06	7.784781e-07	5.638414e-10	5.902721e+00	3.719380e+01
2.290000e-06	7.954011e-07	6.012900e-10	6.031037e+00	4.004517e+01
2.300000e-06	8.122658e-07	6.373909e-10	6.158912e+00	4.291386e+01
2.310000e-06	8.290566e-07	6.756642e-10	6.286226e+00	4.580033e+01
2.320000e-06	8.457760e-07	7.191181e-10	6.412999e+00	4.870359e+01
2.330000e-06	8.624122e-07	7.633460e-10	6.539141e+00	5.162123e+01
2.340000e-06	8.789523e-07	8.064458e-10	6.664554e+00	5.454956e+01
2.350000e-06	8.954203e-07	8.510349e-10	6.789421e+00	5.748408e+01
2.360000e-06	9.118419e-07	8.955223e-10	6.913936e+00	6.041990e+01
2.370000e-06	9.282101e-07	9.390516e-10	7.038046e+00	6.335230e+01
2.380000e-06	9.445242e-07	9.815743e-10	7.161746e+00	6.627723e+01
2.390000e-06	9.607962e-07	1.022871e-09	7.285127e+00	6.919174e+01
2.400000e-06	9.770000e-07	1.062797e-09	7.407990e+00	7.209419e+01
2.410000e-06	9.931172e-07	1.101719e-09	7.530197e+00	7.498437e+01
2.420000e-06	1.009152e-06	1.141442e-09	7.651781e+00	7.786336e+01
2.430000e-06	1.025085e-06	1.184051e-09	7.772588e+00	8.073326e+01
2.440000e-06	1.040936e-06	1.228245e-09	7.892775e+00	8.359680e+01
2.450000e-06	1.056738e-06	1.273182e-09	8.012596e+00	8.645689e+01
2.460000e-06	1.072469e-06	1.317738e-09	8.131874e+00	8.931617e+01
2.470000e-06	1.088105e-06	1.359084e-09	8.250427e+00	9.217666e+01
2.480000e-06	1.103634e-06	1.397254e-09	8.368180e+00	9.503952e+01
2.490000e-06	1.119082e-06	1.435816e-09	8.485308e+00	9.790492e+01
2.500000e-06	1.134487e-06	1.477054e-09	8.602118e+00	1.007721e+02
2.510000e-06	1.149842e-06	1.519418e-09	8.718544e+00	1.036397e+02
2.520000e-06	1.165117e-06	1.561550e-09	8.834362e+00	1.065056e+02
2.530000e-06	1.180272e-06	1.603555e-09	8.949280e+00	1.093679e+02
2.540000e-06	1.195274e-06	1.646032e-09	9.063026e+00	1.122245e+02
2.550000e-06	1.210123e-06	1.687819e-09	9.175617e+00	1.150739e+02
2.560000e-06	1.224856e-06	1.728787e-09	9.287327e+00	1.179148e+02
2.570000e-06	1.239503e-06	1.769232e-09	9.398385e+00	1.207467e+02
2.580000e-06	1.254077e-06	1.810583e-09	9.508891e+00	1.235691e+02
2.590000e-06	1.268577e-06	1.853441e-09	9.618837e+00	1.263819e+02
2.600000e-06	1.282998e-06	1.895949e-09	9.728188e+00	1.291850e+02
2.610000e-06	1.297342e-06	1.935898e-09	9.836948e+00	1.319780e+02
2.620000e-06	1.311606e-06	1.974813e-09	9.945098e+00	1.347599e+02
2.630000e-06	1.325777e-06	2.014075e-09	1.005255e+01	1.375296e+02
2.640000e-06	1.339841e-06	2.053716e-09	1.015919e+01	1.402853e+02
2.650000e-06	1.353801e-06	2.095052e-09	1.026504e+01	1.430250e+02
2.660000e-06	1.367677e-06	2.136593e-09	1.037025e+01	1.457466e+02
2.670000e-06	1.381488e-06	2.177148e-09	1.047497e+01	1.484484e+02
2.680000e-06	1.395240e-06	2.217041e-09	1.057924e+01	1.511288e+02
2.690000e-06	1.408920e-06	2.256035e-09	1.068297e+01	1.537871e+02
2.700000e-06	1.422479e-06	2.295775e-09	1.078578e+01	1.564233e+02
2.710000e-06	1.435874e-06	2.334664e-09	1.088735e+01	1.590383e+02
2.720000e-06	1.449100e-06	2.371166e-09	1.098764e+01	1.616333e+02
2.730000e-06	1.462190e-06	2.408255e-09	1.108689e+01	1.642101e+02
2.740000e-06	1.475202e-06	2.446029e-09	1.118555e+01	1.667705e+02
2.750000e-06	1.488152e-06	2.484102e-09	1.128374e+01	1.693161e+02
2.760000e-06	1.501021e-06	2.521789e-09	1.138132e+01	1.718476e+02
2.770000e-06	1.513786e-06	2.556367e-09	1.147811e+01	1.743653e+02
2.780000e-06	1.526436e-06	2.590021e-09	1.157402e+01	1.768683e+02
2.790000e-06	1.538984e-06	2.625997e-09	1.166917e+01	1.793550e+02
2.800000e-06	1.551441e-06	2.663386e-09	1.176362e+01	1.818229e+02
2.810000e-06	1.563802e-06	2.699834e-09	1.185735e+01	1.842695e+02
2.820000e-06	1.576064e-06	2.735190e-09	1.195032e+01	1.866920e+02
2.830000e-06	1.588249e-06	2.770512e-09	1.204271e+01	1.890880e+02
2.840000e-06	1.600368e-06	2.806628e-09	1.213461e+01	1.914557e+02
2.850000e-06	1.612367e-06	2.842189e-09	1.222559e+01	1.937943e+02
2.860000e-06	1.624185e-06	2.876435e-09	1.231519e+01	1.961040e+02
2.870000e-06	1.635813e-06	2.910375e-09	1.240336e+01	1.983856e+02
2.880000e-06	1.647291e-06	2.945538e-09	1.249039e+01	2.006410e+02
2.890000e-06	1.658682e-06	2.981929e-09	1.257677e+01	2.028720e+02
2.900000e-06	1.669987e-06	3.016794e-09	1.266248e+01	2.050809e+02
