# Temperatura_=_20.0
# Concentracion g/m^3_=_10000.0
# C_Vs_to_Am_M_A/Vsm_=_65563218390.804596
# pendiente_HvsI_1/m_=_3716.3
# ordenada_HvsI_A/m_=_1297.0
# frecuencia_Hz_=_135199.46705724677

Tiempo_(s)	Campo_(V.s)	Magnetizacion_(V.s)	Campo_(kA/m)	Magnetizacion_(A/m)
0.000000e+00	-2.120124e-06	-6.308975e-11	-1.614324e+01	-4.403001e+00
1.000000e-08	-2.120130e-06	-6.319066e-11	-1.614329e+01	-4.447202e+00
2.000000e-08	-2.119954e-06	-7.476435e-11	-1.614195e+01	-4.493666e+00
3.000000e-08	-2.119523e-06	-9.207336e-11	-1.613867e+01	-4.537293e+00
4.000000e-08	-2.118900e-06	-8.690897e-11	-1.613393e+01	-4.573304e+00
5.000000e-08	-2.118342e-06	-7.481512e-11	-1.612968e+01	-4.597807e+00
6.000000e-08	-2.117787e-06	-1.849939e-11	-1.612545e+01	-4.608230e+00
7.000000e-08	-2.117106e-06	-5.792893e-11	-1.612027e+01	-4.603589e+00
8.000000e-08	-2.116186e-06	-6.501720e-11	-1.611326e+01	-4.584545e+00
9.000000e-08	-2.115023e-06	-7.189491e-11	-1.610441e+01	-4.553263e+00
1.000000e-07	-2.113692e-06	-6.614419e-11	-1.609427e+01	-4.513085e+00
1.100000e-07	-2.112172e-06	-7.258661e-11	-1.608270e+01	-4.468079e+00
1.200000e-07	-2.110363e-06	-8.942808e-11	-1.606893e+01	-4.422535e+00
1.300000e-07	-2.108302e-06	-6.766317e-11	-1.605323e+01	-4.380457e+00
1.400000e-07	-2.106216e-06	-7.229478e-11	-1.603735e+01	-4.345150e+00
1.500000e-07	-2.104191e-06	-6.589440e-11	-1.602193e+01	-4.318922e+00
1.600000e-07	-2.102031e-06	-8.117781e-11	-1.600548e+01	-4.302954e+00
1.700000e-07	-2.099573e-06	-6.849178e-11	-1.598677e+01	-4.297330e+00
1.800000e-07	-2.096898e-06	-7.850516e-11	-1.596640e+01	-4.301211e+00
1.900000e-07	-2.094112e-06	-7.911489e-11	-1.594518e+01	-4.313109e+00
2.000000e-07	-2.091206e-06	-8.325193e-11	-1.592305e+01	-4.331220e+00
2.100000e-07	-2.088088e-06	-7.310977e-11	-1.589931e+01	-4.353743e+00
2.200000e-07	-2.084773e-06	-7.781904e-11	-1.587408e+01	-4.379142e+00
2.300000e-07	-2.081323e-06	-8.095750e-11	-1.584780e+01	-4.406322e+00
2.400000e-07	-2.077753e-06	-1.024429e-10	-1.582062e+01	-4.434683e+00
2.500000e-07	-2.073978e-06	-9.980779e-11	-1.579188e+01	-4.464062e+00
2.600000e-07	-2.070046e-06	-9.307750e-11	-1.576193e+01	-4.494596e+00
2.700000e-07	-2.066004e-06	-8.080724e-11	-1.573116e+01	-4.526519e+00
2.800000e-07	-2.061848e-06	-8.277592e-11	-1.569951e+01	-4.559955e+00
2.900000e-07	-2.057537e-06	-7.665632e-11	-1.566669e+01	-4.594750e+00
3.000000e-07	-2.053086e-06	-7.819029e-11	-1.563280e+01	-4.630367e+00
3.100000e-07	-2.048533e-06	-8.389392e-11	-1.559813e+01	-4.665883e+00
3.200000e-07	-2.043850e-06	-8.765111e-11	-1.556247e+01	-4.700077e+00
3.300000e-07	-2.038985e-06	-8.358808e-11	-1.552543e+01	-4.731606e+00
3.400000e-07	-2.033978e-06	-7.935522e-11	-1.548730e+01	-4.759234e+00
3.500000e-07	-2.028887e-06	-8.537350e-11	-1.544854e+01	-4.782070e+00
3.600000e-07	-2.023676e-06	-8.270035e-11	-1.540886e+01	-4.799782e+00
3.700000e-07	-2.018257e-06	-7.992612e-11	-1.536760e+01	-4.812734e+00
3.800000e-07	-2.012621e-06	-8.003262e-11	-1.532468e+01	-4.822031e+00
3.900000e-07	-2.006850e-06	-9.223194e-11	-1.528074e+01	-4.829438e+00
4.000000e-07	-2.000962e-06	-8.359363e-11	-1.523591e+01	-4.837207e+00
4.100000e-07	-1.994906e-06	-7.536921e-11	-1.518980e+01	-4.847801e+00
4.200000e-07	-1.988695e-06	-7.253057e-11	-1.514251e+01	-4.863583e+00
4.300000e-07	-1.982404e-06	-8.393996e-11	-1.509460e+01	-4.886489e+00
4.400000e-07	-1.975976e-06	-7.904863e-11	-1.504566e+01	-4.917751e+00
4.500000e-07	-1.969423e-06	-7.538257e-11	-1.499576e+01	-4.957696e+00
4.600000e-07	-1.962795e-06	-7.676100e-11	-1.494530e+01	-5.005657e+00
4.700000e-07	-1.956036e-06	-8.385251e-11	-1.489383e+01	-5.060010e+00
4.800000e-07	-1.949031e-06	-7.610212e-11	-1.484049e+01	-5.118323e+00
4.900000e-07	-1.941818e-06	-6.740325e-11	-1.478557e+01	-5.177604e+00
5.000000e-07	-1.934490e-06	-6.489730e-11	-1.472977e+01	-5.234616e+00
5.100000e-07	-1.927056e-06	-6.785054e-11	-1.467317e+01	-5.286200e+00
5.200000e-07	-1.919478e-06	-6.858625e-11	-1.461547e+01	-5.329594e+00
5.300000e-07	-1.911747e-06	-6.686339e-11	-1.455660e+01	-5.362678e+00
5.400000e-07	-1.903900e-06	-6.746216e-11	-1.449685e+01	-5.384145e+00
5.500000e-07	-1.895921e-06	-6.907156e-11	-1.443610e+01	-5.393573e+00
5.600000e-07	-1.887817e-06	-7.314112e-11	-1.437439e+01	-5.391398e+00
5.700000e-07	-1.879619e-06	-7.411465e-11	-1.431197e+01	-5.378813e+00
5.800000e-07	-1.871293e-06	-7.152009e-11	-1.424858e+01	-5.357609e+00
5.900000e-07	-1.862798e-06	-6.805446e-11	-1.418389e+01	-5.329983e+00
6.000000e-07	-1.854102e-06	-6.994617e-11	-1.411768e+01	-5.298354e+00
6.100000e-07	-1.845233e-06	-6.660959e-11	-1.405015e+01	-5.265197e+00
6.200000e-07	-1.836259e-06	-6.013466e-11	-1.398182e+01	-5.232909e+00
6.300000e-07	-1.827185e-06	-5.633787e-11	-1.391272e+01	-5.203725e+00
6.400000e-07	-1.817991e-06	-6.325329e-11	-1.384272e+01	-5.179665e+00
6.500000e-07	-1.808666e-06	-6.939989e-11	-1.377172e+01	-5.162500e+00
6.600000e-07	-1.799221e-06	-7.150820e-11	-1.369980e+01	-5.153729e+00
6.700000e-07	-1.789630e-06	-7.111975e-11	-1.362677e+01	-5.154554e+00
6.800000e-07	-1.779906e-06	-7.269637e-11	-1.355272e+01	-5.165824e+00
6.900000e-07	-1.770079e-06	-7.000855e-11	-1.347790e+01	-5.187977e+00
7.000000e-07	-1.760116e-06	-6.457595e-11	-1.340204e+01	-5.220954e+00
7.100000e-07	-1.749946e-06	-6.048228e-11	-1.332460e+01	-5.264123e+00
7.200000e-07	-1.739554e-06	-6.386025e-11	-1.324547e+01	-5.316219e+00
7.300000e-07	-1.729017e-06	-7.447842e-11	-1.316524e+01	-5.375332e+00
7.400000e-07	-1.718371e-06	-8.380512e-11	-1.308418e+01	-5.438954e+00
7.500000e-07	-1.707602e-06	-8.517040e-11	-1.300218e+01	-5.504099e+00
7.600000e-07	-1.696711e-06	-8.582105e-11	-1.291926e+01	-5.567498e+00
7.700000e-07	-1.685705e-06	-8.888590e-11	-1.283545e+01	-5.625859e+00
7.800000e-07	-1.674561e-06	-9.030192e-11	-1.275060e+01	-5.676162e+00
7.900000e-07	-1.663312e-06	-8.879432e-11	-1.266494e+01	-5.715965e+00
8.000000e-07	-1.651995e-06	-8.756402e-11	-1.257877e+01	-5.743677e+00
8.100000e-07	-1.640581e-06	-9.072102e-11	-1.249186e+01	-5.758759e+00
8.200000e-07	-1.629018e-06	-9.410216e-11	-1.240382e+01	-5.761824e+00
8.300000e-07	-1.617306e-06	-9.671957e-11	-1.231464e+01	-5.754612e+00
8.400000e-07	-1.605451e-06	-9.906234e-11	-1.222437e+01	-5.739842e+00
8.500000e-07	-1.593439e-06	-1.014730e-10	-1.213292e+01	-5.720937e+00
8.600000e-07	-1.581319e-06	-1.031174e-10	-1.204063e+01	-5.701663e+00
8.700000e-07	-1.569128e-06	-1.048445e-10	-1.194780e+01	-5.685720e+00
8.800000e-07	-1.556855e-06	-1.033719e-10	-1.185435e+01	-5.676323e+00
8.900000e-07	-1.544476e-06	-9.971352e-11	-1.176010e+01	-5.675839e+00
9.000000e-07	-1.531986e-06	-9.627229e-11	-1.166499e+01	-5.685508e+00
9.100000e-07	-1.519384e-06	-9.471073e-11	-1.156903e+01	-5.705301e+00
9.200000e-07	-1.506678e-06	-9.578105e-11	-1.147229e+01	-5.733912e+00
9.300000e-07	-1.493869e-06	-1.000888e-10	-1.137476e+01	-5.768905e+00
9.400000e-07	-1.480966e-06	-1.044828e-10	-1.127651e+01	-5.806981e+00
9.500000e-07	-1.467987e-06	-1.043317e-10	-1.117768e+01	-5.844346e+00
9.600000e-07	-1.454921e-06	-1.002881e-10	-1.107819e+01	-5.877119e+00
9.700000e-07	-1.441728e-06	-9.773879e-11	-1.097774e+01	-5.901752e+00
9.800000e-07	-1.428396e-06	-9.653669e-11	-1.087623e+01	-5.915389e+00
9.900000e-07	-1.414924e-06	-9.439904e-11	-1.077365e+01	-5.916146e+00
1.000000e-06	-1.401316e-06	-9.096465e-11	-1.067003e+01	-5.903267e+00
1.010000e-06	-1.387619e-06	-8.799346e-11	-1.056574e+01	-5.877149e+00
1.020000e-06	-1.373864e-06	-8.967277e-11	-1.046100e+01	-5.839243e+00
1.030000e-06	-1.360042e-06	-9.406505e-11	-1.035576e+01	-5.791843e+00
1.040000e-06	-1.346134e-06	-9.635566e-11	-1.024986e+01	-5.737790e+00
1.050000e-06	-1.332131e-06	-9.632608e-11	-1.014324e+01	-5.680146e+00
1.060000e-06	-1.318040e-06	-9.527608e-11	-1.003595e+01	-5.621859e+00
1.070000e-06	-1.303861e-06	-9.266055e-11	-9.927979e+00	-5.565468e+00
1.080000e-06	-1.289567e-06	-8.765171e-11	-9.819144e+00	-5.512874e+00
1.090000e-06	-1.275162e-06	-8.225992e-11	-9.709461e+00	-5.465203e+00
1.100000e-06	-1.260673e-06	-7.859539e-11	-9.599135e+00	-5.422769e+00
1.110000e-06	-1.246116e-06	-7.798051e-11	-9.488291e+00	-5.385128e+00
1.120000e-06	-1.231503e-06	-7.785903e-11	-9.377023e+00	-5.351215e+00
1.130000e-06	-1.216821e-06	-7.680538e-11	-9.265230e+00	-5.319548e+00
1.140000e-06	-1.202028e-06	-7.550583e-11	-9.152592e+00	-5.288458e+00
1.150000e-06	-1.187116e-06	-7.457073e-11	-9.039052e+00	-5.256332e+00
1.160000e-06	-1.172086e-06	-7.718264e-11	-8.924608e+00	-5.221831e+00
1.170000e-06	-1.156932e-06	-7.714989e-11	-8.809221e+00	-5.184068e+00
1.180000e-06	-1.141672e-06	-7.480815e-11	-8.693024e+00	-5.142721e+00
1.190000e-06	-1.126312e-06	-7.232933e-11	-8.576067e+00	-5.098081e+00
1.200000e-06	-1.110860e-06	-7.176443e-11	-8.458415e+00	-5.051024e+00
1.210000e-06	-1.095328e-06	-7.082355e-11	-8.340152e+00	-5.002912e+00
1.220000e-06	-1.079729e-06	-6.756198e-11	-8.221376e+00	-4.955445e+00
1.230000e-06	-1.064059e-06	-6.365080e-11	-8.102056e+00	-4.910464e+00
1.240000e-06	-1.048320e-06	-6.166582e-11	-7.982217e+00	-4.869739e+00
1.250000e-06	-1.032504e-06	-6.270112e-11	-7.861790e+00	-4.834756e+00
1.260000e-06	-1.016600e-06	-6.427140e-11	-7.740692e+00	-4.806522e+00
1.270000e-06	-1.000601e-06	-6.713891e-11	-7.618870e+00	-4.785429e+00
1.280000e-06	-9.844855e-07	-6.751065e-11	-7.496161e+00	-4.771163e+00
1.290000e-06	-9.682796e-07	-6.751916e-11	-7.372765e+00	-4.762696e+00
1.300000e-06	-9.520001e-07	-6.857438e-11	-7.248808e+00	-4.758358e+00
1.310000e-06	-9.356553e-07	-6.838256e-11	-7.124354e+00	-4.755978e+00
1.320000e-06	-9.192675e-07	-6.632150e-11	-6.999573e+00	-4.753096e+00
1.330000e-06	-9.028316e-07	-6.689144e-11	-6.874425e+00	-4.747221e+00
1.340000e-06	-8.863451e-07	-6.862333e-11	-6.748891e+00	-4.736105e+00
1.350000e-06	-8.698163e-07	-6.843895e-11	-6.623037e+00	-4.718010e+00
1.360000e-06	-8.532249e-07	-6.657651e-11	-6.496705e+00	-4.691934e+00
1.370000e-06	-8.365433e-07	-6.614956e-11	-6.369686e+00	-4.657765e+00
1.380000e-06	-8.197866e-07	-6.623775e-11	-6.242096e+00	-4.616340e+00
1.390000e-06	-8.029791e-07	-6.615343e-11	-6.114118e+00	-4.569401e+00
1.400000e-06	-7.861139e-07	-6.660396e-11	-5.985702e+00	-4.519433e+00
1.410000e-06	-7.692149e-07	-6.725918e-11	-5.857028e+00	-4.469416e+00
1.420000e-06	-7.523013e-07	-6.944605e-11	-5.728243e+00	-4.422498e+00
1.430000e-06	-7.353596e-07	-7.316337e-11	-5.599244e+00	-4.381630e+00
1.440000e-06	-7.183940e-07	-7.617768e-11	-5.470063e+00	-4.349210e+00
1.450000e-06	-7.013922e-07	-7.532257e-11	-5.340606e+00	-4.326775e+00
1.460000e-06	-6.843310e-07	-7.537782e-11	-5.210697e+00	-4.314780e+00
1.470000e-06	-6.672087e-07	-7.609295e-11	-5.080323e+00	-4.312496e+00
1.480000e-06	-6.500330e-07	-7.776542e-11	-4.949542e+00	-4.318051e+00
1.490000e-06	-6.327978e-07	-8.124113e-11	-4.818308e+00	-4.328602e+00
1.500000e-06	-6.155055e-07	-8.440542e-11	-4.686640e+00	-4.340627e+00
1.510000e-06	-5.981778e-07	-8.375969e-11	-4.554702e+00	-4.350305e+00
1.520000e-06	-5.808213e-07	-8.174500e-11	-4.422544e+00	-4.353939e+00
1.530000e-06	-5.634450e-07	-8.109230e-11	-4.290236e+00	-4.348369e+00
1.540000e-06	-5.460594e-07	-8.084740e-11	-4.157856e+00	-4.331323e+00
1.550000e-06	-5.286449e-07	-8.250009e-11	-4.025257e+00	-4.301665e+00
1.560000e-06	-5.111542e-07	-8.446252e-11	-3.892078e+00	-4.259511e+00
1.570000e-06	-4.935980e-07	-8.574498e-11	-3.758400e+00	-4.206196e+00
1.580000e-06	-4.760150e-07	-8.458257e-11	-3.624518e+00	-4.144101e+00
1.590000e-06	-4.583990e-07	-8.112938e-11	-3.490384e+00	-4.076360e+00
1.600000e-06	-4.407470e-07	-7.691815e-11	-3.355977e+00	-4.006495e+00
1.610000e-06	-4.230677e-07	-7.471664e-11	-3.221362e+00	-3.938017e+00
1.620000e-06	-4.053696e-07	-7.419304e-11	-3.086603e+00	-3.874052e+00
1.630000e-06	-3.876547e-07	-7.406239e-11	-2.951716e+00	-3.817034e+00
1.640000e-06	-3.699291e-07	-7.528768e-11	-2.816749e+00	-3.768504e+00
1.650000e-06	-3.521910e-07	-7.832133e-11	-2.681685e+00	-3.729032e+00
1.660000e-06	-3.344419e-07	-8.035903e-11	-2.546539e+00	-3.698264e+00
1.670000e-06	-3.166884e-07	-7.850593e-11	-2.411358e+00	-3.675086e+00
1.680000e-06	-2.989261e-07	-7.716651e-11	-2.276111e+00	-3.657858e+00
1.690000e-06	-2.811509e-07	-7.838395e-11	-2.140766e+00	-3.644702e+00
1.700000e-06	-2.633587e-07	-7.818863e-11	-2.005290e+00	-3.633775e+00
1.710000e-06	-2.455552e-07	-7.616739e-11	-1.869729e+00	-3.623504e+00
1.720000e-06	-2.277386e-07	-7.352645e-11	-1.734069e+00	-3.612751e+00
1.730000e-06	-2.099116e-07	-7.166795e-11	-1.598328e+00	-3.600880e+00
1.740000e-06	-1.920803e-07	-6.927786e-11	-1.462556e+00	-3.587736e+00
1.750000e-06	-1.742458e-07	-6.772249e-11	-1.326759e+00	-3.573539e+00
1.760000e-06	-1.564065e-07	-7.008387e-11	-1.190925e+00	-3.558724e+00
1.770000e-06	-1.385574e-07	-7.332682e-11	-1.055017e+00	-3.543758e+00
1.780000e-06	-1.206971e-07	-7.444237e-11	-9.190234e-01	-3.528969e+00
1.790000e-06	-1.028132e-07	-7.054797e-11	-7.828502e-01	-3.514411e+00
1.800000e-06	-8.492038e-08	-6.400313e-11	-6.466087e-01	-3.499800e+00
1.810000e-06	-6.702885e-08	-5.891563e-11	-5.103773e-01	-3.484511e+00
1.820000e-06	-4.911615e-08	-5.626241e-11	-3.739848e-01	-3.467656e+00
1.830000e-06	-3.118729e-08	-5.709648e-11	-2.374692e-01	-3.448205e+00
1.840000e-06	-1.326343e-08	-6.105227e-11	-1.009916e-01	-3.425136e+00
1.850000e-06	4.650505e-09	-6.480908e-11	3.541031e-02	-3.397598e+00
1.860000e-06	2.254926e-08	-6.711794e-11	1.716967e-01	-3.365027e+00
1.870000e-06	4.042154e-08	-6.719240e-11	3.077815e-01	-3.327233e+00
1.880000e-06	5.829152e-08	-6.240401e-11	4.438488e-01	-3.284412e+00
1.890000e-06	7.617283e-08	-5.383748e-11	5.800023e-01	-3.237106e+00
1.900000e-06	9.404667e-08	-4.791281e-11	7.160990e-01	-3.186110e+00
1.910000e-06	1.119263e-07	-4.627774e-11	8.522395e-01	-3.132345e+00
1.920000e-06	1.298146e-07	-4.747729e-11	9.884465e-01	-3.076729e+00
1.930000e-06	1.476768e-07	-5.051464e-11	1.124455e+00	-3.020061e+00
1.940000e-06	1.655037e-07	-5.580810e-11	1.260193e+00	-2.962952e+00
1.950000e-06	1.833177e-07	-6.095010e-11	1.395835e+00	-2.905800e+00
1.960000e-06	2.011206e-07	-6.017957e-11	1.531392e+00	-2.848824e+00
1.970000e-06	2.189184e-07	-5.461053e-11	1.666909e+00	-2.792138e+00
1.980000e-06	2.367151e-07	-4.758594e-11	1.802419e+00	-2.735860e+00
1.990000e-06	2.544959e-07	-4.244073e-11	1.937806e+00	-2.680211e+00
2.000000e-06	2.722579e-07	-4.154123e-11	2.073052e+00	-2.625606e+00
2.010000e-06	2.900168e-07	-4.396375e-11	2.208273e+00	-2.572691e+00
2.020000e-06	3.077744e-07	-4.661842e-11	2.343485e+00	-2.522324e+00
2.030000e-06	3.255187e-07	-4.773404e-11	2.478595e+00	-2.475499e+00
2.040000e-06	3.432481e-07	-4.659450e-11	2.613592e+00	-2.433213e+00
2.050000e-06	3.609654e-07	-4.248218e-11	2.748497e+00	-2.396309e+00
2.060000e-06	3.786660e-07	-3.793233e-11	2.883274e+00	-2.365306e+00
2.070000e-06	3.963401e-07	-3.557687e-11	3.017850e+00	-2.340264e+00
2.080000e-06	4.139912e-07	-3.664887e-11	3.152250e+00	-2.320699e+00
2.090000e-06	4.316342e-07	-4.017272e-11	3.286590e+00	-2.305575e+00
2.100000e-06	4.492627e-07	-4.373845e-11	3.420818e+00	-2.293379e+00
2.110000e-06	4.668692e-07	-4.506646e-11	3.554879e+00	-2.282276e+00
2.120000e-06	4.844358e-07	-4.399934e-11	3.688636e+00	-2.270319e+00
2.130000e-06	5.019542e-07	-4.204591e-11	3.822027e+00	-2.255695e+00
2.140000e-06	5.194389e-07	-3.980064e-11	3.955160e+00	-2.236951e+00
2.150000e-06	5.368885e-07	-3.881073e-11	4.088026e+00	-2.213190e+00
2.160000e-06	5.543001e-07	-3.933787e-11	4.220604e+00	-2.184169e+00
2.170000e-06	5.716693e-07	-3.934727e-11	4.352858e+00	-2.150318e+00
2.180000e-06	5.890038e-07	-3.794946e-11	4.484848e+00	-2.112637e+00
2.190000e-06	6.062983e-07	-3.531821e-11	4.616533e+00	-2.072514e+00
2.200000e-06	6.235413e-07	-3.375600e-11	4.747827e+00	-2.031463e+00
2.210000e-06	6.407377e-07	-3.544332e-11	4.878765e+00	-1.990842e+00
2.220000e-06	6.578788e-07	-3.549600e-11	5.009282e+00	-1.951589e+00
2.230000e-06	6.749656e-07	-3.263737e-11	5.139386e+00	-1.914003e+00
2.240000e-06	6.920164e-07	-3.005679e-11	5.269216e+00	-1.877641e+00
2.250000e-06	7.090264e-07	-2.733301e-11	5.398735e+00	-1.841311e+00
2.260000e-06	7.260004e-07	-2.418109e-11	5.527980e+00	-1.803201e+00
2.270000e-06	7.429479e-07	-2.301739e-11	5.657023e+00	-1.761100e+00
2.280000e-06	7.598678e-07	-2.392679e-11	5.785856e+00	-1.712708e+00
2.290000e-06	7.767671e-07	-2.469358e-11	5.914533e+00	-1.655962e+00
2.300000e-06	7.936315e-07	-2.411170e-11	6.042943e+00	-1.589348e+00
2.310000e-06	8.104324e-07	-2.510407e-11	6.170870e+00	-1.512150e+00
2.320000e-06	8.271584e-07	-2.440139e-11	6.298227e+00	-1.424588e+00
2.330000e-06	8.438022e-07	-1.712614e-11	6.424958e+00	-1.327834e+00
2.340000e-06	8.603552e-07	-7.858021e-12	6.550997e+00	-1.223899e+00
2.350000e-06	8.768429e-07	-1.329072e-12	6.676539e+00	-1.115396e+00
2.360000e-06	8.932635e-07	-1.175976e-12	6.801570e+00	-1.005239e+00
2.370000e-06	9.096108e-07	-2.863861e-12	6.926043e+00	-8.962942e-01
2.380000e-06	9.259281e-07	-2.629296e-12	7.050289e+00	-7.910487e-01
2.390000e-06	9.422077e-07	-1.732489e-12	7.174246e+00	-6.913477e-01
2.400000e-06	9.584098e-07	-1.901006e-12	7.297613e+00	-5.982259e-01
2.410000e-06	9.745209e-07	-1.257877e-12	7.420288e+00	-5.118608e-01
2.420000e-06	9.905509e-07	2.260416e-12	7.542345e+00	-4.316502e-01
2.430000e-06	1.006498e-06	7.254643e-12	7.663769e+00	-3.563946e-01
2.440000e-06	1.022357e-06	1.214648e-11	7.784525e+00	-2.845520e-01
2.450000e-06	1.038155e-06	1.430370e-11	7.904814e+00	-2.145227e-01
2.460000e-06	1.053895e-06	1.492718e-11	8.024665e+00	-1.449153e-01
2.470000e-06	1.069553e-06	1.457582e-11	8.143890e+00	-7.475229e-02
2.480000e-06	1.085113e-06	1.241046e-11	8.262369e+00	-3.583342e-03
2.490000e-06	1.100590e-06	1.090540e-11	8.380216e+00	6.850867e-02
2.500000e-06	1.116000e-06	1.245701e-11	8.497548e+00	1.410064e-01
2.510000e-06	1.131340e-06	1.716831e-11	8.614356e+00	2.131400e-01
2.520000e-06	1.146604e-06	2.264669e-11	8.730577e+00	2.841175e-01
2.530000e-06	1.161773e-06	2.474101e-11	8.846079e+00	3.533602e-01
2.540000e-06	1.176819e-06	2.180097e-11	8.960648e+00	4.206995e-01
2.550000e-06	1.191718e-06	1.670017e-11	9.074089e+00	4.864967e-01
2.560000e-06	1.206475e-06	1.146977e-11	9.186452e+00	5.516621e-01
2.570000e-06	1.221127e-06	7.088853e-12	9.298019e+00	6.175645e-01
2.580000e-06	1.235719e-06	6.957302e-12	9.409130e+00	6.858423e-01
2.590000e-06	1.250254e-06	1.240961e-11	9.519800e+00	7.581445e-01
2.600000e-06	1.264717e-06	2.047102e-11	9.629926e+00	8.358401e-01
2.610000e-06	1.279100e-06	2.556660e-11	9.739439e+00	9.197440e-01
2.620000e-06	1.293381e-06	2.548810e-11	9.848183e+00	1.009903e+00
2.630000e-06	1.307578e-06	2.313645e-11	9.956286e+00	1.105480e+00
2.640000e-06	1.321697e-06	2.301841e-11	1.006379e+01	1.204758e+00
2.650000e-06	1.335714e-06	2.373998e-11	1.017052e+01	1.305271e+00
2.660000e-06	1.349627e-06	2.476918e-11	1.027645e+01	1.404042e+00
2.670000e-06	1.363445e-06	2.679174e-11	1.038167e+01	1.497904e+00
2.680000e-06	1.377202e-06	2.867980e-11	1.048642e+01	1.583861e+00
2.690000e-06	1.390904e-06	2.993733e-11	1.059075e+01	1.659435e+00
2.700000e-06	1.404526e-06	2.937142e-11	1.069448e+01	1.722956e+00
2.710000e-06	1.418013e-06	2.933005e-11	1.079717e+01	1.773761e+00
2.720000e-06	1.431326e-06	2.850566e-11	1.089854e+01	1.812265e+00
2.730000e-06	1.444500e-06	2.627145e-11	1.099885e+01	1.839915e+00
2.740000e-06	1.457564e-06	2.546941e-11	1.109832e+01	1.859016e+00
2.750000e-06	1.470540e-06	2.567312e-11	1.119713e+01	1.872470e+00
2.760000e-06	1.483442e-06	2.623435e-11	1.129536e+01	1.883460e+00
2.770000e-06	1.496259e-06	2.532226e-11	1.139296e+01	1.895113e+00
2.780000e-06	1.508967e-06	2.322569e-11	1.148972e+01	1.910203e+00
2.790000e-06	1.521565e-06	2.298215e-11	1.158564e+01	1.930904e+00
2.800000e-06	1.534079e-06	2.313965e-11	1.168092e+01	1.958642e+00
2.810000e-06	1.546498e-06	2.472399e-11	1.177549e+01	1.994034e+00
2.820000e-06	1.558809e-06	2.833901e-11	1.186923e+01	2.036929e+00
2.830000e-06	1.571032e-06	3.169860e-11	1.196230e+01	2.086528e+00
2.840000e-06	1.583175e-06	3.283433e-11	1.205476e+01	2.141552e+00
2.850000e-06	1.595223e-06	3.255920e-11	1.214650e+01	2.200447e+00
2.860000e-06	1.607134e-06	3.200303e-11	1.223719e+01	2.261586e+00
2.870000e-06	1.618863e-06	3.278148e-11	1.232650e+01	2.323440e+00
2.880000e-06	1.630418e-06	3.459962e-11	1.241448e+01	2.384719e+00
2.890000e-06	1.641850e-06	3.685015e-11	1.250153e+01	2.444457e+00
