# Temperatura_=_20.0
# Concentracion g/m^3_=_10000.0
# C_Vs_to_Am_M_A/Vsm_=_65563218390.804596
# pendiente_HvsI_1/m_=_3716.3
# ordenada_HvsI_A/m_=_1297.0
# frecuencia_Hz_=_135204.65007094538

Tiempo_(s)	Campo_(V.s)	Magnetizacion_(V.s)	Campo_(kA/m)	Magnetizacion_(A/m)
0.000000e+00	-2.129408e-06	-4.617801e-09	-1.614371e+01	-2.976194e+02
1.000000e-08	-2.129398e-06	-4.633787e-09	-1.614363e+01	-2.978669e+02
2.000000e-08	-2.129184e-06	-4.643831e-09	-1.614200e+01	-2.980908e+02
3.000000e-08	-2.128757e-06	-4.622888e-09	-1.613877e+01	-2.982888e+02
4.000000e-08	-2.128147e-06	-4.608171e-09	-1.613414e+01	-2.984596e+02
5.000000e-08	-2.127529e-06	-4.575320e-09	-1.612946e+01	-2.986022e+02
6.000000e-08	-2.126955e-06	-4.668182e-09	-1.612511e+01	-2.987166e+02
7.000000e-08	-2.126245e-06	-4.632265e-09	-1.611973e+01	-2.988034e+02
8.000000e-08	-2.125291e-06	-4.633166e-09	-1.611249e+01	-2.988638e+02
9.000000e-08	-2.124102e-06	-4.631481e-09	-1.610348e+01	-2.988997e+02
1.000000e-07	-2.122749e-06	-4.629640e-09	-1.609322e+01	-2.989128e+02
1.100000e-07	-2.121192e-06	-4.629667e-09	-1.608141e+01	-2.989051e+02
1.200000e-07	-2.119367e-06	-4.586204e-09	-1.606758e+01	-2.988782e+02
1.300000e-07	-2.117310e-06	-4.623873e-09	-1.605199e+01	-2.988334e+02
1.400000e-07	-2.115193e-06	-4.609216e-09	-1.603594e+01	-2.987712e+02
1.500000e-07	-2.113106e-06	-4.622500e-09	-1.602011e+01	-2.986919e+02
1.600000e-07	-2.110922e-06	-4.598106e-09	-1.600356e+01	-2.985950e+02
1.700000e-07	-2.108479e-06	-4.622909e-09	-1.598503e+01	-2.984798e+02
1.800000e-07	-2.105770e-06	-4.610862e-09	-1.596450e+01	-2.983455e+02
1.900000e-07	-2.102940e-06	-4.595781e-09	-1.594304e+01	-2.981914e+02
2.000000e-07	-2.100021e-06	-4.570279e-09	-1.592091e+01	-2.980168e+02
2.100000e-07	-2.096899e-06	-4.580514e-09	-1.589724e+01	-2.978216e+02
2.200000e-07	-2.093546e-06	-4.591382e-09	-1.587182e+01	-2.976060e+02
2.300000e-07	-2.090034e-06	-4.595516e-09	-1.584520e+01	-2.973706e+02
2.400000e-07	-2.086403e-06	-4.570404e-09	-1.581767e+01	-2.971164e+02
2.500000e-07	-2.082633e-06	-4.560661e-09	-1.578909e+01	-2.968445e+02
2.600000e-07	-2.078666e-06	-4.553341e-09	-1.575902e+01	-2.965563e+02
2.700000e-07	-2.074573e-06	-4.545808e-09	-1.572798e+01	-2.962529e+02
2.800000e-07	-2.070373e-06	-4.530540e-09	-1.569614e+01	-2.959354e+02
2.900000e-07	-2.066038e-06	-4.534688e-09	-1.566327e+01	-2.956045e+02
3.000000e-07	-2.061545e-06	-4.540239e-09	-1.562921e+01	-2.952609e+02
3.100000e-07	-2.056927e-06	-4.528032e-09	-1.559421e+01	-2.949047e+02
3.200000e-07	-2.052181e-06	-4.510709e-09	-1.555822e+01	-2.945363e+02
3.300000e-07	-2.047265e-06	-4.502272e-09	-1.552096e+01	-2.941559e+02
3.400000e-07	-2.042205e-06	-4.499540e-09	-1.548259e+01	-2.937636e+02
3.500000e-07	-2.037060e-06	-4.482180e-09	-1.544359e+01	-2.933601e+02
3.600000e-07	-2.031810e-06	-4.480794e-09	-1.540378e+01	-2.929458e+02
3.700000e-07	-2.026363e-06	-4.483179e-09	-1.536249e+01	-2.925217e+02
3.800000e-07	-2.020685e-06	-4.480181e-09	-1.531944e+01	-2.920885e+02
3.900000e-07	-2.014859e-06	-4.450329e-09	-1.527527e+01	-2.916471e+02
4.000000e-07	-2.008917e-06	-4.442801e-09	-1.523022e+01	-2.911980e+02
4.100000e-07	-2.002826e-06	-4.442895e-09	-1.518405e+01	-2.907416e+02
4.200000e-07	-1.996586e-06	-4.437454e-09	-1.513674e+01	-2.902776e+02
4.300000e-07	-1.990224e-06	-4.409452e-09	-1.508851e+01	-2.898051e+02
4.400000e-07	-1.983747e-06	-4.407686e-09	-1.503940e+01	-2.893230e+02
4.500000e-07	-1.977151e-06	-4.410194e-09	-1.498939e+01	-2.888295e+02
4.600000e-07	-1.970456e-06	-4.399161e-09	-1.493864e+01	-2.883225e+02
4.700000e-07	-1.963632e-06	-4.371273e-09	-1.488691e+01	-2.877998e+02
4.800000e-07	-1.956595e-06	-4.362910e-09	-1.483355e+01	-2.872596e+02
4.900000e-07	-1.949341e-06	-4.359004e-09	-1.477856e+01	-2.867001e+02
5.000000e-07	-1.941961e-06	-4.345204e-09	-1.472261e+01	-2.861201e+02
5.100000e-07	-1.934477e-06	-4.326849e-09	-1.466587e+01	-2.855191e+02
5.200000e-07	-1.926868e-06	-4.316088e-09	-1.460819e+01	-2.848971e+02
5.300000e-07	-1.919111e-06	-4.303878e-09	-1.454938e+01	-2.842546e+02
5.400000e-07	-1.911211e-06	-4.291385e-09	-1.448948e+01	-2.835926e+02
5.500000e-07	-1.903182e-06	-4.285677e-09	-1.442861e+01	-2.829121e+02
5.600000e-07	-1.895039e-06	-4.272475e-09	-1.436688e+01	-2.822143e+02
5.700000e-07	-1.886796e-06	-4.256767e-09	-1.430439e+01	-2.815001e+02
5.800000e-07	-1.878404e-06	-4.246628e-09	-1.424076e+01	-2.807698e+02
5.900000e-07	-1.869819e-06	-4.241768e-09	-1.417568e+01	-2.800237e+02
6.000000e-07	-1.861056e-06	-4.219035e-09	-1.410924e+01	-2.792614e+02
6.100000e-07	-1.852150e-06	-4.194625e-09	-1.404172e+01	-2.784824e+02
6.200000e-07	-1.843134e-06	-4.183838e-09	-1.397337e+01	-2.776860e+02
6.300000e-07	-1.833997e-06	-4.178565e-09	-1.390410e+01	-2.768715e+02
6.400000e-07	-1.824725e-06	-4.156851e-09	-1.383381e+01	-2.760387e+02
6.500000e-07	-1.815331e-06	-4.136708e-09	-1.376259e+01	-2.751876e+02
6.600000e-07	-1.805801e-06	-4.124761e-09	-1.369034e+01	-2.743189e+02
6.700000e-07	-1.796146e-06	-4.114455e-09	-1.361714e+01	-2.734336e+02
6.800000e-07	-1.786376e-06	-4.094928e-09	-1.354307e+01	-2.725334e+02
6.900000e-07	-1.776472e-06	-4.072494e-09	-1.346799e+01	-2.716199e+02
7.000000e-07	-1.766423e-06	-4.051363e-09	-1.339180e+01	-2.706949e+02
7.100000e-07	-1.756185e-06	-4.036081e-09	-1.331418e+01	-2.697598e+02
7.200000e-07	-1.745751e-06	-4.024622e-09	-1.323508e+01	-2.688157e+02
7.300000e-07	-1.735174e-06	-4.009096e-09	-1.315489e+01	-2.678627e+02
7.400000e-07	-1.724472e-06	-3.990874e-09	-1.307376e+01	-2.669005e+02
7.500000e-07	-1.713647e-06	-3.978688e-09	-1.299169e+01	-2.659279e+02
7.600000e-07	-1.702708e-06	-3.968836e-09	-1.290876e+01	-2.649434e+02
7.700000e-07	-1.691644e-06	-3.948413e-09	-1.282487e+01	-2.639451e+02
7.800000e-07	-1.680434e-06	-3.923504e-09	-1.273989e+01	-2.629313e+02
7.900000e-07	-1.669115e-06	-3.902602e-09	-1.265408e+01	-2.619007e+02
8.000000e-07	-1.657725e-06	-3.886157e-09	-1.256773e+01	-2.608526e+02
8.100000e-07	-1.646254e-06	-3.870477e-09	-1.248076e+01	-2.597871e+02
8.200000e-07	-1.634648e-06	-3.853325e-09	-1.239277e+01	-2.587054e+02
8.300000e-07	-1.622885e-06	-3.835100e-09	-1.230360e+01	-2.576093e+02
8.400000e-07	-1.610976e-06	-3.818537e-09	-1.221331e+01	-2.565012e+02
8.500000e-07	-1.598916e-06	-3.802123e-09	-1.212188e+01	-2.553839e+02
8.600000e-07	-1.586745e-06	-3.782586e-09	-1.202961e+01	-2.542597e+02
8.700000e-07	-1.574497e-06	-3.761710e-09	-1.193675e+01	-2.531306e+02
8.800000e-07	-1.562166e-06	-3.742787e-09	-1.184327e+01	-2.519975e+02
8.900000e-07	-1.549746e-06	-3.723439e-09	-1.174911e+01	-2.508600e+02
9.000000e-07	-1.537217e-06	-3.701592e-09	-1.165412e+01	-2.497167e+02
9.100000e-07	-1.524563e-06	-3.679545e-09	-1.155818e+01	-2.485646e+02
9.200000e-07	-1.511789e-06	-3.662497e-09	-1.146134e+01	-2.474001e+02
9.300000e-07	-1.498907e-06	-3.647549e-09	-1.136368e+01	-2.462189e+02
9.400000e-07	-1.485935e-06	-3.631407e-09	-1.126534e+01	-2.450168e+02
9.500000e-07	-1.472892e-06	-3.612211e-09	-1.116645e+01	-2.437901e+02
9.600000e-07	-1.459766e-06	-3.590220e-09	-1.106694e+01	-2.425359e+02
9.700000e-07	-1.446509e-06	-3.568797e-09	-1.096643e+01	-2.412529e+02
9.800000e-07	-1.433098e-06	-3.546678e-09	-1.086476e+01	-2.399412e+02
9.900000e-07	-1.419548e-06	-3.521140e-09	-1.076204e+01	-2.386025e+02
1.000000e-06	-1.405892e-06	-3.496749e-09	-1.065850e+01	-2.372400e+02
1.010000e-06	-1.392154e-06	-3.474967e-09	-1.055435e+01	-2.358577e+02
1.020000e-06	-1.378351e-06	-3.456607e-09	-1.044971e+01	-2.344602e+02
1.030000e-06	-1.364481e-06	-3.439558e-09	-1.034455e+01	-2.330522e+02
1.040000e-06	-1.350513e-06	-3.422007e-09	-1.023866e+01	-2.316376e+02
1.050000e-06	-1.336444e-06	-3.401505e-09	-1.013200e+01	-2.302195e+02
1.060000e-06	-1.322282e-06	-3.377448e-09	-1.002463e+01	-2.287994e+02
1.070000e-06	-1.308020e-06	-3.351100e-09	-9.916506e+00	-2.273776e+02
1.080000e-06	-1.293665e-06	-3.324729e-09	-9.807677e+00	-2.259528e+02
1.090000e-06	-1.279211e-06	-3.300280e-09	-9.698093e+00	-2.245224e+02
1.100000e-06	-1.264663e-06	-3.277390e-09	-9.587803e+00	-2.230833e+02
1.110000e-06	-1.250059e-06	-3.256153e-09	-9.477085e+00	-2.216317e+02
1.120000e-06	-1.235397e-06	-3.234609e-09	-9.365932e+00	-2.201643e+02
1.130000e-06	-1.220649e-06	-3.212052e-09	-9.254123e+00	-2.186781e+02
1.140000e-06	-1.205798e-06	-3.188523e-09	-9.141527e+00	-2.171712e+02
1.150000e-06	-1.190816e-06	-3.163776e-09	-9.027946e+00	-2.156428e+02
1.160000e-06	-1.175683e-06	-3.138520e-09	-8.913216e+00	-2.140932e+02
1.170000e-06	-1.160428e-06	-3.112504e-09	-8.797564e+00	-2.125239e+02
1.180000e-06	-1.145095e-06	-3.089669e-09	-8.681321e+00	-2.109371e+02
1.190000e-06	-1.129680e-06	-3.069241e-09	-8.564452e+00	-2.093355e+02
1.200000e-06	-1.114174e-06	-3.049367e-09	-8.446900e+00	-2.077219e+02
1.210000e-06	-1.098599e-06	-3.027337e-09	-8.328819e+00	-2.060990e+02
1.220000e-06	-1.082951e-06	-3.001013e-09	-8.210188e+00	-2.044687e+02
1.230000e-06	-1.067219e-06	-2.975252e-09	-8.090915e+00	-2.028323e+02
1.240000e-06	-1.051420e-06	-2.949478e-09	-7.971138e+00	-2.011904e+02
1.250000e-06	-1.035539e-06	-2.923167e-09	-7.850746e+00	-1.995425e+02
1.260000e-06	-1.019550e-06	-2.896267e-09	-7.729526e+00	-1.978877e+02
1.270000e-06	-1.003442e-06	-2.872870e-09	-7.607402e+00	-1.962246e+02
1.280000e-06	-9.872097e-07	-2.849755e-09	-7.484343e+00	-1.945515e+02
1.290000e-06	-9.708861e-07	-2.825574e-09	-7.360589e+00	-1.928667e+02
1.300000e-06	-9.545130e-07	-2.799699e-09	-7.236460e+00	-1.911687e+02
1.310000e-06	-9.380849e-07	-2.774371e-09	-7.111913e+00	-1.894561e+02
1.320000e-06	-9.216097e-07	-2.750354e-09	-6.987010e+00	-1.877281e+02
1.330000e-06	-9.050983e-07	-2.727780e-09	-6.861831e+00	-1.859839e+02
1.340000e-06	-8.885362e-07	-2.703042e-09	-6.736269e+00	-1.842232e+02
1.350000e-06	-8.719186e-07	-2.673640e-09	-6.610286e+00	-1.824457e+02
1.360000e-06	-8.552164e-07	-2.644040e-09	-6.483661e+00	-1.806514e+02
1.370000e-06	-8.384314e-07	-2.615959e-09	-6.356409e+00	-1.788402e+02
1.380000e-06	-8.215823e-07	-2.588140e-09	-6.228671e+00	-1.770123e+02
1.390000e-06	-8.046704e-07	-2.559062e-09	-6.100456e+00	-1.751681e+02
1.400000e-06	-7.877146e-07	-2.530438e-09	-5.971909e+00	-1.733080e+02
1.410000e-06	-7.707375e-07	-2.502820e-09	-5.843201e+00	-1.714330e+02
1.420000e-06	-7.537489e-07	-2.476983e-09	-5.714404e+00	-1.695446e+02
1.430000e-06	-7.367426e-07	-2.449433e-09	-5.585474e+00	-1.676447e+02
1.440000e-06	-7.197009e-07	-2.419233e-09	-5.456276e+00	-1.657357e+02
1.450000e-06	-7.026225e-07	-2.388256e-09	-5.326800e+00	-1.638206e+02
1.460000e-06	-6.854979e-07	-2.360307e-09	-5.196973e+00	-1.619024e+02
1.470000e-06	-6.683186e-07	-2.329826e-09	-5.066731e+00	-1.599839e+02
1.480000e-06	-6.510777e-07	-2.296505e-09	-4.936022e+00	-1.580677e+02
1.490000e-06	-6.337761e-07	-2.264873e-09	-4.804854e+00	-1.561554e+02
1.500000e-06	-6.164316e-07	-2.235798e-09	-4.673360e+00	-1.542477e+02
1.510000e-06	-5.990464e-07	-2.206961e-09	-4.541557e+00	-1.523439e+02
1.520000e-06	-5.816276e-07	-2.175775e-09	-4.409500e+00	-1.504418e+02
1.530000e-06	-5.641687e-07	-2.146250e-09	-4.277138e+00	-1.485378e+02
1.540000e-06	-5.466632e-07	-2.119602e-09	-4.144424e+00	-1.466275e+02
1.550000e-06	-5.291283e-07	-2.093054e-09	-4.011486e+00	-1.447052e+02
1.560000e-06	-5.115589e-07	-2.062248e-09	-3.878287e+00	-1.427653e+02
1.570000e-06	-4.939499e-07	-2.030117e-09	-3.744787e+00	-1.408020e+02
1.580000e-06	-4.762955e-07	-1.998557e-09	-3.610944e+00	-1.388108e+02
1.590000e-06	-4.586091e-07	-1.967221e-09	-3.476858e+00	-1.367880e+02
1.600000e-06	-4.408955e-07	-1.933269e-09	-3.342566e+00	-1.347317e+02
1.610000e-06	-4.231548e-07	-1.898511e-09	-3.208068e+00	-1.326420e+02
1.620000e-06	-4.053975e-07	-1.865679e-09	-3.073445e+00	-1.305207e+02
1.630000e-06	-3.876100e-07	-1.835670e-09	-2.938592e+00	-1.283713e+02
1.640000e-06	-3.698105e-07	-1.806518e-09	-2.803648e+00	-1.261989e+02
1.650000e-06	-3.520099e-07	-1.775947e-09	-2.668697e+00	-1.240091e+02
1.660000e-06	-3.341999e-07	-1.744882e-09	-2.533673e+00	-1.218081e+02
1.670000e-06	-3.163848e-07	-1.712819e-09	-2.398611e+00	-1.196016e+02
1.680000e-06	-2.985665e-07	-1.681114e-09	-2.263526e+00	-1.173945e+02
1.690000e-06	-2.807394e-07	-1.648460e-09	-2.128373e+00	-1.151904e+02
1.700000e-06	-2.628977e-07	-1.614105e-09	-1.993109e+00	-1.129914e+02
1.710000e-06	-2.450488e-07	-1.579962e-09	-1.857791e+00	-1.107975e+02
1.720000e-06	-2.271850e-07	-1.547101e-09	-1.722360e+00	-1.086075e+02
1.730000e-06	-2.093085e-07	-1.514189e-09	-1.586833e+00	-1.064184e+02
1.740000e-06	-1.914343e-07	-1.481598e-09	-1.451323e+00	-1.042264e+02
1.750000e-06	-1.735474e-07	-1.449671e-09	-1.315717e+00	-1.020268e+02
1.760000e-06	-1.556411e-07	-1.419284e-09	-1.179964e+00	-9.981524e+01
1.770000e-06	-1.377142e-07	-1.389247e-09	-1.044054e+00	-9.758722e+01
1.780000e-06	-1.197610e-07	-1.356365e-09	-9.079454e-01	-9.533923e+01
1.790000e-06	-1.017788e-07	-1.318871e-09	-7.716170e-01	-9.306871e+01
1.800000e-06	-8.378704e-08	-1.279895e-09	-6.352156e-01	-9.077425e+01
1.810000e-06	-6.581229e-08	-1.243010e-09	-4.989434e-01	-8.845559e+01
1.820000e-06	-4.783511e-08	-1.208311e-09	-3.626529e-01	-8.611351e+01
1.830000e-06	-2.985645e-08	-1.176649e-09	-2.263510e-01	-8.374962e+01
1.840000e-06	-1.188546e-08	-1.148169e-09	-9.010733e-02	-8.136603e+01
1.850000e-06	6.095334e-09	-1.119093e-09	4.621062e-02	-7.896512e+01
1.860000e-06	2.408117e-08	-1.087724e-09	1.825669e-01	-7.654915e+01
1.870000e-06	4.207160e-08	-1.052954e-09	3.189579e-01	-7.412010e+01
1.880000e-06	6.006654e-08	-1.013043e-09	4.553831e-01	-7.167942e+01
1.890000e-06	7.806024e-08	-9.700559e-10	5.917989e-01	-6.922800e+01
1.900000e-06	9.603451e-08	-9.293058e-10	7.280674e-01	-6.676614e+01
1.910000e-06	1.139928e-07	-8.945438e-10	8.642151e-01	-6.429363e+01
1.920000e-06	1.319522e-07	-8.622986e-10	1.000370e+00	-6.180987e+01
1.930000e-06	1.499149e-07	-8.276110e-10	1.136552e+00	-5.931407e+01
1.940000e-06	1.678625e-07	-7.939614e-10	1.272618e+00	-5.680538e+01
1.950000e-06	1.857745e-07	-7.621391e-10	1.408415e+00	-5.428311e+01
1.960000e-06	2.036767e-07	-7.267277e-10	1.544136e+00	-5.174681e+01
1.970000e-06	2.215637e-07	-6.863060e-10	1.679743e+00	-4.919632e+01
1.980000e-06	2.394279e-07	-6.431829e-10	1.815178e+00	-4.663186e+01
1.990000e-06	2.572826e-07	-6.029174e-10	1.950539e+00	-4.405393e+01
2.000000e-06	2.751168e-07	-5.683715e-10	2.085746e+00	-4.146327e+01
2.010000e-06	2.929311e-07	-5.343032e-10	2.220802e+00	-3.886071e+01
2.020000e-06	3.107406e-07	-4.966593e-10	2.355821e+00	-3.624712e+01
2.030000e-06	3.285465e-07	-4.588134e-10	2.490813e+00	-3.362324e+01
2.040000e-06	3.463500e-07	-4.214587e-10	2.625787e+00	-3.098963e+01
2.050000e-06	3.641443e-07	-3.829254e-10	2.760691e+00	-2.834661e+01
2.060000e-06	3.819239e-07	-3.423135e-10	2.895484e+00	-2.569426e+01
2.070000e-06	3.996832e-07	-3.001604e-10	3.030122e+00	-2.303245e+01
2.080000e-06	4.174196e-07	-2.613094e-10	3.164587e+00	-2.036090e+01
2.090000e-06	4.351380e-07	-2.273425e-10	3.298916e+00	-1.767928e+01
2.100000e-06	4.528223e-07	-1.928695e-10	3.432987e+00	-1.498731e+01
2.110000e-06	4.704688e-07	-1.541002e-10	3.566770e+00	-1.228486e+01
2.120000e-06	4.880854e-07	-1.148384e-10	3.700327e+00	-9.571995e+00
2.130000e-06	5.056681e-07	-7.767505e-11	3.833627e+00	-6.849045e+00
2.140000e-06	5.232079e-07	-3.660218e-11	3.966601e+00	-4.116583e+00
2.150000e-06	5.407108e-07	8.769684e-12	4.099296e+00	-1.375386e+00
2.160000e-06	5.581761e-07	5.112564e-11	4.231706e+00	1.373648e+00
2.170000e-06	5.755921e-07	8.928394e-11	4.363742e+00	4.129607e+00
2.180000e-06	5.929791e-07	1.275322e-10	4.495559e+00	6.891693e+00
2.190000e-06	6.103475e-07	1.681523e-10	4.627234e+00	9.659333e+00
2.200000e-06	6.276656e-07	2.103651e-10	4.758528e+00	1.243229e+01
2.210000e-06	6.449168e-07	2.500962e-10	4.889315e+00	1.521072e+01
2.220000e-06	6.621130e-07	2.878601e-10	5.019684e+00	1.799518e+01
2.230000e-06	6.792573e-07	3.293425e-10	5.149661e+00	2.078662e+01
2.240000e-06	6.963469e-07	3.737640e-10	5.279222e+00	2.358626e+01
2.250000e-06	7.133972e-07	4.160521e-10	5.408486e+00	2.639551e+01
2.260000e-06	7.304224e-07	4.554081e-10	5.537559e+00	2.921576e+01
2.270000e-06	7.474289e-07	4.952916e-10	5.666491e+00	3.204823e+01
2.280000e-06	7.644181e-07	5.381165e-10	5.795291e+00	3.489383e+01
2.290000e-06	7.813706e-07	5.807432e-10	5.923814e+00	3.775297e+01
2.300000e-06	7.982778e-07	6.203011e-10	6.051992e+00	4.062553e+01
2.310000e-06	8.151393e-07	6.592868e-10	6.179824e+00	4.351080e+01
2.320000e-06	8.319443e-07	7.022724e-10	6.307228e+00	4.640749e+01
2.330000e-06	8.486823e-07	7.484027e-10	6.434124e+00	4.931387e+01
2.340000e-06	8.653374e-07	7.919313e-10	6.560391e+00	5.222785e+01
2.350000e-06	8.819013e-07	8.326599e-10	6.685968e+00	5.514722e+01
2.360000e-06	8.983980e-07	8.738482e-10	6.811034e+00	5.806978e+01
2.370000e-06	9.148454e-07	9.181331e-10	6.935727e+00	6.099354e+01
2.380000e-06	9.312498e-07	9.632081e-10	7.060094e+00	6.391688e+01
2.390000e-06	9.475998e-07	1.005913e-09	7.184049e+00	6.683863e+01
2.400000e-06	9.638862e-07	1.047160e-09	7.307520e+00	6.975813e+01
2.410000e-06	9.800882e-07	1.087205e-09	7.430353e+00	7.267520e+01
2.420000e-06	9.961762e-07	1.126288e-09	7.552322e+00	7.559003e+01
2.430000e-06	1.012177e-06	1.166748e-09	7.673627e+00	7.850312e+01
2.440000e-06	1.028112e-06	1.211800e-09	7.794437e+00	8.141504e+01
2.450000e-06	1.043971e-06	1.259787e-09	7.914669e+00	8.432633e+01
2.460000e-06	1.059744e-06	1.307151e-09	8.034248e+00	8.723730e+01
2.470000e-06	1.075438e-06	1.352170e-09	8.153228e+00	9.014792e+01
2.480000e-06	1.091053e-06	1.392486e-09	8.271616e+00	9.305775e+01
2.490000e-06	1.106585e-06	1.429494e-09	8.389364e+00	9.596593e+01
2.500000e-06	1.122037e-06	1.467395e-09	8.506510e+00	9.887120e+01
2.510000e-06	1.137423e-06	1.507027e-09	8.623160e+00	1.017720e+02
2.520000e-06	1.152742e-06	1.549476e-09	8.739292e+00	1.046666e+02
2.530000e-06	1.167971e-06	1.594232e-09	8.854754e+00	1.075533e+02
2.540000e-06	1.183086e-06	1.638676e-09	8.969344e+00	1.104305e+02
2.550000e-06	1.198054e-06	1.681419e-09	9.082817e+00	1.132967e+02
2.560000e-06	1.212887e-06	1.719944e-09	9.195275e+00	1.161510e+02
2.570000e-06	1.227614e-06	1.756389e-09	9.306926e+00	1.189929e+02
2.580000e-06	1.242256e-06	1.793472e-09	9.417932e+00	1.218221e+02
2.590000e-06	1.256847e-06	1.833685e-09	9.528546e+00	1.246387e+02
2.600000e-06	1.271371e-06	1.876796e-09	9.638661e+00	1.274431e+02
2.610000e-06	1.285796e-06	1.920243e-09	9.748018e+00	1.302359e+02
2.620000e-06	1.300118e-06	1.962474e-09	9.856601e+00	1.330176e+02
2.630000e-06	1.314348e-06	2.004176e-09	9.964483e+00	1.357884e+02
2.640000e-06	1.328487e-06	2.047488e-09	1.007168e+01	1.385484e+02
2.650000e-06	1.342528e-06	2.090720e-09	1.017812e+01	1.412973e+02
2.660000e-06	1.356482e-06	2.130817e-09	1.028391e+01	1.440345e+02
2.670000e-06	1.370373e-06	2.169732e-09	1.038923e+01	1.467589e+02
2.680000e-06	1.384194e-06	2.209635e-09	1.049400e+01	1.494691e+02
2.690000e-06	1.397933e-06	2.248640e-09	1.059817e+01	1.521636e+02
2.700000e-06	1.411584e-06	2.285766e-09	1.070166e+01	1.548406e+02
2.710000e-06	1.425106e-06	2.322787e-09	1.080417e+01	1.574985e+02
2.720000e-06	1.438476e-06	2.360785e-09	1.090554e+01	1.601357e+02
2.730000e-06	1.451691e-06	2.399572e-09	1.100572e+01	1.627510e+02
2.740000e-06	1.464780e-06	2.439374e-09	1.110495e+01	1.653434e+02
2.750000e-06	1.477786e-06	2.477500e-09	1.120355e+01	1.679124e+02
2.760000e-06	1.490719e-06	2.514668e-09	1.130161e+01	1.704578e+02
2.770000e-06	1.503562e-06	2.550423e-09	1.139897e+01	1.729799e+02
2.780000e-06	1.516293e-06	2.585294e-09	1.149549e+01	1.754791e+02
2.790000e-06	1.528919e-06	2.620717e-09	1.159121e+01	1.779562e+02
2.800000e-06	1.541461e-06	2.657198e-09	1.168629e+01	1.804120e+02
2.810000e-06	1.553926e-06	2.694991e-09	1.178080e+01	1.828474e+02
2.820000e-06	1.566280e-06	2.732381e-09	1.187446e+01	1.852632e+02
2.830000e-06	1.578533e-06	2.768773e-09	1.196735e+01	1.876598e+02
2.840000e-06	1.590711e-06	2.804883e-09	1.205968e+01	1.900374e+02
2.850000e-06	1.602789e-06	2.840763e-09	1.215124e+01	1.923959e+02
2.860000e-06	1.614714e-06	2.875669e-09	1.224165e+01	1.947348e+02
2.870000e-06	1.626458e-06	2.909014e-09	1.233068e+01	1.970533e+02
2.880000e-06	1.638053e-06	2.940175e-09	1.241859e+01	1.993504e+02
2.890000e-06	1.649523e-06	2.971500e-09	1.250555e+01	2.016247e+02
2.900000e-06	1.660891e-06	3.003893e-09	1.259173e+01	2.038751e+02
