# Temperatura_=_20.0
# Concentracion g/m^3_=_10000.0
# C_Vs_to_Am_M_A/Vsm_=_65563218390.804596
# pendiente_HvsI_1/m_=_3716.3
# ordenada_HvsI_A/m_=_1297.0
# frecuencia_Hz_=_135206.8033165808

Tiempo_(s)	Campo_(V.s)	Magnetizacion_(V.s)	Campo_(kA/m)	Magnetizacion_(A/m)
0.000000e+00	-2.127691e-06	-4.622662e-09	-1.613907e+01	-2.978391e+02
1.000000e-08	-2.127714e-06	-4.623748e-09	-1.613925e+01	-2.981090e+02
2.000000e-08	-2.127555e-06	-4.630106e-09	-1.613804e+01	-2.983700e+02
3.000000e-08	-2.127131e-06	-4.633470e-09	-1.613483e+01	-2.986163e+02
4.000000e-08	-2.126497e-06	-4.634149e-09	-1.613001e+01	-2.988408e+02
5.000000e-08	-2.125900e-06	-4.625798e-09	-1.612549e+01	-2.990362e+02
6.000000e-08	-2.125337e-06	-4.618544e-09	-1.612122e+01	-2.991962e+02
7.000000e-08	-2.124645e-06	-4.627652e-09	-1.611597e+01	-2.993161e+02
8.000000e-08	-2.123712e-06	-4.615355e-09	-1.610889e+01	-2.993935e+02
9.000000e-08	-2.122554e-06	-4.624580e-09	-1.610011e+01	-2.994286e+02
1.000000e-07	-2.121213e-06	-4.609827e-09	-1.608993e+01	-2.994241e+02
1.100000e-07	-2.119679e-06	-4.620023e-09	-1.607830e+01	-2.993848e+02
1.200000e-07	-2.117865e-06	-4.607568e-09	-1.606454e+01	-2.993169e+02
1.300000e-07	-2.115799e-06	-4.603294e-09	-1.604887e+01	-2.992272e+02
1.400000e-07	-2.113697e-06	-4.603507e-09	-1.603292e+01	-2.991221e+02
1.500000e-07	-2.111645e-06	-4.603488e-09	-1.601736e+01	-2.990069e+02
1.600000e-07	-2.109488e-06	-4.603212e-09	-1.600100e+01	-2.988852e+02
1.700000e-07	-2.107034e-06	-4.587653e-09	-1.598238e+01	-2.987585e+02
1.800000e-07	-2.104319e-06	-4.584566e-09	-1.596179e+01	-2.986263e+02
1.900000e-07	-2.101497e-06	-4.574630e-09	-1.594038e+01	-2.984865e+02
2.000000e-07	-2.098574e-06	-4.566843e-09	-1.591821e+01	-2.983355e+02
2.100000e-07	-2.095435e-06	-4.558770e-09	-1.589440e+01	-2.981694e+02
2.200000e-07	-2.092082e-06	-4.567045e-09	-1.586897e+01	-2.979840e+02
2.300000e-07	-2.088584e-06	-4.569997e-09	-1.584244e+01	-2.977762e+02
2.400000e-07	-2.084970e-06	-4.567746e-09	-1.581503e+01	-2.975438e+02
2.500000e-07	-2.081167e-06	-4.550478e-09	-1.578617e+01	-2.972860e+02
2.600000e-07	-2.077173e-06	-4.539655e-09	-1.575588e+01	-2.970033e+02
2.700000e-07	-2.073081e-06	-4.524226e-09	-1.572484e+01	-2.966975e+02
2.800000e-07	-2.068900e-06	-4.515922e-09	-1.569312e+01	-2.963711e+02
2.900000e-07	-2.064551e-06	-4.505987e-09	-1.566014e+01	-2.960269e+02
3.000000e-07	-2.060060e-06	-4.511094e-09	-1.562608e+01	-2.956676e+02
3.100000e-07	-2.055468e-06	-4.507905e-09	-1.559124e+01	-2.952958e+02
3.200000e-07	-2.050741e-06	-4.502068e-09	-1.555539e+01	-2.949130e+02
3.300000e-07	-2.045838e-06	-4.487015e-09	-1.551820e+01	-2.945204e+02
3.400000e-07	-2.040794e-06	-4.481567e-09	-1.547994e+01	-2.941183e+02
3.500000e-07	-2.035680e-06	-4.471136e-09	-1.544114e+01	-2.937067e+02
3.600000e-07	-2.030451e-06	-4.459651e-09	-1.540148e+01	-2.932853e+02
3.700000e-07	-2.024986e-06	-4.445731e-09	-1.536003e+01	-2.928541e+02
3.800000e-07	-2.019294e-06	-4.441890e-09	-1.531686e+01	-2.924132e+02
3.900000e-07	-2.013482e-06	-4.438448e-09	-1.527277e+01	-2.919630e+02
4.000000e-07	-2.007551e-06	-4.429560e-09	-1.522778e+01	-2.915045e+02
4.100000e-07	-2.001453e-06	-4.418467e-09	-1.518153e+01	-2.910385e+02
4.200000e-07	-1.995202e-06	-4.411660e-09	-1.513411e+01	-2.905659e+02
4.300000e-07	-1.988850e-06	-4.405389e-09	-1.508593e+01	-2.900871e+02
4.400000e-07	-1.982366e-06	-4.393414e-09	-1.503674e+01	-2.896021e+02
4.500000e-07	-1.975765e-06	-4.381217e-09	-1.498667e+01	-2.891096e+02
4.600000e-07	-1.969086e-06	-4.367151e-09	-1.493601e+01	-2.886078e+02
4.700000e-07	-1.962272e-06	-4.356704e-09	-1.488432e+01	-2.880938e+02
4.800000e-07	-1.955216e-06	-4.343960e-09	-1.483080e+01	-2.875643e+02
4.900000e-07	-1.947938e-06	-4.335093e-09	-1.477560e+01	-2.870154e+02
5.000000e-07	-1.940551e-06	-4.323978e-09	-1.471957e+01	-2.864437e+02
5.100000e-07	-1.933069e-06	-4.314432e-09	-1.466281e+01	-2.858463e+02
5.200000e-07	-1.925443e-06	-4.304039e-09	-1.460497e+01	-2.852209e+02
5.300000e-07	-1.917684e-06	-4.294993e-09	-1.454612e+01	-2.845667e+02
5.400000e-07	-1.909781e-06	-4.282089e-09	-1.448617e+01	-2.838840e+02
5.500000e-07	-1.901730e-06	-4.270386e-09	-1.442510e+01	-2.831743e+02
5.600000e-07	-1.893565e-06	-4.258782e-09	-1.436317e+01	-2.824399e+02
5.700000e-07	-1.885319e-06	-4.248756e-09	-1.430062e+01	-2.816838e+02
5.800000e-07	-1.876959e-06	-4.233220e-09	-1.423720e+01	-2.809091e+02
5.900000e-07	-1.868409e-06	-4.212700e-09	-1.417235e+01	-2.801190e+02
6.000000e-07	-1.859659e-06	-4.192372e-09	-1.410598e+01	-2.793159e+02
6.100000e-07	-1.850756e-06	-4.177176e-09	-1.403845e+01	-2.785018e+02
6.200000e-07	-1.841742e-06	-4.166165e-09	-1.397008e+01	-2.776777e+02
6.300000e-07	-1.832627e-06	-4.153976e-09	-1.390094e+01	-2.768441e+02
6.400000e-07	-1.823404e-06	-4.140768e-09	-1.383098e+01	-2.760013e+02
6.500000e-07	-1.814058e-06	-4.127107e-09	-1.376009e+01	-2.751488e+02
6.600000e-07	-1.804573e-06	-4.110664e-09	-1.368814e+01	-2.742865e+02
6.700000e-07	-1.794945e-06	-4.089184e-09	-1.361511e+01	-2.734144e+02
6.800000e-07	-1.785195e-06	-4.067969e-09	-1.354116e+01	-2.725326e+02
6.900000e-07	-1.775338e-06	-4.049802e-09	-1.346639e+01	-2.716416e+02
7.000000e-07	-1.765334e-06	-4.036125e-09	-1.339050e+01	-2.707418e+02
7.100000e-07	-1.755101e-06	-4.021804e-09	-1.331288e+01	-2.698337e+02
7.200000e-07	-1.744660e-06	-4.008243e-09	-1.323369e+01	-2.689170e+02
7.300000e-07	-1.734080e-06	-3.995819e-09	-1.315344e+01	-2.679910e+02
7.400000e-07	-1.723383e-06	-3.982407e-09	-1.307229e+01	-2.670543e+02
7.500000e-07	-1.712569e-06	-3.965135e-09	-1.299026e+01	-2.661045e+02
7.600000e-07	-1.701647e-06	-3.946132e-09	-1.290742e+01	-2.651385e+02
7.700000e-07	-1.690607e-06	-3.925432e-09	-1.282368e+01	-2.641529e+02
7.800000e-07	-1.679426e-06	-3.906121e-09	-1.273887e+01	-2.631445e+02
7.900000e-07	-1.668127e-06	-3.886516e-09	-1.265316e+01	-2.621102e+02
8.000000e-07	-1.656745e-06	-3.865480e-09	-1.256683e+01	-2.610482e+02
8.100000e-07	-1.645256e-06	-3.847866e-09	-1.247968e+01	-2.599580e+02
8.200000e-07	-1.633639e-06	-3.835704e-09	-1.239156e+01	-2.588404e+02
8.300000e-07	-1.621888e-06	-3.824069e-09	-1.230243e+01	-2.576980e+02
8.400000e-07	-1.609979e-06	-3.807565e-09	-1.221210e+01	-2.565345e+02
8.500000e-07	-1.597909e-06	-3.785850e-09	-1.212054e+01	-2.553548e+02
8.600000e-07	-1.585729e-06	-3.763323e-09	-1.202816e+01	-2.541639e+02
8.700000e-07	-1.573495e-06	-3.742370e-09	-1.193536e+01	-2.529663e+02
8.800000e-07	-1.561178e-06	-3.719698e-09	-1.184193e+01	-2.517657e+02
8.900000e-07	-1.548762e-06	-3.697011e-09	-1.174775e+01	-2.505644e+02
9.000000e-07	-1.536239e-06	-3.677269e-09	-1.165276e+01	-2.493624e+02
9.100000e-07	-1.523597e-06	-3.661418e-09	-1.155686e+01	-2.481582e+02
9.200000e-07	-1.510845e-06	-3.647050e-09	-1.146014e+01	-2.469484e+02
9.300000e-07	-1.497982e-06	-3.630320e-09	-1.136257e+01	-2.457282e+02
9.400000e-07	-1.485032e-06	-3.611517e-09	-1.126434e+01	-2.444921e+02
9.500000e-07	-1.472014e-06	-3.592317e-09	-1.116560e+01	-2.432349e+02
9.600000e-07	-1.458922e-06	-3.571395e-09	-1.106629e+01	-2.419518e+02
9.700000e-07	-1.445719e-06	-3.549601e-09	-1.096614e+01	-2.406394e+02
9.800000e-07	-1.432358e-06	-3.527678e-09	-1.086480e+01	-2.392963e+02
9.900000e-07	-1.418833e-06	-3.506487e-09	-1.076220e+01	-2.379227e+02
1.000000e-06	-1.405164e-06	-3.486460e-09	-1.065852e+01	-2.365208e+02
1.010000e-06	-1.391409e-06	-3.466415e-09	-1.055418e+01	-2.350942e+02
1.020000e-06	-1.377597e-06	-3.448181e-09	-1.044942e+01	-2.336475e+02
1.030000e-06	-1.363724e-06	-3.429616e-09	-1.034419e+01	-2.321857e+02
1.040000e-06	-1.349777e-06	-3.409376e-09	-1.023840e+01	-2.307135e+02
1.050000e-06	-1.335733e-06	-3.386901e-09	-1.013187e+01	-2.292347e+02
1.060000e-06	-1.321584e-06	-3.361512e-09	-1.002454e+01	-2.277520e+02
1.070000e-06	-1.307329e-06	-3.334381e-09	-9.916417e+00	-2.262668e+02
1.080000e-06	-1.292957e-06	-3.306538e-09	-9.807402e+00	-2.247793e+02
1.090000e-06	-1.278483e-06	-3.280380e-09	-9.697618e+00	-2.232883e+02
1.100000e-06	-1.263937e-06	-3.256833e-09	-9.587278e+00	-2.217926e+02
1.110000e-06	-1.249338e-06	-3.236669e-09	-9.476542e+00	-2.202903e+02
1.120000e-06	-1.234689e-06	-3.218294e-09	-9.365427e+00	-2.187799e+02
1.130000e-06	-1.219959e-06	-3.197942e-09	-9.253697e+00	-2.172605e+02
1.140000e-06	-1.205112e-06	-3.176878e-09	-9.141081e+00	-2.157320e+02
1.150000e-06	-1.190135e-06	-3.156337e-09	-9.027471e+00	-2.141949e+02
1.160000e-06	-1.175031e-06	-3.133536e-09	-8.912907e+00	-2.126502e+02
1.170000e-06	-1.159813e-06	-3.107744e-09	-8.797474e+00	-2.110992e+02
1.180000e-06	-1.144489e-06	-3.079965e-09	-8.681235e+00	-2.095430e+02
1.190000e-06	-1.129081e-06	-3.054763e-09	-8.564364e+00	-2.079824e+02
1.200000e-06	-1.113616e-06	-3.032031e-09	-8.447058e+00	-2.064173e+02
1.210000e-06	-1.098080e-06	-3.009822e-09	-8.329215e+00	-2.048468e+02
1.220000e-06	-1.082448e-06	-2.986845e-09	-8.210641e+00	-2.032689e+02
1.230000e-06	-1.066731e-06	-2.963842e-09	-8.091426e+00	-2.016814e+02
1.240000e-06	-1.050947e-06	-2.940367e-09	-7.971697e+00	-2.000814e+02
1.250000e-06	-1.035076e-06	-2.912985e-09	-7.851314e+00	-1.984663e+02
1.260000e-06	-1.019084e-06	-2.884812e-09	-7.730012e+00	-1.968340e+02
1.270000e-06	-1.003004e-06	-2.860575e-09	-7.608035e+00	-1.951830e+02
1.280000e-06	-9.868582e-07	-2.838185e-09	-7.485568e+00	-1.935132e+02
1.290000e-06	-9.706171e-07	-2.813833e-09	-7.362375e+00	-1.918254e+02
1.300000e-06	-9.542826e-07	-2.787042e-09	-7.238474e+00	-1.901213e+02
1.310000e-06	-9.378650e-07	-2.760205e-09	-7.113942e+00	-1.884033e+02
1.320000e-06	-9.214090e-07	-2.736477e-09	-6.989119e+00	-1.866738e+02
1.330000e-06	-9.049317e-07	-2.714365e-09	-6.864135e+00	-1.849351e+02
1.340000e-06	-8.883847e-07	-2.690401e-09	-6.738621e+00	-1.831886e+02
1.350000e-06	-8.717606e-07	-2.663791e-09	-6.612524e+00	-1.814349e+02
1.360000e-06	-8.550741e-07	-2.637276e-09	-6.485952e+00	-1.796734e+02
1.370000e-06	-8.383283e-07	-2.610019e-09	-6.358931e+00	-1.779025e+02
1.380000e-06	-8.215076e-07	-2.579910e-09	-6.231342e+00	-1.761199e+02
1.390000e-06	-8.046104e-07	-2.548995e-09	-6.103173e+00	-1.743232e+02
1.400000e-06	-7.876707e-07	-2.520973e-09	-5.974681e+00	-1.725102e+02
1.410000e-06	-7.707032e-07	-2.495768e-09	-5.845978e+00	-1.706795e+02
1.420000e-06	-7.537140e-07	-2.470465e-09	-5.717110e+00	-1.688307e+02
1.430000e-06	-7.367112e-07	-2.444681e-09	-5.588140e+00	-1.669653e+02
1.440000e-06	-7.196901e-07	-2.418017e-09	-5.459031e+00	-1.650858e+02
1.450000e-06	-7.026279e-07	-2.389144e-09	-5.329609e+00	-1.631961e+02
1.460000e-06	-6.855086e-07	-2.357559e-09	-5.199755e+00	-1.613007e+02
1.470000e-06	-6.683336e-07	-2.324351e-09	-5.069479e+00	-1.594041e+02
1.480000e-06	-6.510944e-07	-2.292601e-09	-4.938715e+00	-1.575103e+02
1.490000e-06	-6.337926e-07	-2.264300e-09	-4.807477e+00	-1.556220e+02
1.500000e-06	-6.164430e-07	-2.237471e-09	-4.675875e+00	-1.537399e+02
1.510000e-06	-5.990640e-07	-2.208459e-09	-4.544051e+00	-1.518627e+02
1.520000e-06	-5.816553e-07	-2.179059e-09	-4.412002e+00	-1.499871e+02
1.530000e-06	-5.642114e-07	-2.152412e-09	-4.279685e+00	-1.481080e+02
1.540000e-06	-5.467279e-07	-2.125071e-09	-4.147069e+00	-1.462188e+02
1.550000e-06	-5.292005e-07	-2.096303e-09	-4.014119e+00	-1.443127e+02
1.560000e-06	-5.116417e-07	-2.065666e-09	-3.880931e+00	-1.423829e+02
1.570000e-06	-4.940412e-07	-2.033813e-09	-3.747427e+00	-1.404240e+02
1.580000e-06	-4.764030e-07	-2.003532e-09	-3.613637e+00	-1.384322e+02
1.590000e-06	-4.587378e-07	-1.971243e-09	-3.479642e+00	-1.364059e+02
1.600000e-06	-4.410465e-07	-1.936947e-09	-3.345449e+00	-1.343458e+02
1.610000e-06	-4.233190e-07	-1.905436e-09	-3.210981e+00	-1.322549e+02
1.620000e-06	-4.055526e-07	-1.877941e-09	-3.076219e+00	-1.301379e+02
1.630000e-06	-3.877719e-07	-1.850696e-09	-2.941347e+00	-1.280007e+02
1.640000e-06	-3.699876e-07	-1.821110e-09	-2.806449e+00	-1.258496e+02
1.650000e-06	-3.521995e-07	-1.790450e-09	-2.671522e+00	-1.236904e+02
1.660000e-06	-3.344067e-07	-1.759091e-09	-2.536559e+00	-1.215281e+02
1.670000e-06	-3.166037e-07	-1.725161e-09	-2.401519e+00	-1.193661e+02
1.680000e-06	-2.987798e-07	-1.688986e-09	-2.266320e+00	-1.172061e+02
1.690000e-06	-2.809488e-07	-1.652719e-09	-2.131067e+00	-1.150480e+02
1.700000e-06	-2.631190e-07	-1.619233e-09	-1.995824e+00	-1.128901e+02
1.710000e-06	-2.452712e-07	-1.590155e-09	-1.860443e+00	-1.107298e+02
1.720000e-06	-2.274102e-07	-1.561545e-09	-1.724964e+00	-1.085635e+02
1.730000e-06	-2.095521e-07	-1.529201e-09	-1.589505e+00	-1.063876e+02
1.740000e-06	-1.916671e-07	-1.495848e-09	-1.453843e+00	-1.041988e+02
1.750000e-06	-1.737560e-07	-1.464366e-09	-1.317983e+00	-1.019944e+02
1.760000e-06	-1.558591e-07	-1.432232e-09	-1.182231e+00	-9.977231e+01
1.770000e-06	-1.379632e-07	-1.400251e-09	-1.046486e+00	-9.753155e+01
1.780000e-06	-1.200387e-07	-1.368541e-09	-9.105239e-01	-9.527164e+01
1.790000e-06	-1.021012e-07	-1.333150e-09	-7.744631e-01	-9.299258e+01
1.800000e-06	-8.416486e-08	-1.294792e-09	-6.384116e-01	-9.069464e+01
1.810000e-06	-6.622008e-08	-1.257720e-09	-5.022959e-01	-8.837801e+01
1.820000e-06	-4.826755e-08	-1.223657e-09	-3.661215e-01	-8.604275e+01
1.830000e-06	-3.033255e-08	-1.192072e-09	-2.300801e-01	-8.368860e+01
1.840000e-06	-1.240109e-08	-1.161864e-09	-9.406536e-02	-8.131509e+01
1.850000e-06	5.551773e-09	-1.133534e-09	4.211160e-02	-7.892164e+01
1.860000e-06	2.351256e-08	-1.103762e-09	1.783487e-01	-7.650770e+01
1.870000e-06	4.148414e-08	-1.066785e-09	3.146677e-01	-7.407304e+01
1.880000e-06	5.945864e-08	-1.023389e-09	4.510087e-01	-7.161781e+01
1.890000e-06	7.741920e-08	-9.793257e-10	5.872441e-01	-6.914274e+01
1.900000e-06	9.536453e-08	-9.401220e-10	7.233640e-01	-6.664907e+01
1.910000e-06	1.133042e-07	-9.044609e-10	8.594409e-01	-6.413851e+01
1.920000e-06	1.312402e-07	-8.705098e-10	9.954899e-01	-6.161306e+01
1.930000e-06	1.491481e-07	-8.369107e-10	1.131326e+00	-5.907475e+01
1.940000e-06	1.670449e-07	-8.035683e-10	1.267078e+00	-5.652544e+01
1.950000e-06	1.849484e-07	-7.687177e-10	1.402880e+00	-5.396660e+01
1.960000e-06	2.028195e-07	-7.277565e-10	1.538437e+00	-5.139918e+01
1.970000e-06	2.206651e-07	-6.828737e-10	1.673801e+00	-4.882358e+01
1.980000e-06	2.385202e-07	-6.400798e-10	1.809236e+00	-4.623975e+01
1.990000e-06	2.563679e-07	-6.003151e-10	1.944615e+00	-4.364728e+01
2.000000e-06	2.741906e-07	-5.623257e-10	2.079804e+00	-4.104571e+01
2.010000e-06	2.920059e-07	-5.263460e-10	2.214938e+00	-3.843467e+01
2.020000e-06	3.098166e-07	-4.935534e-10	2.350037e+00	-3.581416e+01
2.030000e-06	3.276150e-07	-4.610893e-10	2.485042e+00	-3.318460e+01
2.040000e-06	3.454030e-07	-4.227954e-10	2.619969e+00	-3.054690e+01
2.050000e-06	3.631895e-07	-3.802655e-10	2.754884e+00	-2.790234e+01
2.060000e-06	3.809546e-07	-3.376083e-10	2.889636e+00	-2.525237e+01
2.070000e-06	3.986969e-07	-2.966684e-10	3.024216e+00	-2.259835e+01
2.080000e-06	4.164193e-07	-2.562789e-10	3.158645e+00	-1.994125e+01
2.090000e-06	4.341082e-07	-2.165104e-10	3.292820e+00	-1.728142e+01
2.100000e-06	4.517727e-07	-1.800363e-10	3.426810e+00	-1.461840e+01
2.110000e-06	4.694014e-07	-1.459761e-10	3.560528e+00	-1.195084e+01
2.120000e-06	4.869790e-07	-1.096212e-10	3.693858e+00	-9.276659e+00
2.130000e-06	5.045389e-07	-6.932296e-11	3.827055e+00	-6.593166e+00
2.140000e-06	5.220867e-07	-2.705293e-11	3.960159e+00	-3.897450e+00
2.150000e-06	5.395898e-07	1.400921e-11	4.092924e+00	-1.186722e+00
2.160000e-06	5.570551e-07	5.379866e-11	4.225403e+00	1.541309e+00
2.170000e-06	5.744829e-07	9.411141e-11	4.357597e+00	4.288135e+00
2.180000e-06	5.918725e-07	1.353817e-10	4.489502e+00	7.054258e+00
2.190000e-06	6.092288e-07	1.764604e-10	4.621153e+00	9.839147e+00
2.200000e-06	6.265451e-07	2.163500e-10	4.752502e+00	1.264135e+01
2.210000e-06	6.437972e-07	2.584792e-10	4.883364e+00	1.545874e+01
2.220000e-06	6.609770e-07	3.028665e-10	5.013677e+00	1.828885e+01
2.230000e-06	6.781038e-07	3.449240e-10	5.143588e+00	2.112927e+01
2.240000e-06	6.951940e-07	3.836310e-10	5.273222e+00	2.397798e+01
2.250000e-06	7.122515e-07	4.215296e-10	5.402607e+00	2.683360e+01
2.260000e-06	7.292730e-07	4.620001e-10	5.531719e+00	2.969554e+01
2.270000e-06	7.462784e-07	5.019705e-10	5.660709e+00	3.256397e+01
2.280000e-06	7.632710e-07	5.405736e-10	5.789603e+00	3.543964e+01
2.290000e-06	7.802277e-07	5.835083e-10	5.918224e+00	3.832363e+01
2.300000e-06	7.971312e-07	6.297189e-10	6.046441e+00	4.121696e+01
2.310000e-06	8.139741e-07	6.741539e-10	6.174199e+00	4.412025e+01
2.320000e-06	8.307401e-07	7.147084e-10	6.301372e+00	4.703349e+01
2.330000e-06	8.474266e-07	7.560075e-10	6.427944e+00	4.995583e+01
2.340000e-06	8.640268e-07	7.980352e-10	6.553860e+00	5.288561e+01
2.350000e-06	8.805581e-07	8.384499e-10	6.679255e+00	5.582050e+01
2.360000e-06	8.970432e-07	8.773253e-10	6.804298e+00	5.875779e+01
2.370000e-06	9.134762e-07	9.180810e-10	6.928947e+00	6.169478e+01
2.380000e-06	9.298652e-07	9.643610e-10	7.053262e+00	6.462912e+01
2.390000e-06	9.461889e-07	1.012773e-09	7.177080e+00	6.755922e+01
2.400000e-06	9.624380e-07	1.056563e-09	7.300335e+00	7.048442e+01
2.410000e-06	9.786249e-07	1.094928e-09	7.423116e+00	7.340507e+01
2.420000e-06	9.947151e-07	1.133636e-09	7.545164e+00	7.632239e+01
2.430000e-06	1.010707e-06	1.175449e-09	7.666466e+00	7.923822e+01
2.440000e-06	1.026623e-06	1.219099e-09	7.787191e+00	8.215456e+01
2.450000e-06	1.042475e-06	1.260855e-09	7.907437e+00	8.507317e+01
2.460000e-06	1.058271e-06	1.303678e-09	8.027251e+00	8.799507e+01
2.470000e-06	1.073979e-06	1.348958e-09	8.146404e+00	9.092020e+01
2.480000e-06	1.089586e-06	1.392850e-09	8.264784e+00	9.384731e+01
2.490000e-06	1.105104e-06	1.434365e-09	8.382493e+00	9.677388e+01
2.500000e-06	1.120551e-06	1.475780e-09	8.499662e+00	9.969647e+01
2.510000e-06	1.135935e-06	1.520334e-09	8.616349e+00	1.026110e+02
2.520000e-06	1.151250e-06	1.564708e-09	8.732517e+00	1.055135e+02
2.530000e-06	1.166480e-06	1.604351e-09	8.848047e+00	1.084002e+02
2.540000e-06	1.181580e-06	1.642473e-09	8.962582e+00	1.112687e+02
2.550000e-06	1.196524e-06	1.681891e-09	9.075936e+00	1.141177e+02
2.560000e-06	1.211343e-06	1.721394e-09	9.188344e+00	1.169476e+02
2.570000e-06	1.226065e-06	1.759617e-09	9.300013e+00	1.197600e+02
2.580000e-06	1.240708e-06	1.800164e-09	9.411084e+00	1.225578e+02
2.590000e-06	1.255279e-06	1.845946e-09	9.521608e+00	1.253444e+02
2.600000e-06	1.269777e-06	1.893784e-09	9.631577e+00	1.281234e+02
2.610000e-06	1.284190e-06	1.938407e-09	9.740905e+00	1.308974e+02
2.620000e-06	1.298518e-06	1.977454e-09	9.849589e+00	1.336683e+02
2.630000e-06	1.312773e-06	2.014116e-09	9.957716e+00	1.364363e+02
2.640000e-06	1.326946e-06	2.050545e-09	1.006522e+01	1.392000e+02
2.650000e-06	1.341008e-06	2.086398e-09	1.017188e+01	1.419566e+02
2.660000e-06	1.354960e-06	2.124902e-09	1.027771e+01	1.447021e+02
2.670000e-06	1.368825e-06	2.168927e-09	1.038288e+01	1.474320e+02
2.680000e-06	1.382631e-06	2.214827e-09	1.048760e+01	1.501419e+02
2.690000e-06	1.396381e-06	2.256264e-09	1.059190e+01	1.528282e+02
2.700000e-06	1.410038e-06	2.292234e-09	1.069550e+01	1.554884e+02
2.710000e-06	1.423553e-06	2.329608e-09	1.079800e+01	1.581216e+02
2.720000e-06	1.436917e-06	2.368717e-09	1.089938e+01	1.607286e+02
2.730000e-06	1.450124e-06	2.404112e-09	1.099956e+01	1.633114e+02
2.740000e-06	1.463204e-06	2.436160e-09	1.109877e+01	1.658733e+02
2.750000e-06	1.476209e-06	2.470584e-09	1.119742e+01	1.684179e+02
2.760000e-06	1.489151e-06	2.510061e-09	1.129559e+01	1.709487e+02
2.770000e-06	1.502021e-06	2.548709e-09	1.139321e+01	1.734682e+02
2.780000e-06	1.514787e-06	2.583065e-09	1.149004e+01	1.759778e+02
2.790000e-06	1.527443e-06	2.619359e-09	1.158604e+01	1.784772e+02
2.800000e-06	1.540008e-06	2.658021e-09	1.168135e+01	1.809647e+02
2.810000e-06	1.552476e-06	2.695804e-09	1.177592e+01	1.834371e+02
2.820000e-06	1.564829e-06	2.732177e-09	1.186962e+01	1.858905e+02
2.830000e-06	1.577086e-06	2.767293e-09	1.196259e+01	1.883205e+02
2.840000e-06	1.589279e-06	2.802454e-09	1.205508e+01	1.907235e+02
2.850000e-06	1.601386e-06	2.837614e-09	1.214692e+01	1.930963e+02
2.860000e-06	1.613332e-06	2.870644e-09	1.223753e+01	1.954376e+02
2.870000e-06	1.625078e-06	2.902880e-09	1.232662e+01	1.977474e+02
2.880000e-06	1.636657e-06	2.935918e-09	1.241446e+01	2.000272e+02
2.890000e-06	1.648131e-06	2.970430e-09	1.250149e+01	2.022798e+02
2.900000e-06	1.659520e-06	3.006789e-09	1.258788e+01	2.045087e+02
