# Temperatura_=_20.0
# Concentracion g/m^3_=_10000.0
# C_Vs_to_Am_M_A/Vsm_=_65563218390.804596
# pendiente_HvsI_1/m_=_3716.3
# ordenada_HvsI_A/m_=_1297.0
# frecuencia_Hz_=_135210.8820178061

Tiempo_(s)	Campo_(V.s)	Magnetizacion_(V.s)	Campo_(kA/m)	Magnetizacion_(A/m)
0.000000e+00	-2.129085e-06	-4.602903e-09	-1.613917e+01	-2.975801e+02
1.000000e-08	-2.129091e-06	-4.609515e-09	-1.613922e+01	-2.978388e+02
2.000000e-08	-2.128903e-06	-4.627870e-09	-1.613780e+01	-2.980841e+02
3.000000e-08	-2.128475e-06	-4.617571e-09	-1.613455e+01	-2.983114e+02
4.000000e-08	-2.127856e-06	-4.609801e-09	-1.612986e+01	-2.985160e+02
5.000000e-08	-2.127265e-06	-4.567826e-09	-1.612538e+01	-2.986931e+02
6.000000e-08	-2.126713e-06	-4.616732e-09	-1.612120e+01	-2.988389e+02
7.000000e-08	-2.126040e-06	-4.630321e-09	-1.611610e+01	-2.989506e+02
8.000000e-08	-2.125112e-06	-4.603432e-09	-1.610906e+01	-2.990271e+02
9.000000e-08	-2.123944e-06	-4.627221e-09	-1.610020e+01	-2.990689e+02
1.000000e-07	-2.122592e-06	-4.597149e-09	-1.608996e+01	-2.990780e+02
1.100000e-07	-2.121045e-06	-4.636775e-09	-1.607823e+01	-2.990576e+02
1.200000e-07	-2.119213e-06	-4.583123e-09	-1.606434e+01	-2.990114e+02
1.300000e-07	-2.117150e-06	-4.604461e-09	-1.604870e+01	-2.989436e+02
1.400000e-07	-2.115047e-06	-4.593823e-09	-1.603276e+01	-2.988575e+02
1.500000e-07	-2.112989e-06	-4.597822e-09	-1.601716e+01	-2.987560e+02
1.600000e-07	-2.110806e-06	-4.583838e-09	-1.600062e+01	-2.986408e+02
1.700000e-07	-2.108325e-06	-4.585835e-09	-1.598181e+01	-2.985125e+02
1.800000e-07	-2.105606e-06	-4.600556e-09	-1.596120e+01	-2.983707e+02
1.900000e-07	-2.102778e-06	-4.582311e-09	-1.593976e+01	-2.982141e+02
2.000000e-07	-2.099842e-06	-4.566098e-09	-1.591750e+01	-2.980410e+02
2.100000e-07	-2.096696e-06	-4.553290e-09	-1.589366e+01	-2.978498e+02
2.200000e-07	-2.093324e-06	-4.569313e-09	-1.586809e+01	-2.976392e+02
2.300000e-07	-2.089802e-06	-4.574681e-09	-1.584140e+01	-2.974085e+02
2.400000e-07	-2.086160e-06	-4.569323e-09	-1.581379e+01	-2.971575e+02
2.500000e-07	-2.082330e-06	-4.542568e-09	-1.578475e+01	-2.968872e+02
2.600000e-07	-2.078333e-06	-4.534096e-09	-1.575446e+01	-2.965988e+02
2.700000e-07	-2.074239e-06	-4.518700e-09	-1.572343e+01	-2.962940e+02
2.800000e-07	-2.070036e-06	-4.514198e-09	-1.569157e+01	-2.959746e+02
2.900000e-07	-2.065672e-06	-4.507364e-09	-1.565848e+01	-2.956422e+02
3.000000e-07	-2.061169e-06	-4.524817e-09	-1.562435e+01	-2.952981e+02
3.100000e-07	-2.056559e-06	-4.516934e-09	-1.558941e+01	-2.949427e+02
3.200000e-07	-2.051822e-06	-4.510093e-09	-1.555350e+01	-2.945763e+02
3.300000e-07	-2.046922e-06	-4.490932e-09	-1.551635e+01	-2.941984e+02
3.400000e-07	-2.041884e-06	-4.488351e-09	-1.547817e+01	-2.938085e+02
3.500000e-07	-2.036771e-06	-4.461684e-09	-1.543940e+01	-2.934058e+02
3.600000e-07	-2.031544e-06	-4.455080e-09	-1.539978e+01	-2.929901e+02
3.700000e-07	-2.026097e-06	-4.454167e-09	-1.535850e+01	-2.925613e+02
3.800000e-07	-2.020425e-06	-4.465089e-09	-1.531550e+01	-2.921199e+02
3.900000e-07	-2.014614e-06	-4.441374e-09	-1.527145e+01	-2.916668e+02
4.000000e-07	-2.008703e-06	-4.424550e-09	-1.522664e+01	-2.912035e+02
4.100000e-07	-2.002631e-06	-4.419855e-09	-1.518061e+01	-2.907313e+02
4.200000e-07	-1.996391e-06	-4.420735e-09	-1.513331e+01	-2.902516e+02
4.300000e-07	-1.990018e-06	-4.395831e-09	-1.508501e+01	-2.897652e+02
4.400000e-07	-1.983520e-06	-4.378968e-09	-1.503574e+01	-2.892723e+02
4.500000e-07	-1.976921e-06	-4.382385e-09	-1.498572e+01	-2.887721e+02
4.600000e-07	-1.970231e-06	-4.380509e-09	-1.493501e+01	-2.882632e+02
4.700000e-07	-1.963405e-06	-4.359885e-09	-1.488327e+01	-2.877432e+02
4.800000e-07	-1.956361e-06	-4.341396e-09	-1.482987e+01	-2.872092e+02
4.900000e-07	-1.949099e-06	-4.341142e-09	-1.477482e+01	-2.866580e+02
5.000000e-07	-1.941701e-06	-4.334273e-09	-1.471874e+01	-2.860865e+02
5.100000e-07	-1.934207e-06	-4.323806e-09	-1.466194e+01	-2.854920e+02
5.200000e-07	-1.926593e-06	-4.309461e-09	-1.460422e+01	-2.848724e+02
5.300000e-07	-1.918817e-06	-4.299953e-09	-1.454528e+01	-2.842267e+02
5.400000e-07	-1.910896e-06	-4.283170e-09	-1.448523e+01	-2.835545e+02
5.500000e-07	-1.902855e-06	-4.274391e-09	-1.442428e+01	-2.828566e+02
5.600000e-07	-1.894711e-06	-4.259176e-09	-1.436255e+01	-2.821341e+02
5.700000e-07	-1.886477e-06	-4.243042e-09	-1.430013e+01	-2.813888e+02
5.800000e-07	-1.878105e-06	-4.226268e-09	-1.423667e+01	-2.806226e+02
5.900000e-07	-1.869545e-06	-4.222168e-09	-1.417178e+01	-2.798371e+02
6.000000e-07	-1.860781e-06	-4.208011e-09	-1.410534e+01	-2.790340e+02
6.100000e-07	-1.851854e-06	-4.187768e-09	-1.403767e+01	-2.782143e+02
6.200000e-07	-1.842816e-06	-4.173486e-09	-1.396916e+01	-2.773788e+02
6.300000e-07	-1.833674e-06	-4.169829e-09	-1.389986e+01	-2.765282e+02
6.400000e-07	-1.824437e-06	-4.158011e-09	-1.382984e+01	-2.756628e+02
6.500000e-07	-1.815080e-06	-4.136869e-09	-1.375891e+01	-2.747832e+02
6.600000e-07	-1.805571e-06	-4.116118e-09	-1.368683e+01	-2.738902e+02
6.700000e-07	-1.795921e-06	-4.101125e-09	-1.361368e+01	-2.729851e+02
6.800000e-07	-1.786147e-06	-4.088324e-09	-1.353959e+01	-2.720692e+02
6.900000e-07	-1.776259e-06	-4.070135e-09	-1.346463e+01	-2.711444e+02
7.000000e-07	-1.766238e-06	-4.049759e-09	-1.338867e+01	-2.702123e+02
7.100000e-07	-1.756021e-06	-4.032192e-09	-1.331122e+01	-2.692744e+02
7.200000e-07	-1.745598e-06	-4.024113e-09	-1.323222e+01	-2.683315e+02
7.300000e-07	-1.735021e-06	-4.012557e-09	-1.315204e+01	-2.673839e+02
7.400000e-07	-1.724332e-06	-3.992838e-09	-1.307101e+01	-2.664306e+02
7.500000e-07	-1.713516e-06	-3.972384e-09	-1.298903e+01	-2.654700e+02
7.600000e-07	-1.702557e-06	-3.962530e-09	-1.290595e+01	-2.644991e+02
7.700000e-07	-1.691486e-06	-3.948802e-09	-1.282203e+01	-2.635149e+02
7.800000e-07	-1.680304e-06	-3.927316e-09	-1.273727e+01	-2.625138e+02
7.900000e-07	-1.669008e-06	-3.904150e-09	-1.265164e+01	-2.614926e+02
8.000000e-07	-1.657620e-06	-3.887411e-09	-1.256531e+01	-2.604486e+02
8.100000e-07	-1.646138e-06	-3.873134e-09	-1.247828e+01	-2.593804e+02
8.200000e-07	-1.634517e-06	-3.856494e-09	-1.239019e+01	-2.582878e+02
8.300000e-07	-1.622749e-06	-3.837678e-09	-1.230098e+01	-2.571719e+02
8.400000e-07	-1.610842e-06	-3.819720e-09	-1.221072e+01	-2.560353e+02
8.500000e-07	-1.598788e-06	-3.802218e-09	-1.211935e+01	-2.548814e+02
8.600000e-07	-1.586615e-06	-3.781010e-09	-1.202707e+01	-2.537142e+02
8.700000e-07	-1.574365e-06	-3.756350e-09	-1.193421e+01	-2.525377e+02
8.800000e-07	-1.562020e-06	-3.734909e-09	-1.184063e+01	-2.513554e+02
8.900000e-07	-1.549565e-06	-3.719261e-09	-1.174622e+01	-2.501695e+02
9.000000e-07	-1.537009e-06	-3.703744e-09	-1.165104e+01	-2.489812e+02
9.100000e-07	-1.524350e-06	-3.685405e-09	-1.155508e+01	-2.477898e+02
9.200000e-07	-1.511591e-06	-3.667015e-09	-1.145837e+01	-2.465934e+02
9.300000e-07	-1.498740e-06	-3.652323e-09	-1.136095e+01	-2.453886e+02
9.400000e-07	-1.485789e-06	-3.636499e-09	-1.126278e+01	-2.441713e+02
9.500000e-07	-1.472744e-06	-3.615184e-09	-1.116389e+01	-2.429374e+02
9.600000e-07	-1.459609e-06	-3.591527e-09	-1.106433e+01	-2.416827e+02
9.700000e-07	-1.446362e-06	-3.570362e-09	-1.096391e+01	-2.404040e+02
9.800000e-07	-1.432983e-06	-3.551430e-09	-1.086249e+01	-2.390995e+02
9.900000e-07	-1.419451e-06	-3.530192e-09	-1.075991e+01	-2.377687e+02
1.000000e-06	-1.405776e-06	-3.505929e-09	-1.065625e+01	-2.364126e+02
1.010000e-06	-1.392010e-06	-3.483087e-09	-1.055190e+01	-2.350334e+02
1.020000e-06	-1.378183e-06	-3.464575e-09	-1.044709e+01	-2.336346e+02
1.030000e-06	-1.364296e-06	-3.446495e-09	-1.034182e+01	-2.322198e+02
1.040000e-06	-1.350340e-06	-3.426022e-09	-1.023603e+01	-2.307928e+02
1.050000e-06	-1.336295e-06	-3.403099e-09	-1.012956e+01	-2.293570e+02
1.060000e-06	-1.322127e-06	-3.379013e-09	-1.002216e+01	-2.279146e+02
1.070000e-06	-1.307863e-06	-3.354959e-09	-9.914036e+00	-2.264670e+02
1.080000e-06	-1.293490e-06	-3.329175e-09	-9.805090e+00	-2.250142e+02
1.090000e-06	-1.279004e-06	-3.303636e-09	-9.695277e+00	-2.235552e+02
1.100000e-06	-1.264444e-06	-3.281300e-09	-9.584910e+00	-2.220879e+02
1.110000e-06	-1.249825e-06	-3.263649e-09	-9.474088e+00	-2.206099e+02
1.120000e-06	-1.235152e-06	-3.246605e-09	-9.362863e+00	-2.191186e+02
1.130000e-06	-1.220409e-06	-3.225036e-09	-9.251105e+00	-2.176115e+02
1.140000e-06	-1.205556e-06	-3.200660e-09	-9.138519e+00	-2.160868e+02
1.150000e-06	-1.190558e-06	-3.174103e-09	-9.024827e+00	-2.145434e+02
1.160000e-06	-1.175426e-06	-3.147061e-09	-8.910118e+00	-2.129810e+02
1.170000e-06	-1.160181e-06	-3.119726e-09	-8.794562e+00	-2.114002e+02
1.180000e-06	-1.144853e-06	-3.091626e-09	-8.678368e+00	-2.098025e+02
1.190000e-06	-1.129459e-06	-3.067351e-09	-8.561679e+00	-2.081897e+02
1.200000e-06	-1.113990e-06	-3.046046e-09	-8.444414e+00	-2.065642e+02
1.210000e-06	-1.098422e-06	-3.024581e-09	-8.326404e+00	-2.049283e+02
1.220000e-06	-1.082749e-06	-2.999895e-09	-8.207598e+00	-2.032842e+02
1.230000e-06	-1.067004e-06	-2.974352e-09	-8.088247e+00	-2.016338e+02
1.240000e-06	-1.051207e-06	-2.948993e-09	-7.968501e+00	-1.999790e+02
1.250000e-06	-1.035347e-06	-2.922266e-09	-7.848278e+00	-1.983207e+02
1.260000e-06	-1.019404e-06	-2.893615e-09	-7.727426e+00	-1.966599e+02
1.270000e-06	-1.003351e-06	-2.866608e-09	-7.605738e+00	-1.949967e+02
1.280000e-06	-9.871674e-07	-2.840468e-09	-7.483059e+00	-1.933312e+02
1.290000e-06	-9.708582e-07	-2.814668e-09	-7.359429e+00	-1.916627e+02
1.300000e-06	-9.544800e-07	-2.789904e-09	-7.235277e+00	-1.899903e+02
1.310000e-06	-9.380556e-07	-2.765165e-09	-7.110775e+00	-1.883124e+02
1.320000e-06	-9.215757e-07	-2.741430e-09	-6.985851e+00	-1.866271e+02
1.330000e-06	-9.050741e-07	-2.718736e-09	-6.860764e+00	-1.849320e+02
1.340000e-06	-8.885262e-07	-2.694391e-09	-6.735325e+00	-1.832242e+02
1.350000e-06	-8.719037e-07	-2.666700e-09	-6.609321e+00	-1.815010e+02
1.360000e-06	-8.552052e-07	-2.638582e-09	-6.482741e+00	-1.797593e+02
1.370000e-06	-8.384471e-07	-2.611181e-09	-6.355709e+00	-1.779965e+02
1.380000e-06	-8.216316e-07	-2.584611e-09	-6.228242e+00	-1.762106e+02
1.390000e-06	-8.047329e-07	-2.557330e-09	-6.100144e+00	-1.744005e+02
1.400000e-06	-7.877858e-07	-2.529867e-09	-5.971680e+00	-1.725661e+02
1.410000e-06	-7.708091e-07	-2.503521e-09	-5.842990e+00	-1.707088e+02
1.420000e-06	-7.537988e-07	-2.478639e-09	-5.714047e+00	-1.688309e+02
1.430000e-06	-7.367726e-07	-2.452077e-09	-5.584982e+00	-1.669363e+02
1.440000e-06	-7.197323e-07	-2.421498e-09	-5.455812e+00	-1.650294e+02
1.450000e-06	-7.026594e-07	-2.389539e-09	-5.326393e+00	-1.631149e+02
1.460000e-06	-6.855326e-07	-2.360402e-09	-5.196567e+00	-1.611978e+02
1.470000e-06	-6.683417e-07	-2.329842e-09	-5.066253e+00	-1.592820e+02
1.480000e-06	-6.510928e-07	-2.297181e-09	-4.935501e+00	-1.573705e+02
1.490000e-06	-6.338033e-07	-2.265145e-09	-4.804441e+00	-1.554647e+02
1.500000e-06	-6.164695e-07	-2.235292e-09	-4.673045e+00	-1.535643e+02
1.510000e-06	-5.990819e-07	-2.206136e-09	-4.541241e+00	-1.516671e+02
1.520000e-06	-5.816560e-07	-2.177576e-09	-4.409147e+00	-1.497693e+02
1.530000e-06	-5.642109e-07	-2.151206e-09	-4.276907e+00	-1.478660e+02
1.540000e-06	-5.467478e-07	-2.124884e-09	-4.144531e+00	-1.459515e+02
1.550000e-06	-5.292318e-07	-2.098226e-09	-4.011754e+00	-1.440200e+02
1.560000e-06	-5.116648e-07	-2.065798e-09	-3.878591e+00	-1.420662e+02
1.570000e-06	-4.940741e-07	-2.029864e-09	-3.745247e+00	-1.400860e+02
1.580000e-06	-4.764386e-07	-1.995859e-09	-3.611564e+00	-1.380767e+02
1.590000e-06	-4.587633e-07	-1.963297e-09	-3.477580e+00	-1.360372e+02
1.600000e-06	-4.410575e-07	-1.930781e-09	-3.343363e+00	-1.339684e+02
1.610000e-06	-4.233136e-07	-1.900185e-09	-3.208859e+00	-1.318726e+02
1.620000e-06	-4.055450e-07	-1.870686e-09	-3.074167e+00	-1.297531e+02
1.630000e-06	-3.877603e-07	-1.841561e-09	-2.939353e+00	-1.276142e+02
1.640000e-06	-3.699641e-07	-1.811147e-09	-2.804451e+00	-1.254603e+02
1.650000e-06	-3.521571e-07	-1.778302e-09	-2.669468e+00	-1.232955e+02
1.660000e-06	-3.343433e-07	-1.743670e-09	-2.534434e+00	-1.211232e+02
1.670000e-06	-3.165254e-07	-1.708727e-09	-2.399368e+00	-1.189458e+02
1.680000e-06	-2.986995e-07	-1.675061e-09	-2.264242e+00	-1.167646e+02
1.690000e-06	-2.808616e-07	-1.642134e-09	-2.129025e+00	-1.145796e+02
1.700000e-06	-2.630056e-07	-1.611067e-09	-1.993671e+00	-1.123901e+02
1.710000e-06	-2.451468e-07	-1.581757e-09	-1.858295e+00	-1.101946e+02
1.720000e-06	-2.272868e-07	-1.551645e-09	-1.722910e+00	-1.079914e+02
1.730000e-06	-2.094080e-07	-1.518163e-09	-1.587383e+00	-1.057784e+02
1.740000e-06	-1.915015e-07	-1.482078e-09	-1.451645e+00	-1.035542e+02
1.750000e-06	-1.735793e-07	-1.446776e-09	-1.315789e+00	-1.013173e+02
1.760000e-06	-1.556526e-07	-1.413833e-09	-1.179898e+00	-9.906688e+01
1.770000e-06	-1.377063e-07	-1.380744e-09	-1.043859e+00	-9.680257e+01
1.780000e-06	-1.197351e-07	-1.346188e-09	-9.076323e-01	-9.452426e+01
1.790000e-06	-1.017668e-07	-1.308717e-09	-7.714261e-01	-9.223206e+01
1.800000e-06	-8.380167e-08	-1.272076e-09	-6.352447e-01	-8.992615e+01
1.810000e-06	-6.580998e-08	-1.238124e-09	-4.988616e-01	-8.760659e+01
1.820000e-06	-4.779912e-08	-1.205196e-09	-3.623333e-01	-8.527333e+01
1.830000e-06	-2.980682e-08	-1.173639e-09	-2.259457e-01	-8.292612e+01
1.840000e-06	-1.183399e-08	-1.144498e-09	-8.970564e-02	-8.056465e+01
1.850000e-06	6.136489e-09	-1.116402e-09	4.651664e-02	-7.818855e+01
1.860000e-06	2.411375e-08	-1.084528e-09	1.827903e-01	-7.579763e+01
1.870000e-06	4.210700e-08	-1.045356e-09	3.191851e-01	-7.339190e+01
1.880000e-06	6.011311e-08	-1.002610e-09	4.556775e-01	-7.097170e+01
1.890000e-06	7.812543e-08	-9.612913e-10	5.922168e-01	-6.853772e+01
1.900000e-06	9.611315e-08	-9.236289e-10	7.285698e-01	-6.609098e+01
1.910000e-06	1.140805e-07	-8.888991e-10	8.647686e-01	-6.363265e+01
1.920000e-06	1.320350e-07	-8.563120e-10	1.000869e+00	-6.116395e+01
1.930000e-06	1.499630e-07	-8.267073e-10	1.136770e+00	-5.868595e+01
1.940000e-06	1.678682e-07	-7.965601e-10	1.272497e+00	-5.619936e+01
1.950000e-06	1.857592e-07	-7.616146e-10	1.408117e+00	-5.370440e+01
1.960000e-06	2.036392e-07	-7.202005e-10	1.543653e+00	-5.120076e+01
1.970000e-06	2.215163e-07	-6.771363e-10	1.679168e+00	-4.868752e+01
1.980000e-06	2.393810e-07	-6.359334e-10	1.814588e+00	-4.616331e+01
1.990000e-06	2.572319e-07	-5.966208e-10	1.949904e+00	-4.362645e+01
2.000000e-06	2.750731e-07	-5.612716e-10	2.085146e+00	-4.107513e+01
2.010000e-06	2.929053e-07	-5.290589e-10	2.220320e+00	-3.850768e+01
2.020000e-06	3.107299e-07	-4.979998e-10	2.355437e+00	-3.592277e+01
2.030000e-06	3.285417e-07	-4.656401e-10	2.490456e+00	-3.331954e+01
2.040000e-06	3.463492e-07	-4.279704e-10	2.625443e+00	-3.069780e+01
2.050000e-06	3.641470e-07	-3.856224e-10	2.760356e+00	-2.805794e+01
2.060000e-06	3.819293e-07	-3.418860e-10	2.895152e+00	-2.540095e+01
2.070000e-06	3.996890e-07	-2.989524e-10	3.029776e+00	-2.272828e+01
2.080000e-06	4.174161e-07	-2.582191e-10	3.164154e+00	-2.004170e+01
2.090000e-06	4.351281e-07	-2.208487e-10	3.298417e+00	-1.734309e+01
2.100000e-06	4.528110e-07	-1.851437e-10	3.432459e+00	-1.463432e+01
2.110000e-06	4.704614e-07	-1.495410e-10	3.566254e+00	-1.191712e+01
2.120000e-06	4.880745e-07	-1.126643e-10	3.699768e+00	-9.192976e+00
2.130000e-06	5.056331e-07	-7.232861e-11	3.832868e+00	-6.463152e+00
2.140000e-06	5.231598e-07	-2.840845e-11	3.965726e+00	-3.728659e+00
2.150000e-06	5.406633e-07	1.486254e-11	4.098408e+00	-9.903039e-01
2.160000e-06	5.581390e-07	5.522638e-11	4.230880e+00	1.751277e+00
2.170000e-06	5.755637e-07	9.446929e-11	4.362965e+00	4.495600e+00
2.180000e-06	5.929480e-07	1.340126e-10	4.494744e+00	7.242348e+00
2.190000e-06	6.103083e-07	1.745385e-10	4.626341e+00	9.991414e+00
2.200000e-06	6.276261e-07	2.147719e-10	4.757615e+00	1.274298e+01
2.210000e-06	6.448926e-07	2.528444e-10	4.888502e+00	1.549759e+01
2.220000e-06	6.620997e-07	2.910613e-10	5.018937e+00	1.825623e+01
2.230000e-06	6.792520e-07	3.329694e-10	5.148957e+00	2.102035e+01
2.240000e-06	6.963658e-07	3.755066e-10	5.278685e+00	2.379184e+01
2.250000e-06	7.134386e-07	4.166357e-10	5.408103e+00	2.657292e+01
2.260000e-06	7.304710e-07	4.577793e-10	5.537214e+00	2.936594e+01
2.270000e-06	7.474787e-07	5.012801e-10	5.666138e+00	3.217315e+01
2.280000e-06	7.644666e-07	5.449298e-10	5.794912e+00	3.499642e+01
2.290000e-06	7.814261e-07	5.859594e-10	5.923471e+00	3.783695e+01
2.300000e-06	7.983380e-07	6.246347e-10	6.051669e+00	4.069508e+01
2.310000e-06	8.151934e-07	6.616862e-10	6.179438e+00	4.357009e+01
2.320000e-06	8.319890e-07	7.001936e-10	6.306755e+00	4.646026e+01
2.330000e-06	8.486946e-07	7.434299e-10	6.433388e+00	4.936294e+01
2.340000e-06	8.653152e-07	7.876124e-10	6.559378e+00	5.227481e+01
2.350000e-06	8.818652e-07	8.313168e-10	6.684833e+00	5.519225e+01
2.360000e-06	8.983464e-07	8.765664e-10	6.809766e+00	5.811172e+01
2.370000e-06	9.147774e-07	9.216906e-10	6.934319e+00	6.103023e+01
2.380000e-06	9.311680e-07	9.658903e-10	7.058564e+00	6.394563e+01
2.390000e-06	9.475217e-07	1.008164e-09	7.182531e+00	6.685686e+01
2.400000e-06	9.637971e-07	1.048690e-09	7.305904e+00	6.976406e+01
2.410000e-06	9.799855e-07	1.086559e-09	7.428617e+00	7.266845e+01
2.420000e-06	9.960862e-07	1.124553e-09	7.550667e+00	7.557206e+01
2.430000e-06	1.012089e-06	1.165005e-09	7.671976e+00	7.847733e+01
2.440000e-06	1.028015e-06	1.207693e-09	7.792696e+00	8.138666e+01
2.450000e-06	1.043873e-06	1.251656e-09	7.912903e+00	8.430187e+01
2.460000e-06	1.059661e-06	1.296484e-09	8.032581e+00	8.722385e+01
2.470000e-06	1.075376e-06	1.340785e-09	8.151708e+00	9.015222e+01
2.480000e-06	1.090998e-06	1.382891e-09	8.270131e+00	9.308521e+01
2.490000e-06	1.106530e-06	1.423416e-09	8.387867e+00	9.601983e+01
2.500000e-06	1.121986e-06	1.463231e-09	8.505026e+00	9.895208e+01
2.510000e-06	1.137380e-06	1.503180e-09	8.621723e+00	1.018774e+02
2.520000e-06	1.152726e-06	1.544339e-09	8.738046e+00	1.047913e+02
2.530000e-06	1.167978e-06	1.587525e-09	8.853662e+00	1.076898e+02
2.540000e-06	1.183107e-06	1.631292e-09	8.968343e+00	1.105700e+02
2.550000e-06	1.198083e-06	1.673725e-09	9.081867e+00	1.134302e+02
2.560000e-06	1.212900e-06	1.714754e-09	9.194190e+00	1.162706e+02
2.570000e-06	1.227614e-06	1.755378e-09	9.305727e+00	1.190925e+02
2.580000e-06	1.242264e-06	1.794412e-09	9.416774e+00	1.218986e+02
2.590000e-06	1.256851e-06	1.833889e-09	9.527349e+00	1.246921e+02
2.600000e-06	1.271363e-06	1.875192e-09	9.637356e+00	1.274768e+02
2.610000e-06	1.285783e-06	1.915655e-09	9.746664e+00	1.302555e+02
2.620000e-06	1.300097e-06	1.954807e-09	9.855171e+00	1.330305e+02
2.630000e-06	1.314323e-06	1.993419e-09	9.963008e+00	1.358026e+02
2.640000e-06	1.328472e-06	2.031988e-09	1.007026e+01	1.385711e+02
2.650000e-06	1.342522e-06	2.071619e-09	1.017677e+01	1.413337e+02
2.660000e-06	1.356478e-06	2.112458e-09	1.028256e+01	1.440870e+02
2.670000e-06	1.370367e-06	2.154600e-09	1.038784e+01	1.468267e+02
2.680000e-06	1.384198e-06	2.197889e-09	1.049268e+01	1.495480e+02
2.690000e-06	1.397955e-06	2.239741e-09	1.059697e+01	1.522467e+02
2.700000e-06	1.411610e-06	2.278536e-09	1.070048e+01	1.549191e+02
2.710000e-06	1.425124e-06	2.315237e-09	1.080292e+01	1.575630e+02
2.720000e-06	1.438472e-06	2.351024e-09	1.090410e+01	1.601773e+02
2.730000e-06	1.451667e-06	2.386991e-09	1.100412e+01	1.627627e+02
2.740000e-06	1.464754e-06	2.423753e-09	1.110333e+01	1.653209e+02
2.750000e-06	1.477771e-06	2.461986e-09	1.120200e+01	1.678548e+02
2.760000e-06	1.490729e-06	2.500631e-09	1.130022e+01	1.703677e+02
2.770000e-06	1.503587e-06	2.537182e-09	1.139769e+01	1.728627e+02
2.780000e-06	1.516318e-06	2.572952e-09	1.149420e+01	1.753429e+02
2.790000e-06	1.528960e-06	2.609499e-09	1.159003e+01	1.778101e+02
2.800000e-06	1.541524e-06	2.645613e-09	1.168527e+01	1.802653e+02
2.810000e-06	1.553994e-06	2.681152e-09	1.177980e+01	1.827084e+02
2.820000e-06	1.566360e-06	2.716143e-09	1.187353e+01	1.851381e+02
2.830000e-06	1.578630e-06	2.752913e-09	1.196655e+01	1.875524e+02
2.840000e-06	1.590816e-06	2.790494e-09	1.205892e+01	1.899486e+02
2.850000e-06	1.602927e-06	2.826403e-09	1.215072e+01	1.923242e+02
2.860000e-06	1.614903e-06	2.861918e-09	1.224151e+01	1.946766e+02
2.870000e-06	1.626658e-06	2.896984e-09	1.233061e+01	1.970037e+02
2.880000e-06	1.638228e-06	2.931705e-09	1.241832e+01	1.993041e+02
2.890000e-06	1.649693e-06	2.964417e-09	1.250522e+01	2.015770e+02
2.900000e-06	1.661075e-06	2.994884e-09	1.259151e+01	2.038221e+02
