# Temperatura_=_20.0
# Concentracion g/m^3_=_10000.0
# C_Vs_to_Am_M_A/Vsm_=_65563218390.804596
# pendiente_HvsI_1/m_=_3716.3
# ordenada_HvsI_A/m_=_1297.0
# frecuencia_Hz_=_135211.26545722512

Tiempo_(s)	Campo_(V.s)	Magnetizacion_(V.s)	Campo_(kA/m)	Magnetizacion_(A/m)
0.000000e+00	-2.129589e-06	-4.643149e-09	-1.613976e+01	-2.983940e+02
1.000000e-08	-2.129438e-06	-4.656700e-09	-1.613861e+01	-2.986362e+02
2.000000e-08	-2.129047e-06	-4.643478e-09	-1.613565e+01	-2.988597e+02
3.000000e-08	-2.128464e-06	-4.640525e-09	-1.613123e+01	-2.990596e+02
4.000000e-08	-2.127852e-06	-4.607238e-09	-1.612660e+01	-2.992315e+02
5.000000e-08	-2.127291e-06	-4.666789e-09	-1.612234e+01	-2.993722e+02
6.000000e-08	-2.126625e-06	-4.677249e-09	-1.611730e+01	-2.994800e+02
7.000000e-08	-2.125726e-06	-4.645946e-09	-1.611048e+01	-2.995548e+02
8.000000e-08	-2.124601e-06	-4.672016e-09	-1.610196e+01	-2.995983e+02
9.000000e-08	-2.123282e-06	-4.632986e-09	-1.609196e+01	-2.996138e+02
1.000000e-07	-2.121767e-06	-4.675004e-09	-1.608048e+01	-2.996054e+02
1.100000e-07	-2.119971e-06	-4.606671e-09	-1.606687e+01	-2.995775e+02
1.200000e-07	-2.117925e-06	-4.645319e-09	-1.605136e+01	-2.995347e+02
1.300000e-07	-2.115805e-06	-4.635033e-09	-1.603529e+01	-2.994803e+02
1.400000e-07	-2.113740e-06	-4.646355e-09	-1.601964e+01	-2.994170e+02
1.500000e-07	-2.111581e-06	-4.631014e-09	-1.600328e+01	-2.993456e+02
1.600000e-07	-2.109138e-06	-4.628917e-09	-1.598477e+01	-2.992660e+02
1.700000e-07	-2.106444e-06	-4.634740e-09	-1.596435e+01	-2.991765e+02
1.800000e-07	-2.103630e-06	-4.607287e-09	-1.594302e+01	-2.990748e+02
1.900000e-07	-2.100712e-06	-4.597470e-09	-1.592090e+01	-2.989581e+02
2.000000e-07	-2.097608e-06	-4.587666e-09	-1.589738e+01	-2.988236e+02
2.100000e-07	-2.094275e-06	-4.614135e-09	-1.587212e+01	-2.986691e+02
2.200000e-07	-2.090776e-06	-4.613864e-09	-1.584560e+01	-2.984928e+02
2.300000e-07	-2.087157e-06	-4.611274e-09	-1.581818e+01	-2.982943e+02
2.400000e-07	-2.083367e-06	-4.580295e-09	-1.578945e+01	-2.980736e+02
2.500000e-07	-2.079401e-06	-4.577775e-09	-1.575939e+01	-2.978316e+02
2.600000e-07	-2.075312e-06	-4.555482e-09	-1.572840e+01	-2.975697e+02
2.700000e-07	-2.071120e-06	-4.548302e-09	-1.569663e+01	-2.972894e+02
2.800000e-07	-2.066779e-06	-4.532231e-09	-1.566373e+01	-2.969919e+02
2.900000e-07	-2.062289e-06	-4.549186e-09	-1.562971e+01	-2.966784e+02
3.000000e-07	-2.057682e-06	-4.538825e-09	-1.559479e+01	-2.963491e+02
3.100000e-07	-2.052959e-06	-4.533409e-09	-1.555899e+01	-2.960042e+02
3.200000e-07	-2.048067e-06	-4.514289e-09	-1.552192e+01	-2.956432e+02
3.300000e-07	-2.043018e-06	-4.515119e-09	-1.548366e+01	-2.952656e+02
3.400000e-07	-2.037890e-06	-4.493491e-09	-1.544479e+01	-2.948707e+02
3.500000e-07	-2.032666e-06	-4.487278e-09	-1.540520e+01	-2.944584e+02
3.600000e-07	-2.027245e-06	-4.479822e-09	-1.536411e+01	-2.940288e+02
3.700000e-07	-2.021589e-06	-4.481506e-09	-1.532124e+01	-2.935829e+02
3.800000e-07	-2.015765e-06	-4.457423e-09	-1.527711e+01	-2.931219e+02
3.900000e-07	-2.009834e-06	-4.445853e-09	-1.523216e+01	-2.926474e+02
4.000000e-07	-2.003755e-06	-4.444506e-09	-1.518608e+01	-2.921612e+02
4.100000e-07	-1.997534e-06	-4.442918e-09	-1.513894e+01	-2.916649e+02
4.200000e-07	-1.991218e-06	-4.418936e-09	-1.509107e+01	-2.911594e+02
4.300000e-07	-1.984778e-06	-4.405078e-09	-1.504226e+01	-2.906452e+02
4.400000e-07	-1.978190e-06	-4.404531e-09	-1.499233e+01	-2.901215e+02
4.500000e-07	-1.971502e-06	-4.393085e-09	-1.494165e+01	-2.895870e+02
4.600000e-07	-1.964713e-06	-4.366682e-09	-1.489020e+01	-2.890392e+02
4.700000e-07	-1.957736e-06	-4.348197e-09	-1.483731e+01	-2.884753e+02
4.800000e-07	-1.950527e-06	-4.347182e-09	-1.478268e+01	-2.878921e+02
4.900000e-07	-1.943156e-06	-4.336549e-09	-1.472681e+01	-2.872868e+02
5.000000e-07	-1.935686e-06	-4.324052e-09	-1.467021e+01	-2.866571e+02
5.100000e-07	-1.928090e-06	-4.312658e-09	-1.461263e+01	-2.860013e+02
5.200000e-07	-1.920336e-06	-4.305240e-09	-1.455387e+01	-2.853190e+02
5.300000e-07	-1.912433e-06	-4.288710e-09	-1.449398e+01	-2.846109e+02
5.400000e-07	-1.904402e-06	-4.280653e-09	-1.443311e+01	-2.838786e+02
5.500000e-07	-1.896271e-06	-4.266337e-09	-1.437148e+01	-2.831247e+02
5.600000e-07	-1.888049e-06	-4.250322e-09	-1.430917e+01	-2.823520e+02
5.700000e-07	-1.879695e-06	-4.233984e-09	-1.424586e+01	-2.815638e+02
5.800000e-07	-1.871160e-06	-4.227772e-09	-1.418117e+01	-2.807629e+02
5.900000e-07	-1.862416e-06	-4.209297e-09	-1.411490e+01	-2.799517e+02
6.000000e-07	-1.853506e-06	-4.190340e-09	-1.404738e+01	-2.791321e+02
6.100000e-07	-1.844479e-06	-4.178968e-09	-1.397896e+01	-2.783050e+02
6.200000e-07	-1.835344e-06	-4.174881e-09	-1.390973e+01	-2.774707e+02
6.300000e-07	-1.826111e-06	-4.159912e-09	-1.383975e+01	-2.766290e+02
6.400000e-07	-1.816767e-06	-4.140315e-09	-1.376894e+01	-2.757792e+02
6.500000e-07	-1.807286e-06	-4.123525e-09	-1.369708e+01	-2.749204e+02
6.600000e-07	-1.797658e-06	-4.110833e-09	-1.362411e+01	-2.740519e+02
6.700000e-07	-1.787897e-06	-4.097027e-09	-1.355014e+01	-2.731731e+02
6.800000e-07	-1.778027e-06	-4.081488e-09	-1.347533e+01	-2.722835e+02
6.900000e-07	-1.768014e-06	-4.066331e-09	-1.339945e+01	-2.713830e+02
7.000000e-07	-1.757795e-06	-4.053144e-09	-1.332200e+01	-2.704716e+02
7.100000e-07	-1.747366e-06	-4.043542e-09	-1.324296e+01	-2.695493e+02
7.200000e-07	-1.736786e-06	-4.027054e-09	-1.316277e+01	-2.686159e+02
7.300000e-07	-1.726085e-06	-4.004019e-09	-1.308167e+01	-2.676711e+02
7.400000e-07	-1.715267e-06	-3.983253e-09	-1.299969e+01	-2.667141e+02
7.500000e-07	-1.704334e-06	-3.972754e-09	-1.291683e+01	-2.657437e+02
7.600000e-07	-1.693286e-06	-3.959216e-09	-1.283310e+01	-2.647588e+02
7.700000e-07	-1.682119e-06	-3.941133e-09	-1.274846e+01	-2.637578e+02
7.800000e-07	-1.670848e-06	-3.922998e-09	-1.266305e+01	-2.627394e+02
7.900000e-07	-1.659493e-06	-3.907368e-09	-1.257699e+01	-2.617026e+02
8.000000e-07	-1.648028e-06	-3.889594e-09	-1.249010e+01	-2.606469e+02
8.100000e-07	-1.636418e-06	-3.871414e-09	-1.240211e+01	-2.595723e+02
8.200000e-07	-1.624653e-06	-3.853612e-09	-1.231294e+01	-2.584794e+02
8.300000e-07	-1.612742e-06	-3.836429e-09	-1.222267e+01	-2.573694e+02
8.400000e-07	-1.600677e-06	-3.819995e-09	-1.213124e+01	-2.562438e+02
8.500000e-07	-1.588502e-06	-3.802350e-09	-1.203896e+01	-2.551042e+02
8.600000e-07	-1.576257e-06	-3.781409e-09	-1.194616e+01	-2.539518e+02
8.700000e-07	-1.563925e-06	-3.763592e-09	-1.185270e+01	-2.527877e+02
8.800000e-07	-1.551497e-06	-3.746374e-09	-1.175850e+01	-2.516120e+02
8.900000e-07	-1.538964e-06	-3.725381e-09	-1.166352e+01	-2.504242e+02
9.000000e-07	-1.526317e-06	-3.700252e-09	-1.156767e+01	-2.492231e+02
9.100000e-07	-1.513560e-06	-3.679557e-09	-1.147099e+01	-2.480068e+02
9.200000e-07	-1.500696e-06	-3.662334e-09	-1.137350e+01	-2.467730e+02
9.300000e-07	-1.487740e-06	-3.641900e-09	-1.127530e+01	-2.455194e+02
9.400000e-07	-1.474695e-06	-3.619688e-09	-1.117644e+01	-2.442440e+02
9.500000e-07	-1.461558e-06	-3.598603e-09	-1.107688e+01	-2.429453e+02
9.600000e-07	-1.448320e-06	-3.581155e-09	-1.097655e+01	-2.416226e+02
9.700000e-07	-1.434942e-06	-3.564786e-09	-1.087516e+01	-2.402762e+02
9.800000e-07	-1.421408e-06	-3.543096e-09	-1.077258e+01	-2.389073e+02
9.900000e-07	-1.407740e-06	-3.517944e-09	-1.066900e+01	-2.375178e+02
1.000000e-06	-1.393978e-06	-3.493014e-09	-1.056470e+01	-2.361101e+02
1.010000e-06	-1.380145e-06	-3.468900e-09	-1.045986e+01	-2.346869e+02
1.020000e-06	-1.366257e-06	-3.445254e-09	-1.035461e+01	-2.332506e+02
1.030000e-06	-1.352303e-06	-3.422302e-09	-1.024885e+01	-2.318033e+02
1.040000e-06	-1.338255e-06	-3.402750e-09	-1.014239e+01	-2.303464e+02
1.050000e-06	-1.324116e-06	-3.385228e-09	-1.003523e+01	-2.288803e+02
1.060000e-06	-1.309884e-06	-3.365864e-09	-9.927368e+00	-2.274049e+02
1.070000e-06	-1.295530e-06	-3.339913e-09	-9.818578e+00	-2.259192e+02
1.080000e-06	-1.281054e-06	-3.309401e-09	-9.708867e+00	-2.244221e+02
1.090000e-06	-1.266505e-06	-3.280280e-09	-9.598610e+00	-2.229122e+02
1.100000e-06	-1.251911e-06	-3.256180e-09	-9.488002e+00	-2.213883e+02
1.110000e-06	-1.237257e-06	-3.233025e-09	-9.376940e+00	-2.198498e+02
1.120000e-06	-1.222524e-06	-3.209626e-09	-9.265282e+00	-2.182965e+02
1.130000e-06	-1.207698e-06	-3.189001e-09	-9.152920e+00	-2.167292e+02
1.140000e-06	-1.192747e-06	-3.169942e-09	-9.039606e+00	-2.151490e+02
1.150000e-06	-1.177652e-06	-3.148546e-09	-8.925205e+00	-2.135578e+02
1.160000e-06	-1.162435e-06	-3.121928e-09	-8.809875e+00	-2.119576e+02
1.170000e-06	-1.147111e-06	-3.093908e-09	-8.693741e+00	-2.103503e+02
1.180000e-06	-1.131703e-06	-3.069597e-09	-8.576967e+00	-2.087377e+02
1.190000e-06	-1.116217e-06	-3.044668e-09	-8.459604e+00	-2.071207e+02
1.200000e-06	-1.100650e-06	-3.016547e-09	-8.341621e+00	-2.055000e+02
1.210000e-06	-1.085002e-06	-2.988540e-09	-8.223026e+00	-2.038753e+02
1.220000e-06	-1.069272e-06	-2.966679e-09	-8.103810e+00	-2.022456e+02
1.230000e-06	-1.053469e-06	-2.946831e-09	-7.984044e+00	-2.006096e+02
1.240000e-06	-1.037587e-06	-2.924367e-09	-7.863676e+00	-1.989658e+02
1.250000e-06	-1.021595e-06	-2.899848e-09	-7.742481e+00	-1.973125e+02
1.260000e-06	-1.005494e-06	-2.877948e-09	-7.620455e+00	-1.956482e+02
1.270000e-06	-9.892983e-07	-2.855045e-09	-7.497708e+00	-1.939718e+02
1.280000e-06	-9.730106e-07	-2.827074e-09	-7.374266e+00	-1.922827e+02
1.290000e-06	-9.566573e-07	-2.797906e-09	-7.250328e+00	-1.905806e+02
1.300000e-06	-9.402576e-07	-2.772506e-09	-7.126038e+00	-1.888655e+02
1.310000e-06	-9.238081e-07	-2.751214e-09	-7.001370e+00	-1.871376e+02
1.320000e-06	-9.073042e-07	-2.728906e-09	-6.876290e+00	-1.853971e+02
1.330000e-06	-8.907316e-07	-2.704327e-09	-6.750689e+00	-1.836439e+02
1.340000e-06	-8.740931e-07	-2.677845e-09	-6.624589e+00	-1.818777e+02
1.350000e-06	-8.573912e-07	-2.651906e-09	-6.498008e+00	-1.800981e+02
1.360000e-06	-8.406348e-07	-2.624009e-09	-6.371015e+00	-1.783044e+02
1.370000e-06	-8.238165e-07	-2.593085e-09	-6.243552e+00	-1.764957e+02
1.380000e-06	-8.069279e-07	-2.560990e-09	-6.115557e+00	-1.746714e+02
1.390000e-06	-7.899905e-07	-2.531926e-09	-5.987191e+00	-1.728313e+02
1.400000e-06	-7.730099e-07	-2.506466e-09	-5.858499e+00	-1.709758e+02
1.410000e-06	-7.559981e-07	-2.481977e-09	-5.729569e+00	-1.691059e+02
1.420000e-06	-7.389664e-07	-2.456590e-09	-5.600489e+00	-1.672235e+02
1.430000e-06	-7.219135e-07	-2.430546e-09	-5.471248e+00	-1.653310e+02
1.440000e-06	-7.048300e-07	-2.401826e-09	-5.341776e+00	-1.634314e+02
1.450000e-06	-6.877028e-07	-2.372793e-09	-5.211972e+00	-1.615278e+02
1.460000e-06	-6.705211e-07	-2.342794e-09	-5.081755e+00	-1.596228e+02
1.470000e-06	-6.532797e-07	-2.311227e-09	-4.951086e+00	-1.577186e+02
1.480000e-06	-6.359768e-07	-2.278398e-09	-4.819950e+00	-1.558164e+02
1.490000e-06	-6.186143e-07	-2.247438e-09	-4.688363e+00	-1.539160e+02
1.500000e-06	-6.012083e-07	-2.219527e-09	-4.556446e+00	-1.520158e+02
1.510000e-06	-5.837680e-07	-2.191490e-09	-4.424269e+00	-1.501131e+02
1.520000e-06	-5.663001e-07	-2.164096e-09	-4.291883e+00	-1.482038e+02
1.530000e-06	-5.488131e-07	-2.134864e-09	-4.159353e+00	-1.462833e+02
1.540000e-06	-5.312842e-07	-2.105995e-09	-4.026504e+00	-1.443467e+02
1.550000e-06	-5.137107e-07	-2.074797e-09	-3.893318e+00	-1.423891e+02
1.560000e-06	-4.961235e-07	-2.042126e-09	-3.760028e+00	-1.404067e+02
1.570000e-06	-4.785015e-07	-2.008573e-09	-3.626474e+00	-1.383966e+02
1.580000e-06	-4.608158e-07	-1.974882e-09	-3.492437e+00	-1.363576e+02
1.590000e-06	-4.430848e-07	-1.941518e-09	-3.358057e+00	-1.342898e+02
1.600000e-06	-4.253321e-07	-1.909907e-09	-3.223513e+00	-1.321952e+02
1.610000e-06	-4.075695e-07	-1.878589e-09	-3.088893e+00	-1.300769e+02
1.620000e-06	-3.898007e-07	-1.847268e-09	-2.954227e+00	-1.279390e+02
1.630000e-06	-3.720136e-07	-1.817403e-09	-2.819422e+00	-1.257860e+02
1.640000e-06	-3.542084e-07	-1.786468e-09	-2.684480e+00	-1.236226e+02
1.650000e-06	-3.364039e-07	-1.752559e-09	-2.549543e+00	-1.214530e+02
1.660000e-06	-3.186054e-07	-1.715921e-09	-2.414651e+00	-1.192804e+02
1.670000e-06	-3.007960e-07	-1.680281e-09	-2.279677e+00	-1.171069e+02
1.680000e-06	-2.829683e-07	-1.647129e-09	-2.144564e+00	-1.149334e+02
1.690000e-06	-2.651310e-07	-1.615585e-09	-2.009378e+00	-1.127594e+02
1.700000e-06	-2.472716e-07	-1.582788e-09	-1.874025e+00	-1.105833e+02
1.710000e-06	-2.293956e-07	-1.550212e-09	-1.738547e+00	-1.084024e+02
1.720000e-06	-2.115130e-07	-1.516594e-09	-1.603018e+00	-1.062135e+02
1.730000e-06	-1.935956e-07	-1.482683e-09	-1.467225e+00	-1.040131e+02
1.740000e-06	-1.756540e-07	-1.450659e-09	-1.331249e+00	-1.017978e+02
1.750000e-06	-1.577120e-07	-1.420099e-09	-1.195270e+00	-9.956440e+01
1.760000e-06	-1.397671e-07	-1.389191e-09	-1.059268e+00	-9.731039e+01
1.770000e-06	-1.218130e-07	-1.356527e-09	-9.231978e-01	-9.503393e+01
1.780000e-06	-1.038365e-07	-1.318963e-09	-7.869572e-01	-9.273399e+01
1.790000e-06	-8.584768e-08	-1.279333e-09	-6.506236e-01	-9.041037e+01
1.800000e-06	-6.786704e-08	-1.241643e-09	-5.143517e-01	-8.806360e+01
1.810000e-06	-4.988514e-08	-1.205351e-09	-3.780702e-01	-8.569483e+01
1.820000e-06	-3.189520e-08	-1.171767e-09	-2.417278e-01	-8.330573e+01
1.830000e-06	-1.389103e-08	-1.141987e-09	-1.052775e-01	-8.089829e+01
1.840000e-06	4.110925e-09	-1.113798e-09	3.115593e-02	-7.847467e+01
1.850000e-06	2.209420e-08	-1.083947e-09	1.674478e-01	-7.603706e+01
1.860000e-06	4.009059e-08	-1.048017e-09	3.038391e-01	-7.358751e+01
1.870000e-06	5.810718e-08	-1.005834e-09	4.403835e-01	-7.112781e+01
1.880000e-06	7.609833e-08	-9.632772e-10	5.767351e-01	-6.865939e+01
1.890000e-06	9.406096e-08	-9.246581e-10	7.128705e-01	-6.618325e+01
1.900000e-06	1.120205e-07	-8.903374e-10	8.489826e-01	-6.369988e+01
1.910000e-06	1.299816e-07	-8.577417e-10	9.851060e-01	-6.120930e+01
1.920000e-06	1.479430e-07	-8.261859e-10	1.121233e+00	-5.871107e+01
1.930000e-06	1.658696e-07	-7.957593e-10	1.257095e+00	-5.620434e+01
1.940000e-06	1.837700e-07	-7.638211e-10	1.392759e+00	-5.368801e+01
1.950000e-06	2.016678e-07	-7.243924e-10	1.528403e+00	-5.116077e+01
1.960000e-06	2.195486e-07	-6.802936e-10	1.663918e+00	-4.862134e+01
1.970000e-06	2.374082e-07	-6.383251e-10	1.799273e+00	-4.606853e+01
1.980000e-06	2.552587e-07	-5.982879e-10	1.934558e+00	-4.350142e+01
1.990000e-06	2.731070e-07	-5.591477e-10	2.069827e+00	-4.091941e+01
2.000000e-06	2.909496e-07	-5.219952e-10	2.205053e+00	-3.832231e+01
2.010000e-06	3.087756e-07	-4.881811e-10	2.340153e+00	-3.571029e+01
2.020000e-06	3.265859e-07	-4.552138e-10	2.475134e+00	-3.308389e+01
2.030000e-06	3.443900e-07	-4.195959e-10	2.610068e+00	-3.044388e+01
2.040000e-06	3.621829e-07	-3.815785e-10	2.744917e+00	-2.779118e+01
2.050000e-06	3.799636e-07	-3.416532e-10	2.879674e+00	-2.512677e+01
2.060000e-06	3.977291e-07	-3.010835e-10	3.014315e+00	-2.245151e+01
2.070000e-06	4.154764e-07	-2.602252e-10	3.148819e+00	-1.976617e+01
2.080000e-06	4.332006e-07	-2.206204e-10	3.283147e+00	-1.707131e+01
2.090000e-06	4.508868e-07	-1.853527e-10	3.417187e+00	-1.436738e+01
2.100000e-06	4.685369e-07	-1.498824e-10	3.550954e+00	-1.165468e+01
2.110000e-06	4.861615e-07	-1.097840e-10	3.684528e+00	-8.933518e+00
2.120000e-06	5.037437e-07	-6.869745e-11	3.817780e+00	-6.204244e+00
2.130000e-06	5.212864e-07	-2.757791e-11	3.950733e+00	-3.467332e+00
2.140000e-06	5.387950e-07	1.314136e-11	4.083427e+00	-7.234044e-01
2.150000e-06	5.562662e-07	5.380737e-11	4.215838e+00	2.026786e+00
2.160000e-06	5.736964e-07	9.574891e-11	4.347938e+00	4.782433e+00
2.170000e-06	5.911042e-07	1.370578e-10	4.479869e+00	7.542792e+00
2.180000e-06	6.084905e-07	1.766824e-10	4.611637e+00	1.030733e+01
2.190000e-06	6.258223e-07	2.168768e-10	4.742991e+00	1.307589e+01
2.200000e-06	6.430967e-07	2.586146e-10	4.873910e+00	1.584880e+01
2.210000e-06	6.603326e-07	3.009539e-10	5.004538e+00	1.862693e+01
2.220000e-06	6.775184e-07	3.432347e-10	5.134786e+00	2.141173e+01
2.230000e-06	6.946282e-07	3.839307e-10	5.264458e+00	2.420507e+01
2.240000e-06	7.116888e-07	4.262456e-10	5.393757e+00	2.700908e+01
2.250000e-06	7.287220e-07	4.704097e-10	5.522849e+00	2.982590e+01
2.260000e-06	7.457364e-07	5.136028e-10	5.651797e+00	3.265734e+01
2.270000e-06	7.627346e-07	5.571772e-10	5.780624e+00	3.550460e+01
2.280000e-06	7.797047e-07	6.036757e-10	5.909237e+00	3.836802e+01
2.290000e-06	7.966226e-07	6.516663e-10	6.037455e+00	4.124692e+01
2.300000e-06	8.134871e-07	6.957459e-10	6.165267e+00	4.413955e+01
2.310000e-06	8.302898e-07	7.351156e-10	6.292612e+00	4.704320e+01
2.320000e-06	8.469933e-07	7.754422e-10	6.419204e+00	4.995442e+01
2.330000e-06	8.636097e-07	8.167045e-10	6.545137e+00	5.286935e+01
2.340000e-06	8.801676e-07	8.559815e-10	6.670627e+00	5.578418e+01
2.350000e-06	8.966672e-07	8.961964e-10	6.795674e+00	5.869552e+01
2.360000e-06	9.131196e-07	9.399908e-10	6.920363e+00	6.160080e+01
2.370000e-06	9.295011e-07	9.860266e-10	7.044516e+00	6.449854e+01
2.380000e-06	9.458269e-07	1.030027e-09	7.168246e+00	6.738852e+01
2.390000e-06	9.621020e-07	1.071248e-09	7.291592e+00	7.027168e+01
2.400000e-06	9.782976e-07	1.110469e-09	7.414336e+00	7.314999e+01
2.410000e-06	9.944177e-07	1.150630e-09	7.536507e+00	7.602607e+01
2.420000e-06	1.010450e-06	1.192719e-09	7.658012e+00	7.890280e+01
2.430000e-06	1.026382e-06	1.234804e-09	7.778757e+00	8.178282e+01
2.440000e-06	1.042235e-06	1.279084e-09	7.898908e+00	8.466814e+01
2.450000e-06	1.058037e-06	1.326991e-09	8.018669e+00	8.755976e+01
2.460000e-06	1.073784e-06	1.373461e-09	8.138010e+00	9.045753e+01
2.470000e-06	1.089436e-06	1.412664e-09	8.256631e+00	9.336009e+01
2.480000e-06	1.104977e-06	1.448887e-09	8.374412e+00	9.626502e+01
2.490000e-06	1.120442e-06	1.487600e-09	8.491624e+00	9.916918e+01
2.500000e-06	1.135849e-06	1.529850e-09	8.608389e+00	1.020690e+02
2.510000e-06	1.151179e-06	1.572860e-09	8.724569e+00	1.049612e+02
2.520000e-06	1.166421e-06	1.613538e-09	8.840086e+00	1.078426e+02
2.530000e-06	1.181559e-06	1.654239e-09	8.954815e+00	1.107112e+02
2.540000e-06	1.196543e-06	1.695465e-09	9.068376e+00	1.135660e+02
2.550000e-06	1.211377e-06	1.734756e-09	9.180799e+00	1.164067e+02
2.560000e-06	1.226113e-06	1.772032e-09	9.292482e+00	1.192343e+02
2.570000e-06	1.240772e-06	1.810634e-09	9.403578e+00	1.220503e+02
2.580000e-06	1.255365e-06	1.853219e-09	9.514176e+00	1.248564e+02
2.590000e-06	1.269894e-06	1.897281e-09	9.624289e+00	1.276544e+02
2.600000e-06	1.284345e-06	1.938157e-09	9.733812e+00	1.304454e+02
2.610000e-06	1.298703e-06	1.977064e-09	9.842631e+00	1.332300e+02
2.620000e-06	1.312955e-06	2.018358e-09	9.950640e+00	1.360077e+02
2.630000e-06	1.327105e-06	2.061115e-09	1.005788e+01	1.387773e+02
2.640000e-06	1.341166e-06	2.100270e-09	1.016445e+01	1.415368e+02
2.650000e-06	1.355141e-06	2.136618e-09	1.027036e+01	1.442836e+02
2.660000e-06	1.369033e-06	2.176616e-09	1.037564e+01	1.470153e+02
2.670000e-06	1.382855e-06	2.217515e-09	1.048040e+01	1.497292e+02
2.680000e-06	1.396614e-06	2.254266e-09	1.058468e+01	1.524236e+02
2.690000e-06	1.410295e-06	2.287983e-09	1.068836e+01	1.550971e+02
2.700000e-06	1.423867e-06	2.324721e-09	1.079123e+01	1.577494e+02
2.710000e-06	1.437282e-06	2.364037e-09	1.089290e+01	1.603807e+02
2.720000e-06	1.450528e-06	2.402224e-09	1.099328e+01	1.629919e+02
2.730000e-06	1.463641e-06	2.439845e-09	1.109266e+01	1.655840e+02
2.740000e-06	1.476658e-06	2.476919e-09	1.119132e+01	1.681583e+02
2.750000e-06	1.489605e-06	2.514266e-09	1.128944e+01	1.707154e+02
2.760000e-06	1.502460e-06	2.550056e-09	1.138687e+01	1.732557e+02
2.770000e-06	1.515211e-06	2.583813e-09	1.148350e+01	1.757785e+02
2.780000e-06	1.527870e-06	2.618024e-09	1.157945e+01	1.782829e+02
2.790000e-06	1.540442e-06	2.654917e-09	1.167472e+01	1.807670e+02
2.800000e-06	1.552919e-06	2.694222e-09	1.176928e+01	1.832287e+02
2.810000e-06	1.565305e-06	2.733978e-09	1.186315e+01	1.856661e+02
2.820000e-06	1.577596e-06	2.771103e-09	1.195631e+01	1.880772e+02
2.830000e-06	1.589797e-06	2.805172e-09	1.204878e+01	1.904607e+02
2.840000e-06	1.601887e-06	2.838861e-09	1.214040e+01	1.928161e+02
2.850000e-06	1.613851e-06	2.871281e-09	1.223108e+01	1.951436e+02
2.860000e-06	1.625662e-06	2.902016e-09	1.232059e+01	1.974441e+02
2.870000e-06	1.637284e-06	2.933951e-09	1.240867e+01	1.997190e+02
2.880000e-06	1.648762e-06	2.969626e-09	1.249566e+01	2.019703e+02
2.890000e-06	1.660146e-06	3.008101e-09	1.258194e+01	2.041995e+02
2.900000e-06	1.671441e-06	3.046148e-09	1.266754e+01	2.064080e+02
