# Temperatura_=_20.0
# Concentracion g/m^3_=_10000.0
# C_Vs_to_Am_M_A/Vsm_=_65563218390.804596
# pendiente_HvsI_1/m_=_3716.3
# ordenada_HvsI_A/m_=_1297.0
# frecuencia_Hz_=_135393.0945322238

Tiempo_(s)	Campo_(V.s)	Magnetizacion_(V.s)	Campo_(kA/m)	Magnetizacion_(A/m)
0.000000e+00	-7.827064e-06	-1.146499e-08	-5.698740e+01	-7.491976e+02
1.000000e-08	-7.827118e-06	-1.146207e-08	-5.698779e+01	-7.492159e+02
2.000000e-08	-7.826719e-06	-1.145691e-08	-5.698488e+01	-7.492050e+02
3.000000e-08	-7.825700e-06	-1.145314e-08	-5.697747e+01	-7.491654e+02
4.000000e-08	-7.824120e-06	-1.145386e-08	-5.696597e+01	-7.490991e+02
5.000000e-08	-7.822137e-06	-1.145189e-08	-5.695152e+01	-7.490088e+02
6.000000e-08	-7.819706e-06	-1.144862e-08	-5.693382e+01	-7.488976e+02
7.000000e-08	-7.816796e-06	-1.144826e-08	-5.691264e+01	-7.487692e+02
8.000000e-08	-7.813406e-06	-1.144522e-08	-5.688796e+01	-7.486265e+02
9.000000e-08	-7.809380e-06	-1.143068e-08	-5.685864e+01	-7.484720e+02
1.000000e-07	-7.804487e-06	-1.143025e-08	-5.682302e+01	-7.483069e+02
1.100000e-07	-7.798426e-06	-1.145864e-08	-5.677889e+01	-7.481310e+02
1.200000e-07	-7.791120e-06	-1.145773e-08	-5.672570e+01	-7.479428e+02
1.300000e-07	-7.783154e-06	-1.141815e-08	-5.666770e+01	-7.477395e+02
1.400000e-07	-7.775193e-06	-1.134566e-08	-5.660973e+01	-7.475175e+02
1.500000e-07	-7.767178e-06	-1.142554e-08	-5.655138e+01	-7.472724e+02
1.600000e-07	-7.758471e-06	-1.149866e-08	-5.648798e+01	-7.470002e+02
1.700000e-07	-7.749191e-06	-1.132938e-08	-5.642042e+01	-7.466976e+02
1.800000e-07	-7.739802e-06	-1.134755e-08	-5.635206e+01	-7.463621e+02
1.900000e-07	-7.729788e-06	-1.148066e-08	-5.627915e+01	-7.459932e+02
2.000000e-07	-7.718914e-06	-1.136803e-08	-5.619998e+01	-7.455920e+02
2.100000e-07	-7.707740e-06	-1.133877e-08	-5.611862e+01	-7.451613e+02
2.200000e-07	-7.696212e-06	-1.144851e-08	-5.603469e+01	-7.447057e+02
2.300000e-07	-7.683928e-06	-1.137676e-08	-5.594525e+01	-7.442308e+02
2.400000e-07	-7.671209e-06	-1.128296e-08	-5.585265e+01	-7.437427e+02
2.500000e-07	-7.658103e-06	-1.140476e-08	-5.575723e+01	-7.432474e+02
2.600000e-07	-7.644194e-06	-1.139037e-08	-5.565595e+01	-7.427502e+02
2.700000e-07	-7.629645e-06	-1.126355e-08	-5.555003e+01	-7.422549e+02
2.800000e-07	-7.614591e-06	-1.133766e-08	-5.544042e+01	-7.417635e+02
2.900000e-07	-7.598893e-06	-1.137134e-08	-5.532613e+01	-7.412759e+02
3.000000e-07	-7.582775e-06	-1.128255e-08	-5.520878e+01	-7.407899e+02
3.100000e-07	-7.566193e-06	-1.131596e-08	-5.508805e+01	-7.403018e+02
3.200000e-07	-7.548852e-06	-1.131077e-08	-5.496179e+01	-7.398062e+02
3.300000e-07	-7.531025e-06	-1.125955e-08	-5.483199e+01	-7.392973e+02
3.400000e-07	-7.512821e-06	-1.130146e-08	-5.469946e+01	-7.387690e+02
3.500000e-07	-7.493952e-06	-1.127841e-08	-5.456207e+01	-7.382160e+02
3.600000e-07	-7.474480e-06	-1.123218e-08	-5.442030e+01	-7.376337e+02
3.700000e-07	-7.454463e-06	-1.125355e-08	-5.427456e+01	-7.370194e+02
3.800000e-07	-7.433734e-06	-1.125492e-08	-5.412363e+01	-7.363716e+02
3.900000e-07	-7.412363e-06	-1.123224e-08	-5.396804e+01	-7.356904e+02
4.000000e-07	-7.390447e-06	-1.124206e-08	-5.380847e+01	-7.349771e+02
4.100000e-07	-7.367967e-06	-1.120401e-08	-5.364480e+01	-7.342338e+02
4.200000e-07	-7.344878e-06	-1.118919e-08	-5.347670e+01	-7.334630e+02
4.300000e-07	-7.321186e-06	-1.119142e-08	-5.330419e+01	-7.326669e+02
4.400000e-07	-7.296990e-06	-1.116096e-08	-5.312803e+01	-7.318471e+02
4.500000e-07	-7.272356e-06	-1.113303e-08	-5.294867e+01	-7.310044e+02
4.600000e-07	-7.247278e-06	-1.113663e-08	-5.276608e+01	-7.301385e+02
4.700000e-07	-7.221767e-06	-1.113268e-08	-5.258035e+01	-7.292485e+02
4.800000e-07	-7.195771e-06	-1.112347e-08	-5.239107e+01	-7.283326e+02
4.900000e-07	-7.169174e-06	-1.110180e-08	-5.219743e+01	-7.273889e+02
5.000000e-07	-7.141981e-06	-1.107483e-08	-5.199944e+01	-7.264154e+02
5.100000e-07	-7.114287e-06	-1.105784e-08	-5.179781e+01	-7.254109e+02
5.200000e-07	-7.086141e-06	-1.104732e-08	-5.159288e+01	-7.243748e+02
5.300000e-07	-7.057457e-06	-1.102088e-08	-5.138403e+01	-7.233077e+02
5.400000e-07	-7.028174e-06	-1.099162e-08	-5.117083e+01	-7.222111e+02
5.500000e-07	-6.998279e-06	-1.098966e-08	-5.095317e+01	-7.210871e+02
5.600000e-07	-6.967780e-06	-1.098353e-08	-5.073111e+01	-7.199387e+02
5.700000e-07	-6.936721e-06	-1.096399e-08	-5.050497e+01	-7.187689e+02
5.800000e-07	-6.905125e-06	-1.093492e-08	-5.027493e+01	-7.175803e+02
5.900000e-07	-6.873043e-06	-1.091129e-08	-5.004135e+01	-7.163748e+02
6.000000e-07	-6.840513e-06	-1.089856e-08	-4.980451e+01	-7.151536e+02
6.100000e-07	-6.807534e-06	-1.088061e-08	-4.956439e+01	-7.139164e+02
6.200000e-07	-6.774102e-06	-1.084826e-08	-4.932098e+01	-7.126622e+02
6.300000e-07	-6.740230e-06	-1.082871e-08	-4.907436e+01	-7.113888e+02
6.400000e-07	-6.705922e-06	-1.081557e-08	-4.882457e+01	-7.100937e+02
6.500000e-07	-6.671157e-06	-1.080195e-08	-4.857145e+01	-7.087741e+02
6.600000e-07	-6.635895e-06	-1.077698e-08	-4.831472e+01	-7.074276e+02
6.700000e-07	-6.600087e-06	-1.074699e-08	-4.805401e+01	-7.060524e+02
6.800000e-07	-6.563798e-06	-1.072488e-08	-4.778980e+01	-7.046476e+02
6.900000e-07	-6.527059e-06	-1.071093e-08	-4.752231e+01	-7.032134e+02
7.000000e-07	-6.489846e-06	-1.069063e-08	-4.725136e+01	-7.017510e+02
7.100000e-07	-6.452182e-06	-1.065785e-08	-4.697714e+01	-7.002624e+02
7.200000e-07	-6.414097e-06	-1.062896e-08	-4.669985e+01	-6.987500e+02
7.300000e-07	-6.375561e-06	-1.061018e-08	-4.641928e+01	-6.972161e+02
7.400000e-07	-6.336567e-06	-1.058968e-08	-4.613537e+01	-6.956627e+02
7.500000e-07	-6.297156e-06	-1.055948e-08	-4.584842e+01	-6.940906e+02
7.600000e-07	-6.257272e-06	-1.052765e-08	-4.555803e+01	-6.924998e+02
7.700000e-07	-6.216871e-06	-1.050477e-08	-4.526388e+01	-6.908888e+02
7.800000e-07	-6.176050e-06	-1.048783e-08	-4.496667e+01	-6.892548e+02
7.900000e-07	-6.134844e-06	-1.046154e-08	-4.466666e+01	-6.875942e+02
8.000000e-07	-6.093181e-06	-1.042762e-08	-4.436332e+01	-6.859024e+02
8.100000e-07	-6.051000e-06	-1.039668e-08	-4.405621e+01	-6.841747e+02
8.200000e-07	-6.008333e-06	-1.037478e-08	-4.374556e+01	-6.824066e+02
8.300000e-07	-5.965222e-06	-1.035001e-08	-4.343167e+01	-6.805943e+02
8.400000e-07	-5.921664e-06	-1.031412e-08	-4.311454e+01	-6.787349e+02
8.500000e-07	-5.877726e-06	-1.027848e-08	-4.279463e+01	-6.768269e+02
8.600000e-07	-5.833415e-06	-1.025214e-08	-4.247201e+01	-6.748700e+02
8.700000e-07	-5.788750e-06	-1.022514e-08	-4.214682e+01	-6.728653e+02
8.800000e-07	-5.743699e-06	-1.019127e-08	-4.181880e+01	-6.708148e+02
8.900000e-07	-5.698193e-06	-1.015538e-08	-4.148749e+01	-6.687212e+02
9.000000e-07	-5.652232e-06	-1.012370e-08	-4.115285e+01	-6.665877e+02
9.100000e-07	-5.605757e-06	-1.009212e-08	-4.081447e+01	-6.644172e+02
9.200000e-07	-5.558793e-06	-1.005365e-08	-4.047254e+01	-6.622125e+02
9.300000e-07	-5.511434e-06	-1.001000e-08	-4.012772e+01	-6.599755e+02
9.400000e-07	-5.463698e-06	-9.969630e-09	-3.978017e+01	-6.577074e+02
9.500000e-07	-5.415529e-06	-9.937358e-09	-3.942946e+01	-6.554084e+02
9.600000e-07	-5.366925e-06	-9.906540e-09	-3.907558e+01	-6.530780e+02
9.700000e-07	-5.317957e-06	-9.870737e-09	-3.871906e+01	-6.507148e+02
9.800000e-07	-5.268613e-06	-9.833965e-09	-3.835979e+01	-6.483166e+02
9.900000e-07	-5.218883e-06	-9.801065e-09	-3.799772e+01	-6.458810e+02
1.000000e-06	-5.168810e-06	-9.764904e-09	-3.763315e+01	-6.434053e+02
1.010000e-06	-5.118424e-06	-9.718942e-09	-3.726630e+01	-6.408865e+02
1.020000e-06	-5.067741e-06	-9.669453e-09	-3.689728e+01	-6.383220e+02
1.030000e-06	-5.016749e-06	-9.627272e-09	-3.652602e+01	-6.357090e+02
1.040000e-06	-4.965368e-06	-9.589113e-09	-3.615192e+01	-6.330453e+02
1.050000e-06	-4.913561e-06	-9.547105e-09	-3.577472e+01	-6.303286e+02
1.060000e-06	-4.861388e-06	-9.503111e-09	-3.539486e+01	-6.275573e+02
1.070000e-06	-4.808832e-06	-9.462806e-09	-3.501221e+01	-6.247302e+02
1.080000e-06	-4.755881e-06	-9.426649e-09	-3.462669e+01	-6.218465e+02
1.090000e-06	-4.702600e-06	-9.384448e-09	-3.423876e+01	-6.189057e+02
1.100000e-06	-4.649013e-06	-9.333521e-09	-3.384860e+01	-6.159080e+02
1.110000e-06	-4.595122e-06	-9.280631e-09	-3.345623e+01	-6.128539e+02
1.120000e-06	-4.540939e-06	-9.233734e-09	-3.306173e+01	-6.097441e+02
1.130000e-06	-4.486409e-06	-9.185235e-09	-3.266471e+01	-6.065799e+02
1.140000e-06	-4.431504e-06	-9.131379e-09	-3.226496e+01	-6.033624e+02
1.150000e-06	-4.376296e-06	-9.079672e-09	-3.186300e+01	-6.000927e+02
1.160000e-06	-4.320802e-06	-9.032898e-09	-3.145896e+01	-5.967716e+02
1.170000e-06	-4.264985e-06	-8.988017e-09	-3.105256e+01	-5.933997e+02
1.180000e-06	-4.208794e-06	-8.933858e-09	-3.064345e+01	-5.899771e+02
1.190000e-06	-4.152180e-06	-8.875543e-09	-3.023125e+01	-5.865031e+02
1.200000e-06	-4.095178e-06	-8.821223e-09	-2.981623e+01	-5.829769e+02
1.210000e-06	-4.037835e-06	-8.771570e-09	-2.939872e+01	-5.793971e+02
1.220000e-06	-3.980188e-06	-8.719729e-09	-2.897901e+01	-5.757620e+02
1.230000e-06	-3.922267e-06	-8.660260e-09	-2.855730e+01	-5.720700e+02
1.240000e-06	-3.864029e-06	-8.598090e-09	-2.813327e+01	-5.683194e+02
1.250000e-06	-3.805517e-06	-8.538364e-09	-2.770726e+01	-5.645090e+02
1.260000e-06	-3.746833e-06	-8.479632e-09	-2.727999e+01	-5.606379e+02
1.270000e-06	-3.687950e-06	-8.418196e-09	-2.685128e+01	-5.567054e+02
1.280000e-06	-3.628809e-06	-8.356472e-09	-2.642068e+01	-5.527115e+02
1.290000e-06	-3.569416e-06	-8.298914e-09	-2.598825e+01	-5.486561e+02
1.300000e-06	-3.509799e-06	-8.242239e-09	-2.555420e+01	-5.445392e+02
1.310000e-06	-3.449942e-06	-8.180975e-09	-2.511839e+01	-5.403606e+02
1.320000e-06	-3.389841e-06	-8.111545e-09	-2.468080e+01	-5.361195e+02
1.330000e-06	-3.329498e-06	-8.037658e-09	-2.424145e+01	-5.318146e+02
1.340000e-06	-3.268894e-06	-7.965080e-09	-2.380021e+01	-5.274436e+02
1.350000e-06	-3.207994e-06	-7.894153e-09	-2.335681e+01	-5.230038e+02
1.360000e-06	-3.146803e-06	-7.825091e-09	-2.291128e+01	-5.184917e+02
1.370000e-06	-3.085390e-06	-7.756654e-09	-2.246415e+01	-5.139035e+02
1.380000e-06	-3.023800e-06	-7.688461e-09	-2.201573e+01	-5.092355e+02
1.390000e-06	-2.962034e-06	-7.619573e-09	-2.156602e+01	-5.044842e+02
1.400000e-06	-2.900080e-06	-7.546631e-09	-2.111495e+01	-4.996468e+02
1.410000e-06	-2.837932e-06	-7.467225e-09	-2.066246e+01	-4.947213e+02
1.420000e-06	-2.775573e-06	-7.384367e-09	-2.020843e+01	-4.897069e+02
1.430000e-06	-2.713007e-06	-7.303276e-09	-1.975290e+01	-4.846036e+02
1.440000e-06	-2.650242e-06	-7.225377e-09	-1.929592e+01	-4.794122e+02
1.450000e-06	-2.587267e-06	-7.148930e-09	-1.883741e+01	-4.741343e+02
1.460000e-06	-2.524096e-06	-7.071111e-09	-1.837747e+01	-4.687712e+02
1.470000e-06	-2.460722e-06	-6.993517e-09	-1.791606e+01	-4.633243e+02
1.480000e-06	-2.397168e-06	-6.913598e-09	-1.745333e+01	-4.577940e+02
1.490000e-06	-2.333441e-06	-6.827896e-09	-1.698935e+01	-4.521799e+02
1.500000e-06	-2.269560e-06	-6.734543e-09	-1.652425e+01	-4.464802e+02
1.510000e-06	-2.205537e-06	-6.638335e-09	-1.605811e+01	-4.406919e+02
1.520000e-06	-2.141353e-06	-6.547954e-09	-1.559079e+01	-4.348109e+02
1.530000e-06	-2.077014e-06	-6.459638e-09	-1.512235e+01	-4.288324e+02
1.540000e-06	-2.012536e-06	-6.370807e-09	-1.465290e+01	-4.227509e+02
1.550000e-06	-1.947953e-06	-6.281087e-09	-1.418268e+01	-4.165610e+02
1.560000e-06	-1.883265e-06	-6.189622e-09	-1.371170e+01	-4.102576e+02
1.570000e-06	-1.818416e-06	-6.094903e-09	-1.323955e+01	-4.038364e+02
1.580000e-06	-1.753415e-06	-5.994532e-09	-1.276629e+01	-3.972939e+02
1.590000e-06	-1.688281e-06	-5.886830e-09	-1.229206e+01	-3.906273e+02
1.600000e-06	-1.623026e-06	-5.779362e-09	-1.181695e+01	-3.838347e+02
1.610000e-06	-1.557655e-06	-5.673449e-09	-1.134100e+01	-3.769148e+02
1.620000e-06	-1.492159e-06	-5.564567e-09	-1.086413e+01	-3.698663e+02
1.630000e-06	-1.426551e-06	-5.451162e-09	-1.038645e+01	-3.626878e+02
1.640000e-06	-1.360836e-06	-5.337558e-09	-9.907993e+00	-3.553772e+02
1.650000e-06	-1.295053e-06	-5.230224e-09	-9.429043e+00	-3.479319e+02
1.660000e-06	-1.229203e-06	-5.121324e-09	-8.949597e+00	-3.403483e+02
1.670000e-06	-1.163300e-06	-5.006672e-09	-8.469773e+00	-3.326221e+02
1.680000e-06	-1.097351e-06	-4.881800e-09	-7.989608e+00	-3.247484e+02
1.690000e-06	-1.031309e-06	-4.754069e-09	-7.508773e+00	-3.167221e+02
1.700000e-06	-9.651811e-07	-4.626570e-09	-7.027304e+00	-3.085383e+02
1.710000e-06	-8.989860e-07	-4.496690e-09	-6.545350e+00	-3.001923e+02
1.720000e-06	-8.326988e-07	-4.366636e-09	-6.062725e+00	-2.916805e+02
1.730000e-06	-7.663461e-07	-4.236090e-09	-5.579624e+00	-2.830000e+02
1.740000e-06	-6.999652e-07	-4.108442e-09	-5.096316e+00	-2.741488e+02
1.750000e-06	-6.335105e-07	-3.974583e-09	-4.612473e+00	-2.651257e+02
1.760000e-06	-5.669619e-07	-3.830313e-09	-4.127944e+00	-2.559298e+02
1.770000e-06	-5.003820e-07	-3.677572e-09	-3.643189e+00	-2.465601e+02
1.780000e-06	-4.338129e-07	-3.524963e-09	-3.158511e+00	-2.370152e+02
1.790000e-06	-3.672052e-07	-3.374531e-09	-2.673553e+00	-2.272928e+02
1.800000e-06	-3.005649e-07	-3.222191e-09	-2.188357e+00	-2.173894e+02
1.810000e-06	-2.339497e-07	-3.069186e-09	-1.703344e+00	-2.073003e+02
1.820000e-06	-1.673392e-07	-2.916683e-09	-1.218366e+00	-1.970192e+02
1.830000e-06	-1.007091e-07	-2.760026e-09	-7.332444e-01	-1.865391e+02
1.840000e-06	-3.405585e-08	-2.592820e-09	-2.479543e-01	-1.758522e+02
1.850000e-06	3.261304e-08	-2.418272e-09	2.374495e-01	-1.649508e+02
1.860000e-06	9.928837e-08	-2.246083e-09	7.229002e-01	-1.538273e+02
1.870000e-06	1.659488e-07	-2.076190e-09	1.208242e+00	-1.424752e+02
1.880000e-06	2.325941e-07	-1.902248e-09	1.693475e+00	-1.308892e+02
1.890000e-06	2.992555e-07	-1.723346e-09	2.178824e+00	-1.190655e+02
1.900000e-06	3.658985e-07	-1.543054e-09	2.664039e+00	-1.070020e+02
1.910000e-06	4.325042e-07	-1.360851e-09	3.148983e+00	-9.469796e+01
1.920000e-06	4.990844e-07	-1.171954e-09	3.633741e+00	-8.215390e+01
1.930000e-06	5.655920e-07	-9.764876e-10	4.117971e+00	-6.937151e+01
1.940000e-06	6.320212e-07	-7.771136e-10	4.601629e+00	-5.635330e+01
1.950000e-06	6.983882e-07	-5.811972e-10	5.084835e+00	-4.310255e+01
1.960000e-06	7.646806e-07	-3.832701e-10	5.567497e+00	-2.962335e+01
1.970000e-06	8.309338e-07	-1.783496e-10	6.049875e+00	-1.592089e+01
1.980000e-06	8.971861e-07	3.580296e-11	6.532245e+00	-2.001874e+00
1.990000e-06	9.634020e-07	2.519287e-10	7.014351e+00	1.212491e+01
2.000000e-06	1.029516e-06	4.696660e-10	7.495714e+00	2.644790e+01
2.010000e-06	1.095554e-06	6.918815e-10	7.976522e+00	4.095218e+01
2.020000e-06	1.161535e-06	9.155130e-10	8.456918e+00	5.561892e+01
2.030000e-06	1.227435e-06	1.138119e-09	8.936729e+00	7.042510e+01
2.040000e-06	1.293230e-06	1.357238e-09	9.415769e+00	8.534349e+01
2.050000e-06	1.358913e-06	1.581986e-09	9.893995e+00	1.003430e+02
2.060000e-06	1.424475e-06	1.808728e-09	1.037134e+01	1.153893e+02
2.070000e-06	1.489886e-06	2.039798e-09	1.084758e+01	1.304458e+02
2.080000e-06	1.555195e-06	2.271548e-09	1.132308e+01	1.454746e+02
2.090000e-06	1.620409e-06	2.501157e-09	1.179790e+01	1.604380e+02
2.100000e-06	1.685502e-06	2.730034e-09	1.227183e+01	1.752994e+02
2.110000e-06	1.750493e-06	2.953984e-09	1.274501e+01	1.900246e+02
2.120000e-06	1.815388e-06	3.171148e-09	1.321750e+01	2.045824e+02
2.130000e-06	1.880167e-06	3.381460e-09	1.368915e+01	2.189453e+02
2.140000e-06	1.944815e-06	3.588235e-09	1.415984e+01	2.330897e+02
2.150000e-06	2.009323e-06	3.797207e-09	1.462951e+01	2.469954e+02
2.160000e-06	2.073694e-06	4.005932e-09	1.509818e+01	2.606460e+02
2.170000e-06	2.137939e-06	4.211945e-09	1.556593e+01	2.740276e+02
2.180000e-06	2.202013e-06	4.412577e-09	1.603245e+01	2.871286e+02
2.190000e-06	2.265893e-06	4.606664e-09	1.649754e+01	2.999392e+02
2.200000e-06	2.329595e-06	4.794499e-09	1.696135e+01	3.124508e+02
2.210000e-06	2.393116e-06	4.972758e-09	1.742383e+01	3.246558e+02
2.220000e-06	2.456464e-06	5.146668e-09	1.788506e+01	3.365475e+02
2.230000e-06	2.519646e-06	5.315865e-09	1.834507e+01	3.481203e+02
2.240000e-06	2.582676e-06	5.484748e-09	1.880398e+01	3.593698e+02
2.250000e-06	2.645562e-06	5.653515e-09	1.926185e+01	3.702934e+02
2.260000e-06	2.708287e-06	5.819585e-09	1.971853e+01	3.808900e+02
2.270000e-06	2.770786e-06	5.980973e-09	2.017358e+01	3.911610e+02
2.280000e-06	2.833054e-06	6.136195e-09	2.062694e+01	4.011097e+02
2.290000e-06	2.895124e-06	6.283154e-09	2.107886e+01	4.107417e+02
2.300000e-06	2.957000e-06	6.421777e-09	2.152937e+01	4.200642e+02
2.310000e-06	3.018650e-06	6.553512e-09	2.197823e+01	4.290860e+02
2.320000e-06	3.080035e-06	6.679960e-09	2.242516e+01	4.378167e+02
2.330000e-06	3.141155e-06	6.804318e-09	2.287017e+01	4.462663e+02
2.340000e-06	3.202055e-06	6.928052e-09	2.331357e+01	4.544447e+02
2.350000e-06	3.262727e-06	7.049679e-09	2.375531e+01	4.623613e+02
2.360000e-06	3.323111e-06	7.165791e-09	2.419495e+01	4.700250e+02
2.370000e-06	3.383217e-06	7.275815e-09	2.463257e+01	4.774439e+02
2.380000e-06	3.443091e-06	7.381145e-09	2.506851e+01	4.846254e+02
2.390000e-06	3.502766e-06	7.483945e-09	2.550299e+01	4.915768e+02
2.400000e-06	3.562196e-06	7.581787e-09	2.593569e+01	4.983052e+02
2.410000e-06	3.621400e-06	7.675968e-09	2.636674e+01	5.048182e+02
2.420000e-06	3.680397e-06	7.768441e-09	2.679629e+01	5.111238e+02
2.430000e-06	3.739144e-06	7.861135e-09	2.722401e+01	5.172308e+02
2.440000e-06	3.797584e-06	7.954041e-09	2.764950e+01	5.231487e+02
2.450000e-06	3.855754e-06	8.042880e-09	2.807303e+01	5.288874e+02
2.460000e-06	3.913665e-06	8.127040e-09	2.849467e+01	5.344572e+02
2.470000e-06	3.971244e-06	8.209662e-09	2.891389e+01	5.398680e+02
2.480000e-06	4.028490e-06	8.291485e-09	2.933069e+01	5.451295e+02
2.490000e-06	4.085445e-06	8.370026e-09	2.974536e+01	5.502502e+02
2.500000e-06	4.142135e-06	8.444292e-09	3.015811e+01	5.552374e+02
2.510000e-06	4.198530e-06	8.515849e-09	3.056872e+01	5.600973e+02
2.520000e-06	4.254552e-06	8.586147e-09	3.097660e+01	5.648347e+02
2.530000e-06	4.310232e-06	8.655135e-09	3.138200e+01	5.694532e+02
2.540000e-06	4.365630e-06	8.722615e-09	3.178534e+01	5.739556e+02
2.550000e-06	4.420716e-06	8.787722e-09	3.218641e+01	5.783446e+02
2.560000e-06	4.475486e-06	8.853082e-09	3.258518e+01	5.826225e+02
2.570000e-06	4.529917e-06	8.917945e-09	3.298148e+01	5.867921e+02
2.580000e-06	4.583950e-06	8.978361e-09	3.337489e+01	5.908567e+02
2.590000e-06	4.637615e-06	9.035230e-09	3.376561e+01	5.948203e+02
2.600000e-06	4.690989e-06	9.089829e-09	3.415422e+01	5.986873e+02
2.610000e-06	4.744030e-06	9.142950e-09	3.454040e+01	6.024627e+02
2.620000e-06	4.796699e-06	9.194512e-09	3.492387e+01	6.061513e+02
2.630000e-06	4.849040e-06	9.245744e-09	3.530496e+01	6.097579e+02
2.640000e-06	4.901042e-06	9.298570e-09	3.568358e+01	6.132867e+02
2.650000e-06	4.952678e-06	9.351501e-09	3.605953e+01	6.167410e+02
2.660000e-06	5.003954e-06	9.401755e-09	3.643286e+01	6.201231e+02
2.670000e-06	5.054886e-06	9.448627e-09	3.680369e+01	6.234347e+02
2.680000e-06	5.105496e-06	9.494097e-09	3.717217e+01	6.266763e+02
2.690000e-06	5.155810e-06	9.538259e-09	3.753850e+01	6.298482e+02
2.700000e-06	5.205796e-06	9.582344e-09	3.790244e+01	6.329504e+02
2.710000e-06	5.255392e-06	9.626787e-09	3.826353e+01	6.359830e+02
2.720000e-06	5.304555e-06	9.670079e-09	3.862148e+01	6.389466e+02
2.730000e-06	5.353299e-06	9.711566e-09	3.897637e+01	6.418425e+02
2.740000e-06	5.401668e-06	9.751372e-09	3.932854e+01	6.446726e+02
2.750000e-06	5.449621e-06	9.790907e-09	3.967768e+01	6.474396e+02
2.760000e-06	5.497164e-06	9.828557e-09	4.002383e+01	6.501465e+02
2.770000e-06	5.544381e-06	9.866054e-09	4.036761e+01	6.527967e+02
2.780000e-06	5.591203e-06	9.905427e-09	4.070851e+01	6.553931e+02
2.790000e-06	5.637536e-06	9.944418e-09	4.104585e+01	6.579385e+02
2.800000e-06	5.683420e-06	9.981359e-09	4.137993e+01	6.604346e+02
2.810000e-06	5.728899e-06	1.001445e-08	4.171105e+01	6.628824e+02
2.820000e-06	5.773960e-06	1.004659e-08	4.203913e+01	6.652821e+02
2.830000e-06	5.818564e-06	1.008052e-08	4.236389e+01	6.676330e+02
2.840000e-06	5.862750e-06	1.011457e-08	4.268559e+01	6.699342e+02
2.850000e-06	5.906570e-06	1.014739e-08	4.300464e+01	6.721846e+02
2.860000e-06	5.950014e-06	1.018052e-08	4.332094e+01	6.743833e+02
2.870000e-06	5.993005e-06	1.021310e-08	4.363396e+01	6.765301e+02
2.880000e-06	6.035514e-06	1.024440e-08	4.394346e+01	6.786255e+02
2.890000e-06	6.077590e-06	1.027588e-08	4.424980e+01	6.806711e+02
2.900000e-06	6.119200e-06	1.030816e-08	4.455276e+01	6.826691e+02
