# Temperatura_=_20.0
# Concentracion g/m^3_=_10000.0
# C_Vs_to_Am_M_A/Vsm_=_65563218390.804596
# pendiente_HvsI_1/m_=_3716.3
# ordenada_HvsI_A/m_=_1297.0
# frecuencia_Hz_=_135403.98585520362

Tiempo_(s)	Campo_(V.s)	Magnetizacion_(V.s)	Campo_(kA/m)	Magnetizacion_(A/m)
0.000000e+00	-7.830393e-06	-1.146130e-08	-5.697246e+01	-7.493384e+02
1.000000e-08	-7.830437e-06	-1.145936e-08	-5.697278e+01	-7.493369e+02
2.000000e-08	-7.829944e-06	-1.145760e-08	-5.696920e+01	-7.493160e+02
3.000000e-08	-7.828851e-06	-1.145588e-08	-5.696124e+01	-7.492775e+02
4.000000e-08	-7.827252e-06	-1.145408e-08	-5.694960e+01	-7.492237e+02
5.000000e-08	-7.825230e-06	-1.145236e-08	-5.693490e+01	-7.491566e+02
6.000000e-08	-7.822709e-06	-1.145065e-08	-5.691656e+01	-7.490784e+02
7.000000e-08	-7.819670e-06	-1.144980e-08	-5.689444e+01	-7.489909e+02
8.000000e-08	-7.816167e-06	-1.144998e-08	-5.686896e+01	-7.488951e+02
9.000000e-08	-7.812070e-06	-1.144111e-08	-5.683915e+01	-7.487915e+02
1.000000e-07	-7.807083e-06	-1.143348e-08	-5.680286e+01	-7.486796e+02
1.100000e-07	-7.800866e-06	-1.143569e-08	-5.675763e+01	-7.485583e+02
1.200000e-07	-7.793481e-06	-1.144332e-08	-5.670390e+01	-7.484255e+02
1.300000e-07	-7.785534e-06	-1.144414e-08	-5.664608e+01	-7.482790e+02
1.400000e-07	-7.777547e-06	-1.141688e-08	-5.658796e+01	-7.481157e+02
1.500000e-07	-7.769417e-06	-1.140797e-08	-5.652881e+01	-7.479329e+02
1.600000e-07	-7.760690e-06	-1.143638e-08	-5.646531e+01	-7.477281e+02
1.700000e-07	-7.751467e-06	-1.142242e-08	-5.639821e+01	-7.474992e+02
1.800000e-07	-7.742011e-06	-1.138336e-08	-5.632941e+01	-7.472449e+02
1.900000e-07	-7.731912e-06	-1.140086e-08	-5.625594e+01	-7.469649e+02
2.000000e-07	-7.721034e-06	-1.140653e-08	-5.617679e+01	-7.466598e+02
2.100000e-07	-7.709797e-06	-1.138236e-08	-5.609503e+01	-7.463309e+02
2.200000e-07	-7.698126e-06	-1.139902e-08	-5.601011e+01	-7.459802e+02
2.300000e-07	-7.685771e-06	-1.138500e-08	-5.592022e+01	-7.456101e+02
2.400000e-07	-7.672970e-06	-1.135352e-08	-5.582708e+01	-7.452231e+02
2.500000e-07	-7.659696e-06	-1.138316e-08	-5.573051e+01	-7.448211e+02
2.600000e-07	-7.645699e-06	-1.138798e-08	-5.562866e+01	-7.444055e+02
2.700000e-07	-7.631076e-06	-1.133854e-08	-5.552227e+01	-7.439768e+02
2.800000e-07	-7.615910e-06	-1.134425e-08	-5.541193e+01	-7.435345e+02
2.900000e-07	-7.600184e-06	-1.136717e-08	-5.529750e+01	-7.430771e+02
3.000000e-07	-7.584009e-06	-1.133188e-08	-5.517982e+01	-7.426021e+02
3.100000e-07	-7.567325e-06	-1.131987e-08	-5.505843e+01	-7.421065e+02
3.200000e-07	-7.549945e-06	-1.132870e-08	-5.493197e+01	-7.415870e+02
3.300000e-07	-7.532051e-06	-1.130650e-08	-5.480178e+01	-7.410406e+02
3.400000e-07	-7.513690e-06	-1.129863e-08	-5.466819e+01	-7.404647e+02
3.500000e-07	-7.494729e-06	-1.130207e-08	-5.453023e+01	-7.398578e+02
3.600000e-07	-7.475217e-06	-1.127384e-08	-5.438827e+01	-7.392192e+02
3.700000e-07	-7.455097e-06	-1.125650e-08	-5.424188e+01	-7.385496e+02
3.800000e-07	-7.434284e-06	-1.126574e-08	-5.409045e+01	-7.378510e+02
3.900000e-07	-7.412831e-06	-1.125791e-08	-5.393436e+01	-7.371257e+02
4.000000e-07	-7.390805e-06	-1.122973e-08	-5.377410e+01	-7.363771e+02
4.100000e-07	-7.368241e-06	-1.121931e-08	-5.360993e+01	-7.356082e+02
4.200000e-07	-7.345125e-06	-1.121655e-08	-5.344174e+01	-7.348219e+02
4.300000e-07	-7.321415e-06	-1.119525e-08	-5.326924e+01	-7.340201e+02
4.400000e-07	-7.297170e-06	-1.117682e-08	-5.309283e+01	-7.332037e+02
4.500000e-07	-7.272497e-06	-1.116503e-08	-5.291331e+01	-7.323723e+02
4.600000e-07	-7.247404e-06	-1.115179e-08	-5.273074e+01	-7.315244e+02
4.700000e-07	-7.221850e-06	-1.114623e-08	-5.254482e+01	-7.306573e+02
4.800000e-07	-7.195744e-06	-1.113706e-08	-5.235488e+01	-7.297676e+02
4.900000e-07	-7.169045e-06	-1.111310e-08	-5.216061e+01	-7.288519e+02
5.000000e-07	-7.141779e-06	-1.109667e-08	-5.196224e+01	-7.279067e+02
5.100000e-07	-7.114008e-06	-1.108412e-08	-5.176018e+01	-7.269295e+02
5.200000e-07	-7.085767e-06	-1.106527e-08	-5.155471e+01	-7.259186e+02
5.300000e-07	-7.056987e-06	-1.104509e-08	-5.134530e+01	-7.248739e+02
5.400000e-07	-7.027624e-06	-1.102637e-08	-5.113166e+01	-7.237964e+02
5.500000e-07	-6.997663e-06	-1.101303e-08	-5.091367e+01	-7.226882e+02
5.600000e-07	-6.967105e-06	-1.099913e-08	-5.069134e+01	-7.215525e+02
5.700000e-07	-6.935978e-06	-1.097877e-08	-5.046486e+01	-7.203927e+02
5.800000e-07	-6.904295e-06	-1.095626e-08	-5.023435e+01	-7.192121e+02
5.900000e-07	-6.872138e-06	-1.094058e-08	-5.000038e+01	-7.180134e+02
6.000000e-07	-6.839500e-06	-1.092339e-08	-4.976291e+01	-7.167982e+02
6.100000e-07	-6.806398e-06	-1.089860e-08	-4.952206e+01	-7.155667e+02
6.200000e-07	-6.772897e-06	-1.087689e-08	-4.927832e+01	-7.143177e+02
6.300000e-07	-6.738962e-06	-1.086259e-08	-4.903141e+01	-7.130487e+02
6.400000e-07	-6.704594e-06	-1.084631e-08	-4.878136e+01	-7.117559e+02
6.500000e-07	-6.669771e-06	-1.082366e-08	-4.852799e+01	-7.104350e+02
6.600000e-07	-6.634443e-06	-1.079586e-08	-4.827096e+01	-7.090817e+02
6.700000e-07	-6.598577e-06	-1.077082e-08	-4.801000e+01	-7.076918e+02
6.800000e-07	-6.562208e-06	-1.075158e-08	-4.774538e+01	-7.062625e+02
6.900000e-07	-6.525369e-06	-1.073012e-08	-4.747735e+01	-7.047921e+02
7.000000e-07	-6.488046e-06	-1.070557e-08	-4.720580e+01	-7.032806e+02
7.100000e-07	-6.450284e-06	-1.068259e-08	-4.693105e+01	-7.017293e+02
7.200000e-07	-6.412124e-06	-1.066190e-08	-4.665341e+01	-7.001413e+02
7.300000e-07	-6.373568e-06	-1.063755e-08	-4.637287e+01	-6.985203e+02
7.400000e-07	-6.334557e-06	-1.060836e-08	-4.608904e+01	-6.968707e+02
7.500000e-07	-6.295093e-06	-1.057688e-08	-4.580191e+01	-6.951967e+02
7.600000e-07	-6.255184e-06	-1.054873e-08	-4.551154e+01	-6.935018e+02
7.700000e-07	-6.214774e-06	-1.052256e-08	-4.521752e+01	-6.917885e+02
7.800000e-07	-6.173902e-06	-1.049635e-08	-4.492014e+01	-6.900576e+02
7.900000e-07	-6.132618e-06	-1.046851e-08	-4.461977e+01	-6.883081e+02
8.000000e-07	-6.090851e-06	-1.044169e-08	-4.431588e+01	-6.865375e+02
8.100000e-07	-6.048561e-06	-1.041575e-08	-4.400819e+01	-6.847419e+02
8.200000e-07	-6.005825e-06	-1.038816e-08	-4.369725e+01	-6.829164e+02
8.300000e-07	-5.962686e-06	-1.035710e-08	-4.338338e+01	-6.810556e+02
8.400000e-07	-5.919107e-06	-1.032395e-08	-4.306631e+01	-6.791543e+02
8.500000e-07	-5.875105e-06	-1.029364e-08	-4.274615e+01	-6.772079e+02
8.600000e-07	-5.830735e-06	-1.026140e-08	-4.242333e+01	-6.752131e+02
8.700000e-07	-5.786002e-06	-1.022514e-08	-4.209786e+01	-6.731680e+02
8.800000e-07	-5.740862e-06	-1.018997e-08	-4.176943e+01	-6.710723e+02
8.900000e-07	-5.695259e-06	-1.016049e-08	-4.143763e+01	-6.689275e+02
9.000000e-07	-5.649190e-06	-1.013059e-08	-4.110244e+01	-6.667365e+02
9.100000e-07	-5.602651e-06	-1.009553e-08	-4.076383e+01	-6.645029e+02
9.200000e-07	-5.555636e-06	-1.005602e-08	-4.042176e+01	-6.622312e+02
9.300000e-07	-5.508222e-06	-1.001865e-08	-4.007678e+01	-6.599258e+02
9.400000e-07	-5.460422e-06	-9.981270e-09	-3.972900e+01	-6.575903e+02
9.500000e-07	-5.412175e-06	-9.942713e-09	-3.937797e+01	-6.552276e+02
9.600000e-07	-5.363513e-06	-9.904425e-09	-3.902391e+01	-6.528392e+02
9.700000e-07	-5.314455e-06	-9.867976e-09	-3.866697e+01	-6.504250e+02
9.800000e-07	-5.265036e-06	-9.831849e-09	-3.830741e+01	-6.479833e+02
9.900000e-07	-5.215272e-06	-9.793220e-09	-3.794533e+01	-6.455111e+02
1.000000e-06	-5.165149e-06	-9.754020e-09	-3.758065e+01	-6.430042e+02
1.010000e-06	-5.114734e-06	-9.713520e-09	-3.721384e+01	-6.404576e+02
1.020000e-06	-5.064028e-06	-9.673580e-09	-3.684491e+01	-6.378663e+02
1.030000e-06	-5.012955e-06	-9.631439e-09	-3.647331e+01	-6.352250e+02
1.040000e-06	-4.961471e-06	-9.586495e-09	-3.609872e+01	-6.325295e+02
1.050000e-06	-4.909554e-06	-9.541809e-09	-3.572099e+01	-6.297764e+02
1.060000e-06	-4.857253e-06	-9.500114e-09	-3.534046e+01	-6.269635e+02
1.070000e-06	-4.804623e-06	-9.458156e-09	-3.495753e+01	-6.240899e+02
1.080000e-06	-4.751652e-06	-9.413108e-09	-3.457212e+01	-6.211562e+02
1.090000e-06	-4.698328e-06	-9.365763e-09	-3.418415e+01	-6.181640e+02
1.100000e-06	-4.644662e-06	-9.319328e-09	-3.379369e+01	-6.151157e+02
1.110000e-06	-4.590700e-06	-9.274503e-09	-3.340107e+01	-6.120143e+02
1.120000e-06	-4.536405e-06	-9.227489e-09	-3.300603e+01	-6.088628e+02
1.130000e-06	-4.481748e-06	-9.176925e-09	-3.260835e+01	-6.056640e+02
1.140000e-06	-4.426742e-06	-9.126333e-09	-3.220814e+01	-6.024199e+02
1.150000e-06	-4.371437e-06	-9.076518e-09	-3.180575e+01	-5.991317e+02
1.160000e-06	-4.315858e-06	-9.025977e-09	-3.140137e+01	-5.957995e+02
1.170000e-06	-4.259961e-06	-8.972370e-09	-3.099467e+01	-5.924222e+02
1.180000e-06	-4.203665e-06	-8.916912e-09	-3.058507e+01	-5.889979e+02
1.190000e-06	-4.146986e-06	-8.863872e-09	-3.017268e+01	-5.855237e+02
1.200000e-06	-4.089931e-06	-8.812565e-09	-2.975757e+01	-5.819963e+02
1.210000e-06	-4.032514e-06	-8.760816e-09	-2.933981e+01	-5.784125e+02
1.220000e-06	-3.974811e-06	-8.707319e-09	-2.891998e+01	-5.747690e+02
1.230000e-06	-3.916836e-06	-8.651878e-09	-2.849816e+01	-5.710632e+02
1.240000e-06	-3.858593e-06	-8.592773e-09	-2.807439e+01	-5.672932e+02
1.250000e-06	-3.800091e-06	-8.530896e-09	-2.764875e+01	-5.634582e+02
1.260000e-06	-3.741346e-06	-8.468063e-09	-2.722133e+01	-5.595581e+02
1.270000e-06	-3.682371e-06	-8.405842e-09	-2.679223e+01	-5.555936e+02
1.280000e-06	-3.623207e-06	-8.344489e-09	-2.636177e+01	-5.515658e+02
1.290000e-06	-3.563828e-06	-8.283920e-09	-2.592974e+01	-5.474763e+02
1.300000e-06	-3.504178e-06	-8.224469e-09	-2.549574e+01	-5.433263e+02
1.310000e-06	-3.444270e-06	-8.163523e-09	-2.505986e+01	-5.391165e+02
1.320000e-06	-3.384120e-06	-8.097837e-09	-2.462222e+01	-5.348469e+02
1.330000e-06	-3.323705e-06	-8.027573e-09	-2.418265e+01	-5.305163e+02
1.340000e-06	-3.263008e-06	-7.956222e-09	-2.374103e+01	-5.261227e+02
1.350000e-06	-3.202034e-06	-7.885851e-09	-2.329739e+01	-5.216630e+02
1.360000e-06	-3.140782e-06	-7.816787e-09	-2.285174e+01	-5.171331e+02
1.370000e-06	-3.079304e-06	-7.747451e-09	-2.240443e+01	-5.125287e+02
1.380000e-06	-3.017633e-06	-7.676896e-09	-2.195573e+01	-5.078453e+02
1.390000e-06	-2.955753e-06	-7.605970e-09	-2.150550e+01	-5.030785e+02
1.400000e-06	-2.893692e-06	-7.533076e-09	-2.105396e+01	-4.982247e+02
1.410000e-06	-2.831471e-06	-7.456560e-09	-2.060125e+01	-4.932813e+02
1.420000e-06	-2.769040e-06	-7.377248e-09	-2.014701e+01	-4.882464e+02
1.430000e-06	-2.706381e-06	-7.297378e-09	-1.969112e+01	-4.831196e+02
1.440000e-06	-2.643511e-06	-7.215767e-09	-1.923369e+01	-4.779011e+02
1.450000e-06	-2.580441e-06	-7.135193e-09	-1.877480e+01	-4.725920e+02
1.460000e-06	-2.517201e-06	-7.053922e-09	-1.831468e+01	-4.671933e+02
1.470000e-06	-2.453820e-06	-6.974180e-09	-1.785353e+01	-4.617064e+02
1.480000e-06	-2.390267e-06	-6.894111e-09	-1.739113e+01	-4.561318e+02
1.490000e-06	-2.326530e-06	-6.811020e-09	-1.692739e+01	-4.504692e+02
1.500000e-06	-2.262627e-06	-6.726132e-09	-1.646245e+01	-4.447172e+02
1.510000e-06	-2.198552e-06	-6.635378e-09	-1.599625e+01	-4.388734e+02
1.520000e-06	-2.134312e-06	-6.540459e-09	-1.552885e+01	-4.329339e+02
1.530000e-06	-2.069945e-06	-6.441868e-09	-1.506053e+01	-4.268940e+02
1.540000e-06	-2.005451e-06	-6.347107e-09	-1.459129e+01	-4.207482e+02
1.550000e-06	-1.940809e-06	-6.255210e-09	-1.412096e+01	-4.144909e+02
1.560000e-06	-1.876012e-06	-6.163082e-09	-1.364951e+01	-4.081163e+02
1.570000e-06	-1.811076e-06	-6.068767e-09	-1.317704e+01	-4.016193e+02
1.580000e-06	-1.746053e-06	-5.971025e-09	-1.270395e+01	-3.949953e+02
1.590000e-06	-1.680900e-06	-5.867828e-09	-1.222991e+01	-3.882408e+02
1.600000e-06	-1.615614e-06	-5.757960e-09	-1.175490e+01	-3.813531e+02
1.610000e-06	-1.550235e-06	-5.644127e-09	-1.127922e+01	-3.743304e+02
1.620000e-06	-1.484740e-06	-5.527242e-09	-1.080269e+01	-3.671717e+02
1.630000e-06	-1.419127e-06	-5.412382e-09	-1.032530e+01	-3.598764e+02
1.640000e-06	-1.353405e-06	-5.299404e-09	-9.847117e+00	-3.524441e+02
1.650000e-06	-1.287585e-06	-5.189536e-09	-9.368223e+00	-3.448742e+02
1.660000e-06	-1.221690e-06	-5.077508e-09	-8.888789e+00	-3.371657e+02
1.670000e-06	-1.155724e-06	-4.960490e-09	-8.408833e+00	-3.293171e+02
1.680000e-06	-1.089687e-06	-4.838804e-09	-7.928355e+00	-3.213264e+02
1.690000e-06	-1.023582e-06	-4.710640e-09	-7.447392e+00	-3.131908e+02
1.700000e-06	-9.573945e-07	-4.579688e-09	-6.965821e+00	-3.049070e+02
1.710000e-06	-8.911047e-07	-4.446494e-09	-6.483510e+00	-2.964711e+02
1.720000e-06	-8.247440e-07	-4.314254e-09	-6.000681e+00	-2.878793e+02
1.730000e-06	-7.583245e-07	-4.182440e-09	-5.517426e+00	-2.791273e+02
1.740000e-06	-6.918243e-07	-4.049478e-09	-5.033583e+00	-2.702110e+02
1.750000e-06	-6.252931e-07	-3.912880e-09	-4.549515e+00	-2.611261e+02
1.760000e-06	-5.587186e-07	-3.769133e-09	-4.065131e+00	-2.518684e+02
1.770000e-06	-4.920734e-07	-3.620084e-09	-3.580233e+00	-2.424336e+02
1.780000e-06	-4.254208e-07	-3.469392e-09	-3.095281e+00	-2.328174e+02
1.790000e-06	-3.587909e-07	-3.317461e-09	-2.610495e+00	-2.230151e+02
1.800000e-06	-2.921736e-07	-3.164093e-09	-2.125800e+00	-2.130217e+02
1.810000e-06	-2.255498e-07	-3.008970e-09	-1.641058e+00	-2.028318e+02
1.820000e-06	-1.589141e-07	-2.851522e-09	-1.156229e+00	-1.924396e+02
1.830000e-06	-9.227620e-08	-2.689266e-09	-6.713842e-01	-1.818389e+02
1.840000e-06	-2.564107e-08	-2.522524e-09	-1.865596e-01	-1.710236e+02
1.850000e-06	4.099575e-08	-2.353049e-09	2.982773e-01	-1.599873e+02
1.860000e-06	1.076867e-07	-2.181820e-09	7.835083e-01	-1.487239e+02
1.870000e-06	1.744156e-07	-2.008506e-09	1.269015e+00	-1.372277e+02
1.880000e-06	2.411147e-07	-1.832168e-09	1.754305e+00	-1.254937e+02
1.890000e-06	3.077844e-07	-1.650994e-09	2.239381e+00	-1.135178e+02
1.900000e-06	3.744258e-07	-1.464666e-09	2.724252e+00	-1.012969e+02
1.910000e-06	4.410350e-07	-1.277510e-09	3.208887e+00	-8.882897e+01
1.920000e-06	5.076000e-07	-1.088187e-09	3.693201e+00	-7.611347e+01
1.930000e-06	5.741299e-07	-8.970999e-10	4.177261e+00	-6.315112e+01
1.940000e-06	6.406094e-07	-6.985779e-10	4.660953e+00	-4.994423e+01
1.950000e-06	7.070318e-07	-4.963841e-10	5.144230e+00	-3.649679e+01
1.960000e-06	7.734078e-07	-2.896162e-10	5.627169e+00	-2.281472e+01
1.970000e-06	8.397518e-07	-7.721680e-11	6.109876e+00	-8.906070e+00
1.980000e-06	9.060709e-07	1.397887e-10	6.592401e+00	5.218662e+00
1.990000e-06	9.723286e-07	3.628073e-10	7.074479e+00	1.954627e+01
2.000000e-06	1.038510e-06	5.837265e-10	7.556002e+00	3.406058e+01
2.010000e-06	1.104632e-06	8.018842e-10	8.037091e+00	4.874224e+01
2.020000e-06	1.170660e-06	1.018577e-09	8.517504e+00	6.356867e+01
2.030000e-06	1.236591e-06	1.238717e-09	8.997202e+00	7.851406e+01
2.040000e-06	1.302465e-06	1.466145e-09	9.476492e+00	9.354964e+01
2.050000e-06	1.368227e-06	1.700238e-09	9.954961e+00	1.086440e+02
2.060000e-06	1.433845e-06	1.935287e-09	1.043239e+01	1.237637e+02
2.070000e-06	1.499329e-06	2.169801e-09	1.090884e+01	1.388739e+02
2.080000e-06	1.564675e-06	2.404008e-09	1.138428e+01	1.539392e+02
2.090000e-06	1.629915e-06	2.632833e-09	1.185895e+01	1.689242e+02
2.100000e-06	1.695069e-06	2.850158e-09	1.233301e+01	1.837945e+02
2.110000e-06	1.760108e-06	3.062651e-09	1.280621e+01	1.985176e+02
2.120000e-06	1.825026e-06	3.276560e-09	1.327855e+01	2.130629e+02
2.130000e-06	1.889844e-06	3.493402e-09	1.375015e+01	2.274026e+02
2.140000e-06	1.954543e-06	3.710128e-09	1.422089e+01	2.415121e+02
2.150000e-06	2.019084e-06	3.923457e-09	1.469047e+01	2.553695e+02
2.160000e-06	2.083453e-06	4.133771e-09	1.515881e+01	2.689564e+02
2.170000e-06	2.147685e-06	4.338077e-09	1.562615e+01	2.822571e+02
2.180000e-06	2.211806e-06	4.533178e-09	1.609268e+01	2.952587e+02
2.190000e-06	2.275769e-06	4.718100e-09	1.655807e+01	3.079511e+02
2.200000e-06	2.339537e-06	4.898346e-09	1.702203e+01	3.203263e+02
2.210000e-06	2.403091e-06	5.077796e-09	1.748444e+01	3.323787e+02
2.220000e-06	2.466431e-06	5.253896e-09	1.794528e+01	3.441045e+02
2.230000e-06	2.529617e-06	5.423185e-09	1.840502e+01	3.555020e+02
2.240000e-06	2.592665e-06	5.590426e-09	1.886374e+01	3.665711e+02
2.250000e-06	2.655549e-06	5.758138e-09	1.932127e+01	3.773134e+02
2.260000e-06	2.718238e-06	5.923916e-09	1.977739e+01	3.877321e+02
2.270000e-06	2.780708e-06	6.081947e-09	2.023191e+01	3.978316e+02
2.280000e-06	2.842968e-06	6.231335e-09	2.068490e+01	4.076176e+02
2.290000e-06	2.905061e-06	6.374629e-09	2.113668e+01	4.170967e+02
2.300000e-06	2.966964e-06	6.511052e-09	2.158707e+01	4.262763e+02
2.310000e-06	3.028613e-06	6.639065e-09	2.203562e+01	4.351640e+02
2.320000e-06	3.090009e-06	6.760769e-09	2.248232e+01	4.437677e+02
2.330000e-06	3.151173e-06	6.881990e-09	2.292734e+01	4.520955e+02
2.340000e-06	3.212126e-06	7.005113e-09	2.337082e+01	4.601552e+02
2.350000e-06	3.272784e-06	7.127379e-09	2.381216e+01	4.679542e+02
2.360000e-06	3.333100e-06	7.244035e-09	2.425101e+01	4.755003e+02
2.370000e-06	3.393191e-06	7.354534e-09	2.468822e+01	4.828009e+02
2.380000e-06	3.453083e-06	7.460130e-09	2.512398e+01	4.898635e+02
2.390000e-06	3.512754e-06	7.559556e-09	2.555814e+01	4.966962e+02
2.400000e-06	3.572235e-06	7.655111e-09	2.599091e+01	5.033073e+02
2.410000e-06	3.631483e-06	7.747014e-09	2.642198e+01	5.097056e+02
2.420000e-06	3.690476e-06	7.838962e-09	2.685121e+01	5.159008e+02
2.430000e-06	3.749217e-06	7.933020e-09	2.727860e+01	5.219026e+02
2.440000e-06	3.807671e-06	8.023798e-09	2.770390e+01	5.277216e+02
2.450000e-06	3.865868e-06	8.111597e-09	2.812733e+01	5.333680e+02
2.460000e-06	3.923791e-06	8.194835e-09	2.854876e+01	5.388521e+02
2.470000e-06	3.981352e-06	8.278866e-09	2.896757e+01	5.441837e+02
2.480000e-06	4.038559e-06	8.361092e-09	2.938379e+01	5.493716e+02
2.490000e-06	4.095507e-06	8.438443e-09	2.979814e+01	5.544239e+02
2.500000e-06	4.152230e-06	8.512525e-09	3.021084e+01	5.593473e+02
2.510000e-06	4.208612e-06	8.584142e-09	3.062106e+01	5.641474e+02
2.520000e-06	4.264614e-06	8.655162e-09	3.102852e+01	5.688288e+02
2.530000e-06	4.320301e-06	8.721905e-09	3.143370e+01	5.733951e+02
2.540000e-06	4.375687e-06	8.786564e-09	3.183667e+01	5.778492e+02
2.550000e-06	4.430751e-06	8.852706e-09	3.223731e+01	5.821934e+02
2.560000e-06	4.485515e-06	8.920990e-09	3.263576e+01	5.864300e+02
2.570000e-06	4.539932e-06	8.989548e-09	3.303168e+01	5.905614e+02
2.580000e-06	4.593935e-06	9.051321e-09	3.342461e+01	5.945901e+02
2.590000e-06	4.647601e-06	9.105412e-09	3.381506e+01	5.985188e+02
2.600000e-06	4.700976e-06	9.157721e-09	3.420341e+01	6.023507e+02
2.610000e-06	4.754026e-06	9.208499e-09	3.458940e+01	6.060892e+02
2.620000e-06	4.806707e-06	9.258406e-09	3.497269e+01	6.097374e+02
2.630000e-06	4.858985e-06	9.307513e-09	3.535305e+01	6.132990e+02
2.640000e-06	4.910907e-06	9.359082e-09	3.573083e+01	6.167769e+02
2.650000e-06	4.962538e-06	9.413134e-09	3.610649e+01	6.201742e+02
2.660000e-06	5.013862e-06	9.464756e-09	3.647991e+01	6.234932e+02
2.670000e-06	5.064829e-06	9.513304e-09	3.685074e+01	6.267363e+02
2.680000e-06	5.115408e-06	9.560034e-09	3.721875e+01	6.299053e+02
2.690000e-06	5.165673e-06	9.603832e-09	3.758446e+01	6.330021e+02
2.700000e-06	5.215644e-06	9.645401e-09	3.794804e+01	6.360285e+02
2.710000e-06	5.265235e-06	9.684314e-09	3.830885e+01	6.389862e+02
2.720000e-06	5.314374e-06	9.722371e-09	3.866638e+01	6.418774e+02
2.730000e-06	5.363092e-06	9.760695e-09	3.902084e+01	6.447045e+02
2.740000e-06	5.411466e-06	9.800732e-09	3.937281e+01	6.474698e+02
2.750000e-06	5.459455e-06	9.842537e-09	3.972196e+01	6.501762e+02
2.760000e-06	5.507032e-06	9.884152e-09	4.006812e+01	6.528261e+02
2.770000e-06	5.554192e-06	9.925505e-09	4.041125e+01	6.554222e+02
2.780000e-06	5.600926e-06	9.963759e-09	4.075128e+01	6.579666e+02
2.790000e-06	5.647262e-06	9.996890e-09	4.108842e+01	6.604610e+02
2.800000e-06	5.693159e-06	1.002751e-08	4.142235e+01	6.629067e+02
2.810000e-06	5.738594e-06	1.005941e-08	4.175293e+01	6.653044e+02
2.820000e-06	5.783629e-06	1.009277e-08	4.208059e+01	6.676542e+02
2.830000e-06	5.828219e-06	1.012729e-08	4.240502e+01	6.699562e+02
2.840000e-06	5.872364e-06	1.016121e-08	4.272622e+01	6.722100e+02
2.850000e-06	5.916158e-06	1.019591e-08	4.304485e+01	6.744153e+02
2.860000e-06	5.959578e-06	1.022885e-08	4.336076e+01	6.765721e+02
2.870000e-06	6.002522e-06	1.025801e-08	4.367321e+01	6.786808e+02
2.880000e-06	6.044970e-06	1.028557e-08	4.398206e+01	6.807419e+02
2.890000e-06	6.087018e-06	1.031541e-08	4.428799e+01	6.827568e+02
2.900000e-06	6.128637e-06	1.034713e-08	4.459081e+01	6.847270e+02
