# Temperatura_=_20.0
# Concentracion g/m^3_=_10000.0
# C_Vs_to_Am_M_A/Vsm_=_65563218390.804596
# pendiente_HvsI_1/m_=_3716.3
# ordenada_HvsI_A/m_=_1297.0
# frecuencia_Hz_=_135413.18801827508

Tiempo_(s)	Campo_(V.s)	Magnetizacion_(V.s)	Campo_(kA/m)	Magnetizacion_(A/m)
0.000000e+00	-7.870259e-06	-1.164771e-08	-5.696737e+01	-7.614604e+02
1.000000e-08	-7.869957e-06	-1.164669e-08	-5.696518e+01	-7.614773e+02
2.000000e-08	-7.869037e-06	-1.164818e-08	-5.695852e+01	-7.614785e+02
3.000000e-08	-7.867524e-06	-1.165012e-08	-5.694758e+01	-7.614632e+02
4.000000e-08	-7.865567e-06	-1.165077e-08	-5.693341e+01	-7.614296e+02
5.000000e-08	-7.863160e-06	-1.164934e-08	-5.691599e+01	-7.613742e+02
6.000000e-08	-7.860270e-06	-1.164772e-08	-5.689507e+01	-7.612929e+02
7.000000e-08	-7.856940e-06	-1.164037e-08	-5.687097e+01	-7.611805e+02
8.000000e-08	-7.853033e-06	-1.162239e-08	-5.684268e+01	-7.610321e+02
9.000000e-08	-7.848287e-06	-1.161585e-08	-5.680833e+01	-7.608435e+02
1.000000e-07	-7.842414e-06	-1.163169e-08	-5.676582e+01	-7.606120e+02
1.100000e-07	-7.835291e-06	-1.164152e-08	-5.671426e+01	-7.603373e+02
1.200000e-07	-7.827386e-06	-1.161848e-08	-5.665704e+01	-7.600215e+02
1.300000e-07	-7.819366e-06	-1.158202e-08	-5.659899e+01	-7.596698e+02
1.400000e-07	-7.811321e-06	-1.158436e-08	-5.654076e+01	-7.592898e+02
1.500000e-07	-7.802732e-06	-1.162610e-08	-5.647859e+01	-7.588912e+02
1.600000e-07	-7.793513e-06	-1.159325e-08	-5.641186e+01	-7.584850e+02
1.700000e-07	-7.784084e-06	-1.153842e-08	-5.634361e+01	-7.580820e+02
1.800000e-07	-7.774158e-06	-1.159453e-08	-5.627176e+01	-7.576920e+02
1.900000e-07	-7.763394e-06	-1.159599e-08	-5.619385e+01	-7.573225e+02
2.000000e-07	-7.752216e-06	-1.153216e-08	-5.611294e+01	-7.569778e+02
2.100000e-07	-7.740690e-06	-1.158214e-08	-5.602951e+01	-7.566582e+02
2.200000e-07	-7.728470e-06	-1.155533e-08	-5.594106e+01	-7.563604e+02
2.300000e-07	-7.715717e-06	-1.149775e-08	-5.584875e+01	-7.560771e+02
2.400000e-07	-7.702565e-06	-1.158406e-08	-5.575355e+01	-7.557980e+02
2.500000e-07	-7.688721e-06	-1.159019e-08	-5.565334e+01	-7.555109e+02
2.600000e-07	-7.674193e-06	-1.152273e-08	-5.554818e+01	-7.552029e+02
2.700000e-07	-7.659127e-06	-1.156869e-08	-5.543913e+01	-7.548616e+02
2.800000e-07	-7.643458e-06	-1.158044e-08	-5.532571e+01	-7.544766e+02
2.900000e-07	-7.627331e-06	-1.150566e-08	-5.520898e+01	-7.540404e+02
3.000000e-07	-7.610745e-06	-1.151455e-08	-5.508893e+01	-7.535486e+02
3.100000e-07	-7.593429e-06	-1.152038e-08	-5.496359e+01	-7.530008e+02
3.200000e-07	-7.575551e-06	-1.147181e-08	-5.483419e+01	-7.523998e+02
3.300000e-07	-7.557293e-06	-1.148976e-08	-5.470203e+01	-7.517510e+02
3.400000e-07	-7.538468e-06	-1.149613e-08	-5.456576e+01	-7.510620e+02
3.500000e-07	-7.518993e-06	-1.144174e-08	-5.442480e+01	-7.503409e+02
3.600000e-07	-7.498906e-06	-1.144638e-08	-5.427940e+01	-7.495955e+02
3.700000e-07	-7.478126e-06	-1.145575e-08	-5.412899e+01	-7.488322e+02
3.800000e-07	-7.456718e-06	-1.142491e-08	-5.397403e+01	-7.480558e+02
3.900000e-07	-7.434788e-06	-1.140269e-08	-5.381530e+01	-7.472685e+02
4.000000e-07	-7.412321e-06	-1.138491e-08	-5.365267e+01	-7.464703e+02
4.100000e-07	-7.389226e-06	-1.136395e-08	-5.348551e+01	-7.456592e+02
4.200000e-07	-7.365496e-06	-1.135695e-08	-5.331374e+01	-7.448317e+02
4.300000e-07	-7.341280e-06	-1.134725e-08	-5.313846e+01	-7.439836e+02
4.400000e-07	-7.316613e-06	-1.133343e-08	-5.295991e+01	-7.431109e+02
4.500000e-07	-7.291455e-06	-1.133126e-08	-5.277781e+01	-7.422100e+02
4.600000e-07	-7.265877e-06	-1.132813e-08	-5.259267e+01	-7.412786e+02
4.700000e-07	-7.239828e-06	-1.130718e-08	-5.240412e+01	-7.403158e+02
4.800000e-07	-7.213144e-06	-1.127965e-08	-5.221097e+01	-7.393222e+02
4.900000e-07	-7.185876e-06	-1.125598e-08	-5.201360e+01	-7.382992e+02
5.000000e-07	-7.158133e-06	-1.123172e-08	-5.181279e+01	-7.372493e+02
5.100000e-07	-7.129901e-06	-1.121790e-08	-5.160843e+01	-7.361749e+02
5.200000e-07	-7.101101e-06	-1.120847e-08	-5.139996e+01	-7.350785e+02
5.300000e-07	-7.071709e-06	-1.119643e-08	-5.118722e+01	-7.339614e+02
5.400000e-07	-7.041684e-06	-1.119108e-08	-5.096989e+01	-7.328244e+02
5.500000e-07	-7.011056e-06	-1.118330e-08	-5.074820e+01	-7.316670e+02
5.600000e-07	-6.979905e-06	-1.116334e-08	-5.052271e+01	-7.304877e+02
5.700000e-07	-6.948158e-06	-1.113267e-08	-5.029292e+01	-7.292847e+02
5.800000e-07	-6.915907e-06	-1.109654e-08	-5.005948e+01	-7.280555e+02
5.900000e-07	-6.883233e-06	-1.106517e-08	-4.982297e+01	-7.267981e+02
6.000000e-07	-6.850075e-06	-1.104470e-08	-4.958297e+01	-7.255107e+02
6.100000e-07	-6.816539e-06	-1.103067e-08	-4.934022e+01	-7.241925e+02
6.200000e-07	-6.782626e-06	-1.102141e-08	-4.909475e+01	-7.228432e+02
6.300000e-07	-6.748205e-06	-1.101665e-08	-4.884559e+01	-7.214637e+02
6.400000e-07	-6.713286e-06	-1.100202e-08	-4.859284e+01	-7.200554e+02
6.500000e-07	-6.677952e-06	-1.096885e-08	-4.833708e+01	-7.186200e+02
6.600000e-07	-6.642077e-06	-1.093132e-08	-4.807741e+01	-7.171592e+02
6.700000e-07	-6.605648e-06	-1.090178e-08	-4.781372e+01	-7.156744e+02
6.800000e-07	-6.568760e-06	-1.087428e-08	-4.754672e+01	-7.141665e+02
6.900000e-07	-6.531418e-06	-1.085330e-08	-4.727643e+01	-7.126358e+02
7.000000e-07	-6.493620e-06	-1.083859e-08	-4.700283e+01	-7.110819e+02
7.100000e-07	-6.455370e-06	-1.082662e-08	-4.672597e+01	-7.095039e+02
7.200000e-07	-6.416701e-06	-1.080804e-08	-4.644607e+01	-7.079005e+02
7.300000e-07	-6.377564e-06	-1.077802e-08	-4.616278e+01	-7.062705e+02
7.400000e-07	-6.337990e-06	-1.074152e-08	-4.587633e+01	-7.046129e+02
7.500000e-07	-6.297988e-06	-1.070588e-08	-4.558679e+01	-7.029271e+02
7.600000e-07	-6.257485e-06	-1.067295e-08	-4.529362e+01	-7.012128e+02
7.700000e-07	-6.216513e-06	-1.064384e-08	-4.499705e+01	-6.994703e+02
7.800000e-07	-6.175144e-06	-1.061988e-08	-4.469760e+01	-6.976999e+02
7.900000e-07	-6.133330e-06	-1.059880e-08	-4.439494e+01	-6.959018e+02
8.000000e-07	-6.090958e-06	-1.057670e-08	-4.408824e+01	-6.940759e+02
8.100000e-07	-6.048104e-06	-1.055316e-08	-4.377805e+01	-6.922213e+02
8.200000e-07	-6.004827e-06	-1.052431e-08	-4.346479e+01	-6.903363e+02
8.300000e-07	-5.961067e-06	-1.048788e-08	-4.314805e+01	-6.884182e+02
8.400000e-07	-5.916931e-06	-1.045085e-08	-4.282858e+01	-6.864635e+02
8.500000e-07	-5.872471e-06	-1.041555e-08	-4.250676e+01	-6.844682e+02
8.600000e-07	-5.827653e-06	-1.038069e-08	-4.218235e+01	-6.824284e+02
8.700000e-07	-5.782410e-06	-1.034578e-08	-4.185487e+01	-6.803403e+02
8.800000e-07	-5.736669e-06	-1.031293e-08	-4.152379e+01	-6.782015e+02
8.900000e-07	-5.690460e-06	-1.028118e-08	-4.118931e+01	-6.760106e+02
9.000000e-07	-5.643788e-06	-1.024888e-08	-4.085148e+01	-6.737678e+02
9.100000e-07	-5.596650e-06	-1.021369e-08	-4.051029e+01	-6.714753e+02
9.200000e-07	-5.549090e-06	-1.017805e-08	-4.016603e+01	-6.691364e+02
9.300000e-07	-5.501139e-06	-1.014015e-08	-3.981895e+01	-6.667556e+02
9.400000e-07	-5.452787e-06	-1.010010e-08	-3.946896e+01	-6.643378e+02
9.500000e-07	-5.403961e-06	-1.005905e-08	-3.911554e+01	-6.618878e+02
9.600000e-07	-5.354716e-06	-1.001812e-08	-3.875909e+01	-6.594091e+02
9.700000e-07	-5.305181e-06	-9.977646e-09	-3.840054e+01	-6.569040e+02
9.800000e-07	-5.255320e-06	-9.939714e-09	-3.803964e+01	-6.543728e+02
9.900000e-07	-5.205064e-06	-9.903809e-09	-3.767586e+01	-6.518136e+02
1.000000e-06	-5.154458e-06	-9.866237e-09	-3.730956e+01	-6.492228e+02
1.010000e-06	-5.103595e-06	-9.826493e-09	-3.694140e+01	-6.465949e+02
1.020000e-06	-5.052418e-06	-9.785748e-09	-3.657097e+01	-6.439239e+02
1.030000e-06	-5.000776e-06	-9.744145e-09	-3.619717e+01	-6.412033e+02
1.040000e-06	-4.948657e-06	-9.698709e-09	-3.581991e+01	-6.384272e+02
1.050000e-06	-4.896166e-06	-9.649376e-09	-3.543997e+01	-6.355911e+02
1.060000e-06	-4.843336e-06	-9.601888e-09	-3.505756e+01	-6.326921e+02
1.070000e-06	-4.790169e-06	-9.560484e-09	-3.467273e+01	-6.297293e+02
1.080000e-06	-4.736648e-06	-9.520154e-09	-3.428533e+01	-6.267037e+02
1.090000e-06	-4.682767e-06	-9.477012e-09	-3.389532e+01	-6.236179e+02
1.100000e-06	-4.628614e-06	-9.431556e-09	-3.350334e+01	-6.204758e+02
1.110000e-06	-4.574159e-06	-9.384627e-09	-3.310918e+01	-6.172815e+02
1.120000e-06	-4.519314e-06	-9.335253e-09	-3.271219e+01	-6.140389e+02
1.130000e-06	-4.464109e-06	-9.281845e-09	-3.231260e+01	-6.107509e+02
1.140000e-06	-4.408578e-06	-9.228182e-09	-3.191065e+01	-6.074193e+02
1.150000e-06	-4.352749e-06	-9.177989e-09	-3.150655e+01	-6.040440e+02
1.160000e-06	-4.296621e-06	-9.127510e-09	-3.110027e+01	-6.006232e+02
1.170000e-06	-4.240119e-06	-9.074318e-09	-3.069129e+01	-5.971541e+02
1.180000e-06	-4.183212e-06	-9.018117e-09	-3.027938e+01	-5.936326e+02
1.190000e-06	-4.125889e-06	-8.959801e-09	-2.986446e+01	-5.900542e+02
1.200000e-06	-4.068228e-06	-8.901963e-09	-2.944710e+01	-5.864148e+02
1.210000e-06	-4.010313e-06	-8.845509e-09	-2.902789e+01	-5.827110e+02
1.220000e-06	-3.952107e-06	-8.787044e-09	-2.860658e+01	-5.789404e+02
1.230000e-06	-3.893622e-06	-8.728411e-09	-2.818324e+01	-5.751021e+02
1.240000e-06	-3.834906e-06	-8.670225e-09	-2.775824e+01	-5.711963e+02
1.250000e-06	-3.775985e-06	-8.611304e-09	-2.733175e+01	-5.672244e+02
1.260000e-06	-3.716810e-06	-8.550690e-09	-2.690342e+01	-5.631885e+02
1.270000e-06	-3.657405e-06	-8.487575e-09	-2.647343e+01	-5.590906e+02
1.280000e-06	-3.597756e-06	-8.422387e-09	-2.604167e+01	-5.549326e+02
1.290000e-06	-3.537827e-06	-8.355514e-09	-2.560789e+01	-5.507154e+02
1.300000e-06	-3.477678e-06	-8.288901e-09	-2.517251e+01	-5.464390e+02
1.310000e-06	-3.417314e-06	-8.222403e-09	-2.473558e+01	-5.421018e+02
1.320000e-06	-3.356695e-06	-8.155341e-09	-2.429680e+01	-5.377013e+02
1.330000e-06	-3.295788e-06	-8.086606e-09	-2.385594e+01	-5.332339e+02
1.340000e-06	-3.234566e-06	-8.017431e-09	-2.341279e+01	-5.286956e+02
1.350000e-06	-3.173037e-06	-7.944240e-09	-2.296742e+01	-5.240819e+02
1.360000e-06	-3.111285e-06	-7.868687e-09	-2.252044e+01	-5.193889e+02
1.370000e-06	-3.049354e-06	-7.791658e-09	-2.207217e+01	-5.146130e+02
1.380000e-06	-2.987211e-06	-7.715224e-09	-2.162236e+01	-5.097518e+02
1.390000e-06	-2.924873e-06	-7.639424e-09	-2.117113e+01	-5.048034e+02
1.400000e-06	-2.862353e-06	-7.561600e-09	-2.071860e+01	-4.997671e+02
1.410000e-06	-2.799647e-06	-7.485305e-09	-2.026471e+01	-4.946427e+02
1.420000e-06	-2.736766e-06	-7.406404e-09	-1.980956e+01	-4.894303e+02
1.430000e-06	-2.673677e-06	-7.325789e-09	-1.935290e+01	-4.841300e+02
1.440000e-06	-2.610364e-06	-7.242403e-09	-1.889463e+01	-4.787419e+02
1.450000e-06	-2.546851e-06	-7.155432e-09	-1.843490e+01	-4.732651e+02
1.460000e-06	-2.483170e-06	-7.067168e-09	-1.797395e+01	-4.676985e+02
1.470000e-06	-2.419328e-06	-6.979732e-09	-1.751185e+01	-4.620400e+02
1.480000e-06	-2.355311e-06	-6.894453e-09	-1.704847e+01	-4.562873e+02
1.490000e-06	-2.291059e-06	-6.808328e-09	-1.658340e+01	-4.504376e+02
1.500000e-06	-2.226605e-06	-6.719079e-09	-1.611686e+01	-4.444881e+02
1.510000e-06	-2.161992e-06	-6.626973e-09	-1.564916e+01	-4.384361e+02
1.520000e-06	-2.097230e-06	-6.529429e-09	-1.518040e+01	-4.322791e+02
1.530000e-06	-2.032361e-06	-6.427126e-09	-1.471086e+01	-4.260151e+02
1.540000e-06	-1.967398e-06	-6.325484e-09	-1.424064e+01	-4.196424e+02
1.550000e-06	-1.902317e-06	-6.227076e-09	-1.376956e+01	-4.131592e+02
1.560000e-06	-1.837117e-06	-6.130069e-09	-1.329762e+01	-4.065641e+02
1.570000e-06	-1.771781e-06	-6.032608e-09	-1.282470e+01	-3.998547e+02
1.580000e-06	-1.706293e-06	-5.933960e-09	-1.235067e+01	-3.930287e+02
1.590000e-06	-1.640688e-06	-5.832015e-09	-1.187581e+01	-3.860825e+02
1.600000e-06	-1.574951e-06	-5.723368e-09	-1.139998e+01	-3.790120e+02
1.610000e-06	-1.509112e-06	-5.603762e-09	-1.092342e+01	-3.718123e+02
1.620000e-06	-1.443162e-06	-5.481210e-09	-1.044605e+01	-3.644777e+02
1.630000e-06	-1.377077e-06	-5.358745e-09	-9.967707e+00	-3.570027e+02
1.640000e-06	-1.310952e-06	-5.241748e-09	-9.489073e+00	-3.493816e+02
1.650000e-06	-1.244776e-06	-5.127612e-09	-9.010071e+00	-3.416092e+02
1.660000e-06	-1.178501e-06	-5.011554e-09	-8.530356e+00	-3.336814e+02
1.670000e-06	-1.112132e-06	-4.890904e-09	-8.049956e+00	-3.255949e+02
1.680000e-06	-1.045673e-06	-4.762308e-09	-7.568904e+00	-3.173474e+02
1.690000e-06	-9.791798e-07	-4.630657e-09	-7.087607e+00	-3.089379e+02
1.700000e-06	-9.126323e-07	-4.496677e-09	-6.605915e+00	-3.003658e+02
1.710000e-06	-8.459791e-07	-4.359172e-09	-6.123458e+00	-2.916311e+02
1.720000e-06	-7.792406e-07	-4.220538e-09	-5.640385e+00	-2.827332e+02
1.730000e-06	-7.124520e-07	-4.082550e-09	-5.156948e+00	-2.736713e+02
1.740000e-06	-6.456042e-07	-3.941789e-09	-4.673083e+00	-2.644434e+02
1.750000e-06	-5.787123e-07	-3.799044e-09	-4.188899e+00	-2.550459e+02
1.760000e-06	-5.117827e-07	-3.653018e-09	-3.704441e+00	-2.454740e+02
1.770000e-06	-4.448233e-07	-3.503020e-09	-3.219769e+00	-2.357215e+02
1.780000e-06	-3.778746e-07	-3.350362e-09	-2.735173e+00	-2.257807e+02
1.790000e-06	-3.109102e-07	-3.195575e-09	-2.250464e+00	-2.156433e+02
1.800000e-06	-2.439476e-07	-3.036481e-09	-1.765769e+00	-2.053008e+02
1.810000e-06	-1.770188e-07	-2.873422e-09	-1.281317e+00	-1.947446e+02
1.820000e-06	-1.101013e-07	-2.706693e-09	-7.969472e-01	-1.839669e+02
1.830000e-06	-4.314314e-08	-2.535213e-09	-3.122834e-01	-1.729611e+02
1.840000e-06	2.386136e-08	-2.361656e-09	1.727159e-01	-1.617214e+02
1.850000e-06	9.086345e-08	-2.187972e-09	6.576978e-01	-1.502439e+02
1.860000e-06	1.578835e-07	-2.010154e-09	1.142809e+00	-1.385256e+02
1.870000e-06	2.249353e-07	-1.829175e-09	1.628151e+00	-1.265649e+02
1.880000e-06	2.919674e-07	-1.645425e-09	2.113350e+00	-1.143607e+02
1.890000e-06	3.589386e-07	-1.459650e-09	2.598109e+00	-1.019130e+02
1.900000e-06	4.259137e-07	-1.268777e-09	3.082895e+00	-8.922195e+01
1.910000e-06	4.928420e-07	-1.068898e-09	3.567343e+00	-7.628800e+01
1.920000e-06	5.596732e-07	-8.660225e-10	4.051088e+00	-6.311215e+01
1.930000e-06	6.264565e-07	-6.612157e-10	4.534486e+00	-4.969604e+01
1.940000e-06	6.931934e-07	-4.583769e-10	5.017548e+00	-3.604233e+01
1.950000e-06	7.598967e-07	-2.528226e-10	5.500367e+00	-2.215523e+01
1.960000e-06	8.265770e-07	-4.173852e-11	5.983020e+00	-8.041079e+00
1.970000e-06	8.932023e-07	1.741252e-10	6.465275e+00	6.291113e+00
1.980000e-06	9.597655e-07	3.948991e-10	6.947080e+00	2.082915e+01
1.990000e-06	1.026307e-06	6.209700e-10	7.428728e+00	3.555728e+01
2.000000e-06	1.092772e-06	8.545104e-10	7.909820e+00	5.045601e+01
2.010000e-06	1.159146e-06	1.088586e-09	8.390258e+00	6.550210e+01
2.020000e-06	1.225429e-06	1.317744e-09	8.870037e+00	8.066878e+01
2.030000e-06	1.291589e-06	1.543992e-09	9.348923e+00	9.592619e+01
2.040000e-06	1.357660e-06	1.773483e-09	9.827164e+00	1.112419e+02
2.050000e-06	1.423616e-06	2.004708e-09	1.030457e+01	1.265817e+02
2.060000e-06	1.489470e-06	2.235888e-09	1.078125e+01	1.419103e+02
2.070000e-06	1.555203e-06	2.469483e-09	1.125704e+01	1.571918e+02
2.080000e-06	1.620807e-06	2.706230e-09	1.173190e+01	1.723911e+02
2.090000e-06	1.686315e-06	2.941532e-09	1.220607e+01	1.874737e+02
2.100000e-06	1.751687e-06	3.170455e-09	1.267925e+01	2.024071e+02
2.110000e-06	1.816908e-06	3.393640e-09	1.315134e+01	2.171603e+02
2.120000e-06	1.881992e-06	3.610123e-09	1.362244e+01	2.317050e+02
2.130000e-06	1.947001e-06	3.822864e-09	1.409300e+01	2.460155e+02
2.140000e-06	2.011942e-06	4.034125e-09	1.456306e+01	2.600687e+02
2.150000e-06	2.076771e-06	4.240137e-09	1.503231e+01	2.738443e+02
2.160000e-06	2.141430e-06	4.440928e-09	1.550033e+01	2.873253e+02
2.170000e-06	2.205917e-06	4.638238e-09	1.596711e+01	3.004972e+02
2.180000e-06	2.270211e-06	4.833520e-09	1.643249e+01	3.133487e+02
2.190000e-06	2.334295e-06	5.024072e-09	1.689635e+01	3.258714e+02
2.200000e-06	2.398134e-06	5.207437e-09	1.735844e+01	3.380595e+02
2.210000e-06	2.461743e-06	5.383871e-09	1.781886e+01	3.499097e+02
2.220000e-06	2.525235e-06	5.555037e-09	1.827843e+01	3.614215e+02
2.230000e-06	2.588605e-06	5.722116e-09	1.873712e+01	3.725961e+02
2.240000e-06	2.651804e-06	5.883524e-09	1.919458e+01	3.834367e+02
2.250000e-06	2.714854e-06	6.042691e-09	1.965095e+01	3.939481e+02
2.260000e-06	2.777763e-06	6.199904e-09	2.010631e+01	4.041361e+02
2.270000e-06	2.840453e-06	6.352434e-09	2.056008e+01	4.140074e+02
2.280000e-06	2.902920e-06	6.499285e-09	2.101224e+01	4.235692e+02
2.290000e-06	2.965179e-06	6.638648e-09	2.146288e+01	4.328290e+02
2.300000e-06	3.027203e-06	6.772342e-09	2.191184e+01	4.417944e+02
2.310000e-06	3.089008e-06	6.901479e-09	2.235920e+01	4.504729e+02
2.320000e-06	3.150589e-06	7.025137e-09	2.280494e+01	4.588722e+02
2.330000e-06	3.211927e-06	7.142300e-09	2.324892e+01	4.669996e+02
2.340000e-06	3.272986e-06	7.255329e-09	2.369088e+01	4.748626e+02
2.350000e-06	3.333713e-06	7.367210e-09	2.413044e+01	4.824687e+02
2.360000e-06	3.394168e-06	7.475786e-09	2.456804e+01	4.898260e+02
2.370000e-06	3.454405e-06	7.580927e-09	2.500405e+01	4.969423e+02
2.380000e-06	3.514410e-06	7.683871e-09	2.543839e+01	5.038264e+02
2.390000e-06	3.574215e-06	7.785014e-09	2.587127e+01	5.104872e+02
2.400000e-06	3.633832e-06	7.882635e-09	2.630280e+01	5.169341e+02
2.410000e-06	3.693213e-06	7.974763e-09	2.673262e+01	5.231767e+02
2.420000e-06	3.752281e-06	8.064187e-09	2.716017e+01	5.292252e+02
2.430000e-06	3.811062e-06	8.153720e-09	2.758565e+01	5.350895e+02
2.440000e-06	3.869624e-06	8.238910e-09	2.800954e+01	5.407794e+02
2.450000e-06	3.927941e-06	8.323994e-09	2.843165e+01	5.463047e+02
2.460000e-06	3.985941e-06	8.407327e-09	2.885148e+01	5.516744e+02
2.470000e-06	4.043584e-06	8.491375e-09	2.926871e+01	5.568968e+02
2.480000e-06	4.100961e-06	8.572714e-09	2.968403e+01	5.619795e+02
2.490000e-06	4.158064e-06	8.644783e-09	3.009735e+01	5.669291e+02
2.500000e-06	4.214827e-06	8.716356e-09	3.050823e+01	5.717512e+02
2.510000e-06	4.271273e-06	8.782817e-09	3.091680e+01	5.764507e+02
2.520000e-06	4.327357e-06	8.849937e-09	3.132275e+01	5.810315e+02
2.530000e-06	4.383113e-06	8.917436e-09	3.172633e+01	5.854970e+02
2.540000e-06	4.438573e-06	8.983671e-09	3.212777e+01	5.898501e+02
2.550000e-06	4.493730e-06	9.050312e-09	3.252701e+01	5.940936e+02
2.560000e-06	4.548516e-06	9.116503e-09	3.292357e+01	5.982302e+02
2.570000e-06	4.602903e-06	9.179486e-09	3.331723e+01	6.022631e+02
2.580000e-06	4.656927e-06	9.235411e-09	3.370828e+01	6.061958e+02
2.590000e-06	4.710621e-06	9.287125e-09	3.409693e+01	6.100325e+02
2.600000e-06	4.763997e-06	9.340478e-09	3.448328e+01	6.137776e+02
2.610000e-06	4.817013e-06	9.393564e-09	3.486703e+01	6.174363e+02
2.620000e-06	4.869668e-06	9.442696e-09	3.524817e+01	6.210140e+02
2.630000e-06	4.922004e-06	9.489904e-09	3.562699e+01	6.245161e+02
2.640000e-06	4.974073e-06	9.538238e-09	3.600388e+01	6.279478e+02
2.650000e-06	5.025824e-06	9.590710e-09	3.637847e+01	6.313138e+02
2.660000e-06	5.077119e-06	9.642832e-09	3.674976e+01	6.346181e+02
2.670000e-06	5.128012e-06	9.691702e-09	3.711814e+01	6.378635e+02
2.680000e-06	5.178590e-06	9.736741e-09	3.748424e+01	6.410517e+02
2.690000e-06	5.228870e-06	9.782501e-09	3.784818e+01	6.441835e+02
2.700000e-06	5.278804e-06	9.826829e-09	3.820962e+01	6.472583e+02
2.710000e-06	5.328331e-06	9.869024e-09	3.856811e+01	6.502750e+02
2.720000e-06	5.377486e-06	9.911457e-09	3.892391e+01	6.532317e+02
2.730000e-06	5.426253e-06	9.955137e-09	3.927690e+01	6.561265e+02
2.740000e-06	5.474576e-06	9.997013e-09	3.962668e+01	6.589577e+02
2.750000e-06	5.522445e-06	1.003513e-08	3.997317e+01	6.617241e+02
2.760000e-06	5.569916e-06	1.007242e-08	4.031678e+01	6.644252e+02
2.770000e-06	5.617040e-06	1.011064e-08	4.065788e+01	6.670617e+02
2.780000e-06	5.663751e-06	1.014847e-08	4.099598e+01	6.696349e+02
2.790000e-06	5.710016e-06	1.018431e-08	4.133086e+01	6.721473e+02
2.800000e-06	5.755869e-06	1.021860e-08	4.166276e+01	6.746020e+02
2.810000e-06	5.801260e-06	1.025331e-08	4.199132e+01	6.770025e+02
2.820000e-06	5.846146e-06	1.028817e-08	4.231622e+01	6.793524e+02
2.830000e-06	5.890594e-06	1.031903e-08	4.263794e+01	6.816551e+02
2.840000e-06	5.934678e-06	1.034745e-08	4.295704e+01	6.839134e+02
2.850000e-06	5.978378e-06	1.037727e-08	4.327335e+01	6.861294e+02
2.860000e-06	6.021653e-06	1.040953e-08	4.358659e+01	6.883046e+02
2.870000e-06	6.064497e-06	1.044071e-08	4.389671e+01	6.904394e+02
2.880000e-06	6.106912e-06	1.047163e-08	4.420372e+01	6.925338e+02
2.890000e-06	6.148845e-06	1.050545e-08	4.450724e+01	6.945872e+02
2.900000e-06	6.190287e-06	1.053910e-08	4.480721e+01	6.965986e+02
