# Temperatura_=_20.0
# Concentracion g/m^3_=_10000.0
# C_Vs_to_Am_M_A/Vsm_=_65563218390.804596
# pendiente_HvsI_1/m_=_3716.3
# ordenada_HvsI_A/m_=_1297.0
# frecuencia_Hz_=_135406.15095517333

Tiempo_(s)	Campo_(V.s)	Magnetizacion_(V.s)	Campo_(kA/m)	Magnetizacion_(A/m)
0.000000e+00	-7.823682e-06	-1.155040e-08	-5.696870e+01	-7.524977e+02
1.000000e-08	-7.823340e-06	-1.154716e-08	-5.696620e+01	-7.524757e+02
2.000000e-08	-7.822375e-06	-1.154607e-08	-5.695918e+01	-7.524487e+02
3.000000e-08	-7.820833e-06	-1.155025e-08	-5.694795e+01	-7.524175e+02
4.000000e-08	-7.818913e-06	-1.155624e-08	-5.693397e+01	-7.523799e+02
5.000000e-08	-7.816535e-06	-1.155765e-08	-5.691666e+01	-7.523311e+02
6.000000e-08	-7.813609e-06	-1.155698e-08	-5.689535e+01	-7.522640e+02
7.000000e-08	-7.810218e-06	-1.154524e-08	-5.687066e+01	-7.521700e+02
8.000000e-08	-7.806275e-06	-1.151566e-08	-5.684194e+01	-7.520403e+02
9.000000e-08	-7.801503e-06	-1.151371e-08	-5.680720e+01	-7.518676e+02
1.000000e-07	-7.795579e-06	-1.156687e-08	-5.676406e+01	-7.516466e+02
1.100000e-07	-7.788350e-06	-1.156866e-08	-5.671143e+01	-7.513757e+02
1.200000e-07	-7.780374e-06	-1.150567e-08	-5.665335e+01	-7.510576e+02
1.300000e-07	-7.772356e-06	-1.140407e-08	-5.659497e+01	-7.506988e+02
1.400000e-07	-7.764405e-06	-1.155422e-08	-5.653707e+01	-7.503098e+02
1.500000e-07	-7.755805e-06	-1.166465e-08	-5.647445e+01	-7.499036e+02
1.600000e-07	-7.746488e-06	-1.136808e-08	-5.640661e+01	-7.494946e+02
1.700000e-07	-7.737129e-06	-1.141946e-08	-5.633845e+01	-7.490969e+02
1.800000e-07	-7.727269e-06	-1.164475e-08	-5.626666e+01	-7.487223e+02
1.900000e-07	-7.716475e-06	-1.144078e-08	-5.618806e+01	-7.483796e+02
2.000000e-07	-7.705351e-06	-1.137909e-08	-5.610706e+01	-7.480725e+02
2.100000e-07	-7.693929e-06	-1.158124e-08	-5.602389e+01	-7.478000e+02
2.200000e-07	-7.681689e-06	-1.149987e-08	-5.593477e+01	-7.475560e+02
2.300000e-07	-7.668948e-06	-1.132804e-08	-5.584199e+01	-7.473301e+02
2.400000e-07	-7.655885e-06	-1.153406e-08	-5.574687e+01	-7.471089e+02
2.500000e-07	-7.642015e-06	-1.152216e-08	-5.564588e+01	-7.468771e+02
2.600000e-07	-7.627477e-06	-1.130526e-08	-5.554002e+01	-7.466199e+02
2.700000e-07	-7.612489e-06	-1.142270e-08	-5.543088e+01	-7.463240e+02
2.800000e-07	-7.596840e-06	-1.147066e-08	-5.531693e+01	-7.459793e+02
2.900000e-07	-7.580734e-06	-1.133534e-08	-5.519965e+01	-7.455796e+02
3.000000e-07	-7.564235e-06	-1.140861e-08	-5.507951e+01	-7.451229e+02
3.100000e-07	-7.546937e-06	-1.139437e-08	-5.495356e+01	-7.446114e+02
3.200000e-07	-7.529093e-06	-1.132162e-08	-5.482363e+01	-7.440505e+02
3.300000e-07	-7.510931e-06	-1.142678e-08	-5.469138e+01	-7.434478e+02
3.400000e-07	-7.492158e-06	-1.137782e-08	-5.455469e+01	-7.428122e+02
3.500000e-07	-7.472820e-06	-1.129447e-08	-5.441387e+01	-7.421518e+02
3.600000e-07	-7.452980e-06	-1.135789e-08	-5.426941e+01	-7.414733e+02
3.700000e-07	-7.432366e-06	-1.134870e-08	-5.411930e+01	-7.407810e+02
3.800000e-07	-7.411043e-06	-1.128509e-08	-5.396404e+01	-7.400765e+02
3.900000e-07	-7.389166e-06	-1.131850e-08	-5.380474e+01	-7.393586e+02
4.000000e-07	-7.366714e-06	-1.125875e-08	-5.364125e+01	-7.386237e+02
4.100000e-07	-7.343724e-06	-1.124341e-08	-5.347385e+01	-7.378668e+02
4.200000e-07	-7.320084e-06	-1.128041e-08	-5.330172e+01	-7.370822e+02
4.300000e-07	-7.295906e-06	-1.123752e-08	-5.312566e+01	-7.362648e+02
4.400000e-07	-7.271329e-06	-1.118996e-08	-5.294670e+01	-7.354105e+02
4.500000e-07	-7.246305e-06	-1.121340e-08	-5.276448e+01	-7.345174e+02
4.600000e-07	-7.220832e-06	-1.119984e-08	-5.257900e+01	-7.335855e+02
4.700000e-07	-7.194882e-06	-1.117188e-08	-5.239004e+01	-7.326170e+02
4.800000e-07	-7.168327e-06	-1.115251e-08	-5.219668e+01	-7.316158e+02
4.900000e-07	-7.141163e-06	-1.112917e-08	-5.199889e+01	-7.305870e+02
5.000000e-07	-7.113503e-06	-1.111913e-08	-5.179748e+01	-7.295359e+02
5.100000e-07	-7.085388e-06	-1.112348e-08	-5.159276e+01	-7.284672e+02
5.200000e-07	-7.056797e-06	-1.109710e-08	-5.138457e+01	-7.273846e+02
5.300000e-07	-7.027678e-06	-1.105612e-08	-5.117254e+01	-7.262903e+02
5.400000e-07	-6.997954e-06	-1.105809e-08	-5.095610e+01	-7.251844e+02
5.500000e-07	-6.967588e-06	-1.104803e-08	-5.073499e+01	-7.240654e+02
5.600000e-07	-6.936604e-06	-1.101725e-08	-5.050937e+01	-7.229306e+02
5.700000e-07	-6.905082e-06	-1.098525e-08	-5.027985e+01	-7.217762e+02
5.800000e-07	-6.873032e-06	-1.096449e-08	-5.004647e+01	-7.205982e+02
5.900000e-07	-6.840464e-06	-1.095688e-08	-4.980933e+01	-7.193927e+02
6.000000e-07	-6.807479e-06	-1.094175e-08	-4.956914e+01	-7.181570e+02
6.100000e-07	-6.774069e-06	-1.090172e-08	-4.932586e+01	-7.168893e+02
6.200000e-07	-6.740253e-06	-1.088429e-08	-4.907963e+01	-7.155889e+02
6.300000e-07	-6.706033e-06	-1.087494e-08	-4.883045e+01	-7.142566e+02
6.400000e-07	-6.671354e-06	-1.085845e-08	-4.857794e+01	-7.128937e+02
6.500000e-07	-6.636175e-06	-1.082730e-08	-4.832178e+01	-7.115023e+02
6.600000e-07	-6.600521e-06	-1.079841e-08	-4.806216e+01	-7.100843e+02
6.700000e-07	-6.564352e-06	-1.077857e-08	-4.779880e+01	-7.086415e+02
6.800000e-07	-6.527609e-06	-1.076483e-08	-4.753125e+01	-7.071749e+02
6.900000e-07	-6.490408e-06	-1.074297e-08	-4.726036e+01	-7.056847e+02
7.000000e-07	-6.452789e-06	-1.070831e-08	-4.698644e+01	-7.041704e+02
7.100000e-07	-6.414761e-06	-1.068274e-08	-4.670954e+01	-7.026308e+02
7.200000e-07	-6.376329e-06	-1.066982e-08	-4.642969e+01	-7.010643e+02
7.300000e-07	-6.337479e-06	-1.064574e-08	-4.614680e+01	-6.994691e+02
7.400000e-07	-6.298146e-06	-1.061223e-08	-4.586040e+01	-6.978438e+02
7.500000e-07	-6.258315e-06	-1.058378e-08	-4.557037e+01	-6.961871e+02
7.600000e-07	-6.218016e-06	-1.056408e-08	-4.527693e+01	-6.944985e+02
7.700000e-07	-6.177268e-06	-1.054523e-08	-4.498022e+01	-6.927778e+02
7.800000e-07	-6.136094e-06	-1.051567e-08	-4.468040e+01	-6.910255e+02
7.900000e-07	-6.094455e-06	-1.048602e-08	-4.437721e+01	-6.892420e+02
8.000000e-07	-6.052372e-06	-1.046155e-08	-4.407077e+01	-6.874279e+02
8.100000e-07	-6.009809e-06	-1.044115e-08	-4.376085e+01	-6.855833e+02
8.200000e-07	-5.966730e-06	-1.041162e-08	-4.344717e+01	-6.837079e+02
8.300000e-07	-5.923208e-06	-1.037539e-08	-4.313026e+01	-6.818008e+02
8.400000e-07	-5.879326e-06	-1.034472e-08	-4.281073e+01	-6.798605e+02
8.500000e-07	-5.835092e-06	-1.031998e-08	-4.248864e+01	-6.778851e+02
8.600000e-07	-5.790461e-06	-1.029079e-08	-4.216366e+01	-6.758723e+02
8.700000e-07	-5.745448e-06	-1.025416e-08	-4.183589e+01	-6.738201e+02
8.800000e-07	-5.700061e-06	-1.021600e-08	-4.150540e+01	-6.717267e+02
8.900000e-07	-5.654207e-06	-1.018540e-08	-4.117151e+01	-6.695908e+02
9.000000e-07	-5.607790e-06	-1.015329e-08	-4.083352e+01	-6.674122e+02
9.100000e-07	-5.560907e-06	-1.011649e-08	-4.049214e+01	-6.651913e+02
9.200000e-07	-5.513643e-06	-1.007830e-08	-4.014798e+01	-6.629291e+02
9.300000e-07	-5.465898e-06	-1.004448e-08	-3.980033e+01	-6.606273e+02
9.400000e-07	-5.417698e-06	-1.001439e-08	-3.944936e+01	-6.582881e+02
9.500000e-07	-5.369195e-06	-9.980400e-09	-3.909618e+01	-6.559131e+02
9.600000e-07	-5.320369e-06	-9.938703e-09	-3.874064e+01	-6.535039e+02
9.700000e-07	-5.271095e-06	-9.898954e-09	-3.838185e+01	-6.510614e+02
9.800000e-07	-5.221383e-06	-9.867307e-09	-3.801987e+01	-6.485856e+02
9.900000e-07	-5.171329e-06	-9.830356e-09	-3.765540e+01	-6.460756e+02
1.000000e-06	-5.120980e-06	-9.783301e-09	-3.728878e+01	-6.435298e+02
1.010000e-06	-5.070339e-06	-9.736091e-09	-3.692003e+01	-6.409458e+02
1.020000e-06	-5.019332e-06	-9.699597e-09	-3.654862e+01	-6.383207e+02
1.030000e-06	-4.967960e-06	-9.666236e-09	-3.617455e+01	-6.356517e+02
1.040000e-06	-4.916299e-06	-9.621795e-09	-3.579838e+01	-6.329357e+02
1.050000e-06	-4.864228e-06	-9.573438e-09	-3.541922e+01	-6.301702e+02
1.060000e-06	-4.811673e-06	-9.528925e-09	-3.503654e+01	-6.273529e+02
1.070000e-06	-4.758745e-06	-9.486069e-09	-3.465114e+01	-6.244821e+02
1.080000e-06	-4.705535e-06	-9.438356e-09	-3.426369e+01	-6.215564e+02
1.090000e-06	-4.652043e-06	-9.386820e-09	-3.387418e+01	-6.185749e+02
1.100000e-06	-4.598211e-06	-9.340972e-09	-3.348220e+01	-6.155369e+02
1.110000e-06	-4.544009e-06	-9.301652e-09	-3.308752e+01	-6.124417e+02
1.120000e-06	-4.489466e-06	-9.261183e-09	-3.269036e+01	-6.092886e+02
1.130000e-06	-4.434653e-06	-9.210682e-09	-3.229124e+01	-6.060770e+02
1.140000e-06	-4.379585e-06	-9.156094e-09	-3.189026e+01	-6.028062e+02
1.150000e-06	-4.324183e-06	-9.105612e-09	-3.148685e+01	-5.994755e+02
1.160000e-06	-4.268371e-06	-9.052970e-09	-3.108045e+01	-5.960844e+02
1.170000e-06	-4.212137e-06	-8.993817e-09	-3.067097e+01	-5.926326e+02
1.180000e-06	-4.155542e-06	-8.933398e-09	-3.025888e+01	-5.891201e+02
1.190000e-06	-4.098601e-06	-8.875201e-09	-2.984425e+01	-5.855475e+02
1.200000e-06	-4.041305e-06	-8.822122e-09	-2.942705e+01	-5.819156e+02
1.210000e-06	-3.983704e-06	-8.770515e-09	-2.900762e+01	-5.782256e+02
1.220000e-06	-3.925807e-06	-8.715030e-09	-2.858605e+01	-5.744788e+02
1.230000e-06	-3.867638e-06	-8.658770e-09	-2.816248e+01	-5.706763e+02
1.240000e-06	-3.809231e-06	-8.604210e-09	-2.773718e+01	-5.668191e+02
1.250000e-06	-3.750583e-06	-8.544698e-09	-2.731013e+01	-5.629077e+02
1.260000e-06	-3.691719e-06	-8.479069e-09	-2.688151e+01	-5.589417e+02
1.270000e-06	-3.632598e-06	-8.411296e-09	-2.645102e+01	-5.549201e+02
1.280000e-06	-3.573241e-06	-8.346118e-09	-2.601881e+01	-5.508411e+02
1.290000e-06	-3.513703e-06	-8.283901e-09	-2.558528e+01	-5.467022e+02
1.300000e-06	-3.453927e-06	-8.222810e-09	-2.515001e+01	-5.425005e+02
1.310000e-06	-3.393909e-06	-8.162242e-09	-2.471299e+01	-5.382327e+02
1.320000e-06	-3.333579e-06	-8.098508e-09	-2.427370e+01	-5.338956e+02
1.330000e-06	-3.272923e-06	-8.035693e-09	-2.383202e+01	-5.294863e+02
1.340000e-06	-3.212018e-06	-7.965880e-09	-2.338854e+01	-5.250024e+02
1.350000e-06	-3.150899e-06	-7.887779e-09	-2.294350e+01	-5.204419e+02
1.360000e-06	-3.089633e-06	-7.807439e-09	-2.249738e+01	-5.158034e+02
1.370000e-06	-3.028184e-06	-7.726202e-09	-2.204994e+01	-5.110861e+02
1.380000e-06	-2.966497e-06	-7.651667e-09	-2.160076e+01	-5.062896e+02
1.390000e-06	-2.904573e-06	-7.580540e-09	-2.114985e+01	-5.014136e+02
1.400000e-06	-2.842385e-06	-7.512286e-09	-2.069703e+01	-4.964578e+02
1.410000e-06	-2.779946e-06	-7.444063e-09	-2.024237e+01	-4.914216e+02
1.420000e-06	-2.717327e-06	-7.371691e-09	-1.978641e+01	-4.863043e+02
1.430000e-06	-2.654567e-06	-7.295175e-09	-1.932942e+01	-4.811044e+02
1.440000e-06	-2.591673e-06	-7.211798e-09	-1.887145e+01	-4.758202e+02
1.450000e-06	-2.528574e-06	-7.123458e-09	-1.841199e+01	-4.704496e+02
1.460000e-06	-2.465208e-06	-7.036035e-09	-1.795059e+01	-4.649903e+02
1.470000e-06	-2.401607e-06	-6.947736e-09	-1.748747e+01	-4.594396e+02
1.480000e-06	-2.337845e-06	-6.859055e-09	-1.702318e+01	-4.537950e+02
1.490000e-06	-2.273986e-06	-6.774509e-09	-1.655819e+01	-4.480539e+02
1.500000e-06	-2.209987e-06	-6.693017e-09	-1.609218e+01	-4.422139e+02
1.510000e-06	-2.145819e-06	-6.607468e-09	-1.562494e+01	-4.362726e+02
1.520000e-06	-2.081525e-06	-6.516821e-09	-1.515677e+01	-4.302278e+02
1.530000e-06	-2.017153e-06	-6.423572e-09	-1.468804e+01	-4.240769e+02
1.540000e-06	-1.952685e-06	-6.329238e-09	-1.421861e+01	-4.178172e+02
1.550000e-06	-1.888110e-06	-6.232327e-09	-1.374841e+01	-4.114460e+02
1.560000e-06	-1.823424e-06	-6.128131e-09	-1.327739e+01	-4.049599e+02
1.570000e-06	-1.758557e-06	-6.022384e-09	-1.280506e+01	-3.983552e+02
1.580000e-06	-1.693496e-06	-5.917215e-09	-1.233131e+01	-3.916282e+02
1.590000e-06	-1.628254e-06	-5.815954e-09	-1.185625e+01	-3.847746e+02
1.600000e-06	-1.562837e-06	-5.713739e-09	-1.137991e+01	-3.777905e+02
1.610000e-06	-1.497265e-06	-5.603761e-09	-1.090244e+01	-3.706720e+02
1.620000e-06	-1.431604e-06	-5.488791e-09	-1.042432e+01	-3.634154e+02
1.630000e-06	-1.365879e-06	-5.373659e-09	-9.945746e+00	-3.560178e+02
1.640000e-06	-1.300094e-06	-5.258435e-09	-9.466730e+00	-3.484765e+02
1.650000e-06	-1.234263e-06	-5.136984e-09	-8.987377e+00	-3.407893e+02
1.660000e-06	-1.168372e-06	-5.010170e-09	-8.507580e+00	-3.329546e+02
1.670000e-06	-1.102433e-06	-4.880614e-09	-8.027445e+00	-3.249707e+02
1.680000e-06	-1.036446e-06	-4.752236e-09	-7.546959e+00	-3.168361e+02
1.690000e-06	-9.703836e-07	-4.623330e-09	-7.065918e+00	-3.085489e+02
1.700000e-06	-9.042315e-07	-4.493843e-09	-6.584226e+00	-3.001071e+02
1.710000e-06	-8.379968e-07	-4.364101e-09	-6.101934e+00	-2.915077e+02
1.720000e-06	-7.717195e-07	-4.233643e-09	-5.619331e+00	-2.827475e+02
1.730000e-06	-7.053434e-07	-4.100111e-09	-5.136008e+00	-2.738225e+02
1.740000e-06	-6.388663e-07	-3.959146e-09	-4.651950e+00	-2.647282e+02
1.750000e-06	-5.723445e-07	-3.809796e-09	-4.167567e+00	-2.554599e+02
1.760000e-06	-5.057518e-07	-3.655759e-09	-3.682668e+00	-2.460124e+02
1.770000e-06	-4.391246e-07	-3.502471e-09	-3.197517e+00	-2.363808e+02
1.780000e-06	-3.724733e-07	-3.351355e-09	-2.712191e+00	-2.265602e+02
1.790000e-06	-3.058292e-07	-3.199789e-09	-2.226917e+00	-2.165457e+02
1.800000e-06	-2.391736e-07	-3.044691e-09	-1.741560e+00	-2.063331e+02
1.810000e-06	-1.725039e-07	-2.886141e-09	-1.256099e+00	-1.959178e+02
1.820000e-06	-1.058743e-07	-2.722342e-09	-7.709310e-01	-1.852959e+02
1.830000e-06	-3.922688e-08	-2.552770e-09	-2.856333e-01	-1.744630e+02
1.840000e-06	2.746811e-08	-2.379505e-09	2.000110e-01	-1.634149e+02
1.850000e-06	9.415014e-08	-2.206195e-09	6.855609e-01	-1.521471e+02
1.860000e-06	1.608232e-07	-2.031196e-09	1.171046e+00	-1.406550e+02
1.870000e-06	2.275332e-07	-1.853684e-09	1.656799e+00	-1.289339e+02
1.880000e-06	2.942275e-07	-1.671337e-09	2.142439e+00	-1.169792e+02
1.890000e-06	3.609081e-07	-1.486323e-09	2.627978e+00	-1.047868e+02
1.900000e-06	4.275914e-07	-1.298020e-09	3.113537e+00	-9.235322e+01
1.910000e-06	4.942475e-07	-1.103801e-09	3.598898e+00	-7.967600e+01
1.920000e-06	5.608161e-07	-9.069759e-10	4.083622e+00	-6.675418e+01
1.930000e-06	6.272615e-07	-7.065014e-10	4.567449e+00	-5.358855e+01
1.940000e-06	6.936596e-07	-5.067439e-10	5.050932e+00	-4.018196e+01
1.950000e-06	7.600218e-07	-3.047729e-10	5.534153e+00	-2.653949e+01
1.960000e-06	8.262784e-07	-9.611953e-11	6.016605e+00	-1.266868e+01
1.970000e-06	8.924614e-07	1.203039e-10	6.498521e+00	1.420418e+00
1.980000e-06	9.586115e-07	3.399688e-10	6.980198e+00	1.571517e+01
1.990000e-06	1.024706e-06	5.620285e-10	7.461467e+00	3.020032e+01
2.000000e-06	1.090729e-06	7.885399e-10	7.942218e+00	4.485795e+01
2.010000e-06	1.156698e-06	1.016077e-09	8.422576e+00	5.966748e+01
2.020000e-06	1.222622e-06	1.239687e-09	8.902607e+00	7.460567e+01
2.030000e-06	1.288435e-06	1.458645e-09	9.381831e+00	8.964657e+01
2.040000e-06	1.354133e-06	1.681719e-09	9.860215e+00	1.047617e+02
2.050000e-06	1.419771e-06	1.907793e-09	1.033816e+01	1.199200e+02
2.060000e-06	1.485336e-06	2.135818e-09	1.081558e+01	1.350883e+02
2.070000e-06	1.550759e-06	2.366051e-09	1.129196e+01	1.502318e+02
2.080000e-06	1.615966e-06	2.598058e-09	1.176677e+01	1.653142e+02
2.090000e-06	1.681004e-06	2.829689e-09	1.224035e+01	1.802990e+02
2.100000e-06	1.745935e-06	3.056862e-09	1.271315e+01	1.951498e+02
2.110000e-06	1.810758e-06	3.276346e-09	1.318516e+01	2.098317e+02
2.120000e-06	1.875446e-06	3.489892e-09	1.365620e+01	2.243119e+02
2.130000e-06	1.940003e-06	3.700854e-09	1.412627e+01	2.385606e+02
2.140000e-06	2.004457e-06	3.910739e-09	1.459560e+01	2.525519e+02
2.150000e-06	2.068802e-06	4.116202e-09	1.506413e+01	2.662641e+02
2.160000e-06	2.133045e-06	4.316978e-09	1.553192e+01	2.796800e+02
2.170000e-06	2.197140e-06	4.514765e-09	1.599863e+01	2.927871e+02
2.180000e-06	2.261052e-06	4.708397e-09	1.646401e+01	3.055768e+02
2.190000e-06	2.324774e-06	4.894883e-09	1.692801e+01	3.180445e+02
2.200000e-06	2.388334e-06	5.072648e-09	1.739082e+01	3.301884e+02
2.210000e-06	2.451723e-06	5.246732e-09	1.785240e+01	3.420092e+02
2.220000e-06	2.514904e-06	5.418042e-09	1.831245e+01	3.535088e+02
2.230000e-06	2.577891e-06	5.586406e-09	1.877109e+01	3.646898e+02
2.240000e-06	2.640728e-06	5.750621e-09	1.922865e+01	3.755554e+02
2.250000e-06	2.703398e-06	5.913183e-09	1.968499e+01	3.861081e+02
2.260000e-06	2.765896e-06	6.073876e-09	2.014007e+01	3.963505e+02
2.270000e-06	2.828254e-06	6.228587e-09	2.059413e+01	4.062849e+02
2.280000e-06	2.890400e-06	6.378016e-09	2.104665e+01	4.159134e+02
2.290000e-06	2.952273e-06	6.522566e-09	2.149719e+01	4.252385e+02
2.300000e-06	3.013849e-06	6.658454e-09	2.194556e+01	4.342635e+02
2.310000e-06	3.075136e-06	6.783604e-09	2.239182e+01	4.429926e+02
2.320000e-06	3.136200e-06	6.904271e-09	2.283646e+01	4.514311e+02
2.330000e-06	3.197077e-06	7.022628e-09	2.327974e+01	4.595861e+02
2.340000e-06	3.257705e-06	7.137613e-09	2.372121e+01	4.674657e+02
2.350000e-06	3.318112e-06	7.250953e-09	2.416107e+01	4.750795e+02
2.360000e-06	3.378341e-06	7.363433e-09	2.459963e+01	4.824380e+02
2.370000e-06	3.438300e-06	7.475809e-09	2.503622e+01	4.895523e+02
2.380000e-06	3.497964e-06	7.586789e-09	2.547067e+01	4.964340e+02
2.390000e-06	3.557426e-06	7.693342e-09	2.590365e+01	5.030944e+02
2.400000e-06	3.616727e-06	7.789945e-09	2.633545e+01	5.095447e+02
2.410000e-06	3.675785e-06	7.878071e-09	2.676549e+01	5.157954e+02
2.420000e-06	3.734541e-06	7.963175e-09	2.719332e+01	5.218566e+02
2.430000e-06	3.792978e-06	8.049829e-09	2.761884e+01	5.277375e+02
2.440000e-06	3.851146e-06	8.138220e-09	2.804239e+01	5.334470e+02
2.450000e-06	3.909034e-06	8.225765e-09	2.846391e+01	5.389932e+02
2.460000e-06	3.966588e-06	8.315232e-09	2.888299e+01	5.443839e+02
2.470000e-06	4.023879e-06	8.404585e-09	2.930016e+01	5.496265e+02
2.480000e-06	4.080902e-06	8.488459e-09	2.971538e+01	5.547278e+02
2.490000e-06	4.137590e-06	8.562426e-09	3.012816e+01	5.596945e+02
2.500000e-06	4.193917e-06	8.627774e-09	3.053830e+01	5.645326e+02
2.510000e-06	4.249902e-06	8.692127e-09	3.094596e+01	5.692477e+02
2.520000e-06	4.305577e-06	8.753266e-09	3.135137e+01	5.738445e+02
2.530000e-06	4.360915e-06	8.816271e-09	3.175431e+01	5.783274e+02
2.540000e-06	4.415940e-06	8.883660e-09	3.215498e+01	5.826998e+02
2.550000e-06	4.470692e-06	8.954713e-09	3.255366e+01	5.869648e+02
2.560000e-06	4.525124e-06	9.027313e-09	3.295001e+01	5.911249e+02
2.570000e-06	4.579195e-06	9.091903e-09	3.334374e+01	5.951824e+02
2.580000e-06	4.632937e-06	9.149820e-09	3.373506e+01	5.991397e+02
2.590000e-06	4.686345e-06	9.201561e-09	3.412396e+01	6.029993e+02
2.600000e-06	4.739413e-06	9.249924e-09	3.451037e+01	6.067641e+02
2.610000e-06	4.792170e-06	9.296000e-09	3.489453e+01	6.104375e+02
2.620000e-06	4.844570e-06	9.341633e-09	3.527608e+01	6.140235e+02
2.630000e-06	4.896548e-06	9.391146e-09	3.565456e+01	6.175265e+02
2.640000e-06	4.948159e-06	9.444173e-09	3.603037e+01	6.209511e+02
2.650000e-06	4.999511e-06	9.497435e-09	3.640430e+01	6.243019e+02
2.660000e-06	5.050506e-06	9.547072e-09	3.677562e+01	6.275834e+02
2.670000e-06	5.101096e-06	9.593814e-09	3.714400e+01	6.307997e+02
2.680000e-06	5.151373e-06	9.636327e-09	3.751009e+01	6.339539e+02
2.690000e-06	5.201337e-06	9.676195e-09	3.787391e+01	6.370484e+02
2.700000e-06	5.250995e-06	9.717442e-09	3.823550e+01	6.400849e+02
2.710000e-06	5.300271e-06	9.757752e-09	3.859430e+01	6.430639e+02
2.720000e-06	5.349072e-06	9.798752e-09	3.894965e+01	6.459854e+02
2.730000e-06	5.397478e-06	9.839434e-09	3.930212e+01	6.488489e+02
2.740000e-06	5.445495e-06	9.879548e-09	3.965176e+01	6.516535e+02
2.750000e-06	5.493075e-06	9.917622e-09	3.999822e+01	6.543984e+02
2.760000e-06	5.540248e-06	9.953129e-09	4.034171e+01	6.570830e+02
2.770000e-06	5.587025e-06	9.988136e-09	4.068232e+01	6.597069e+02
2.780000e-06	5.633384e-06	1.002127e-08	4.101989e+01	6.622703e+02
2.790000e-06	5.679288e-06	1.005599e-08	4.135414e+01	6.647741e+02
2.800000e-06	5.724754e-06	1.009106e-08	4.168520e+01	6.672194e+02
2.810000e-06	5.769834e-06	1.012577e-08	4.201346e+01	6.696079e+02
2.820000e-06	5.814484e-06	1.016000e-08	4.233858e+01	6.719414e+02
2.830000e-06	5.858701e-06	1.019077e-08	4.266055e+01	6.742220e+02
2.840000e-06	5.902508e-06	1.021998e-08	4.297953e+01	6.764521e+02
2.850000e-06	5.945929e-06	1.024872e-08	4.329570e+01	6.786338e+02
2.860000e-06	5.988949e-06	1.027654e-08	4.360896e+01	6.807692e+02
2.870000e-06	6.031477e-06	1.030471e-08	4.391863e+01	6.828606e+02
2.880000e-06	6.073547e-06	1.033660e-08	4.422497e+01	6.849099e+02
2.890000e-06	6.115200e-06	1.037251e-08	4.452826e+01	6.869189e+02
2.900000e-06	6.156419e-06	1.040827e-08	4.482840e+01	6.888893e+02
