# Temperatura_=_20.0
# Concentracion g/m^3_=_10000.0
# C_Vs_to_Am_M_A/Vsm_=_65563218390.804596
# pendiente_HvsI_1/m_=_3716.3
# ordenada_HvsI_A/m_=_1297.0
# frecuencia_Hz_=_135409.98456565393

Tiempo_(s)	Campo_(V.s)	Magnetizacion_(V.s)	Campo_(kA/m)	Magnetizacion_(A/m)
0.000000e+00	-7.836677e-06	-1.159128e-08	-5.696813e+01	-7.575576e+02
1.000000e-08	-7.836365e-06	-1.158641e-08	-5.696587e+01	-7.575861e+02
2.000000e-08	-7.835451e-06	-1.158706e-08	-5.695922e+01	-7.575924e+02
3.000000e-08	-7.833958e-06	-1.159261e-08	-5.694837e+01	-7.575738e+02
4.000000e-08	-7.832030e-06	-1.159673e-08	-5.693435e+01	-7.575276e+02
5.000000e-08	-7.829684e-06	-1.159596e-08	-5.691730e+01	-7.574517e+02
6.000000e-08	-7.826851e-06	-1.159264e-08	-5.689671e+01	-7.573444e+02
7.000000e-08	-7.823574e-06	-1.158687e-08	-5.687289e+01	-7.572048e+02
8.000000e-08	-7.819738e-06	-1.157182e-08	-5.684500e+01	-7.570329e+02
9.000000e-08	-7.815041e-06	-1.156664e-08	-5.681085e+01	-7.568300e+02
1.000000e-07	-7.809237e-06	-1.159108e-08	-5.676866e+01	-7.565981e+02
1.100000e-07	-7.802175e-06	-1.159628e-08	-5.671732e+01	-7.563402e+02
1.200000e-07	-7.794283e-06	-1.156663e-08	-5.665995e+01	-7.560597e+02
1.300000e-07	-7.786267e-06	-1.150806e-08	-5.660169e+01	-7.557606e+02
1.400000e-07	-7.778298e-06	-1.154194e-08	-5.654376e+01	-7.554469e+02
1.500000e-07	-7.769793e-06	-1.160933e-08	-5.648192e+01	-7.551223e+02
1.600000e-07	-7.760574e-06	-1.151496e-08	-5.641491e+01	-7.547899e+02
1.700000e-07	-7.751200e-06	-1.147869e-08	-5.634677e+01	-7.544524e+02
1.800000e-07	-7.741340e-06	-1.157592e-08	-5.627509e+01	-7.541110e+02
1.900000e-07	-7.730555e-06	-1.152773e-08	-5.619669e+01	-7.537663e+02
2.000000e-07	-7.719370e-06	-1.145115e-08	-5.611538e+01	-7.534177e+02
2.100000e-07	-7.707892e-06	-1.155819e-08	-5.603194e+01	-7.530635e+02
2.200000e-07	-7.695700e-06	-1.154306e-08	-5.594332e+01	-7.527014e+02
2.300000e-07	-7.682991e-06	-1.142717e-08	-5.585093e+01	-7.523283e+02
2.400000e-07	-7.669922e-06	-1.153215e-08	-5.575592e+01	-7.519407e+02
2.500000e-07	-7.656147e-06	-1.156170e-08	-5.565579e+01	-7.515349e+02
2.600000e-07	-7.641700e-06	-1.143613e-08	-5.555077e+01	-7.511076e+02
2.700000e-07	-7.626698e-06	-1.146265e-08	-5.544171e+01	-7.506556e+02
2.800000e-07	-7.611069e-06	-1.151758e-08	-5.532809e+01	-7.501765e+02
2.900000e-07	-7.595035e-06	-1.144730e-08	-5.521154e+01	-7.496687e+02
3.000000e-07	-7.578556e-06	-1.144246e-08	-5.509175e+01	-7.491315e+02
3.100000e-07	-7.561314e-06	-1.145503e-08	-5.496641e+01	-7.485648e+02
3.200000e-07	-7.543517e-06	-1.141270e-08	-5.483703e+01	-7.479697e+02
3.300000e-07	-7.525336e-06	-1.143370e-08	-5.470487e+01	-7.473477e+02
3.400000e-07	-7.506585e-06	-1.143214e-08	-5.456856e+01	-7.467009e+02
3.500000e-07	-7.487279e-06	-1.138658e-08	-5.442821e+01	-7.460314e+02
3.600000e-07	-7.467398e-06	-1.137911e-08	-5.428369e+01	-7.453415e+02
3.700000e-07	-7.446760e-06	-1.137403e-08	-5.413366e+01	-7.446330e+02
3.800000e-07	-7.425452e-06	-1.135797e-08	-5.397876e+01	-7.439069e+02
3.900000e-07	-7.403606e-06	-1.135725e-08	-5.381996e+01	-7.431639e+02
4.000000e-07	-7.381231e-06	-1.132308e-08	-5.365731e+01	-7.424038e+02
4.100000e-07	-7.358289e-06	-1.131420e-08	-5.349053e+01	-7.416253e+02
4.200000e-07	-7.334718e-06	-1.132723e-08	-5.331918e+01	-7.408269e+02
4.300000e-07	-7.310631e-06	-1.130618e-08	-5.314409e+01	-7.400065e+02
4.400000e-07	-7.286090e-06	-1.127627e-08	-5.296569e+01	-7.391617e+02
4.500000e-07	-7.261086e-06	-1.126481e-08	-5.278392e+01	-7.382902e+02
4.600000e-07	-7.235690e-06	-1.126138e-08	-5.259931e+01	-7.373900e+02
4.700000e-07	-7.209803e-06	-1.124895e-08	-5.241113e+01	-7.364599e+02
4.800000e-07	-7.183229e-06	-1.122580e-08	-5.221794e+01	-7.354989e+02
4.900000e-07	-7.156050e-06	-1.119947e-08	-5.202037e+01	-7.345072e+02
5.000000e-07	-7.128419e-06	-1.118822e-08	-5.181951e+01	-7.334854e+02
5.100000e-07	-7.100326e-06	-1.118386e-08	-5.161529e+01	-7.324346e+02
5.200000e-07	-7.071722e-06	-1.116326e-08	-5.140736e+01	-7.313565e+02
5.300000e-07	-7.042561e-06	-1.112765e-08	-5.119537e+01	-7.302526e+02
5.400000e-07	-7.012747e-06	-1.111979e-08	-5.097864e+01	-7.291242e+02
5.500000e-07	-6.982315e-06	-1.112020e-08	-5.075742e+01	-7.279725e+02
5.600000e-07	-6.951358e-06	-1.109764e-08	-5.053237e+01	-7.267977e+02
5.700000e-07	-6.919852e-06	-1.106168e-08	-5.030335e+01	-7.255995e+02
5.800000e-07	-6.887791e-06	-1.103305e-08	-5.007028e+01	-7.243770e+02
5.900000e-07	-6.855244e-06	-1.101838e-08	-4.983368e+01	-7.231286e+02
6.000000e-07	-6.822267e-06	-1.099719e-08	-4.959396e+01	-7.218524e+02
6.100000e-07	-6.788859e-06	-1.096888e-08	-4.935110e+01	-7.205463e+02
6.200000e-07	-6.755028e-06	-1.094991e-08	-4.910517e+01	-7.192086e+02
6.300000e-07	-6.720727e-06	-1.094415e-08	-4.885582e+01	-7.178378e+02
6.400000e-07	-6.686002e-06	-1.093499e-08	-4.860339e+01	-7.164332e+02
6.500000e-07	-6.650862e-06	-1.090499e-08	-4.834794e+01	-7.149949e+02
6.600000e-07	-6.615199e-06	-1.086398e-08	-4.808870e+01	-7.135238e+02
6.700000e-07	-6.578980e-06	-1.083488e-08	-4.782540e+01	-7.120216e+02
6.800000e-07	-6.542252e-06	-1.081281e-08	-4.755841e+01	-7.104908e+02
6.900000e-07	-6.505081e-06	-1.078863e-08	-4.728820e+01	-7.089342e+02
7.000000e-07	-6.467445e-06	-1.075740e-08	-4.701461e+01	-7.073548e+02
7.100000e-07	-6.429354e-06	-1.073491e-08	-4.673770e+01	-7.057555e+02
7.200000e-07	-6.390903e-06	-1.072393e-08	-4.645819e+01	-7.041387e+02
7.300000e-07	-6.352052e-06	-1.070743e-08	-4.617576e+01	-7.025061e+02
7.400000e-07	-6.312682e-06	-1.067727e-08	-4.588957e+01	-7.008585e+02
7.500000e-07	-6.272799e-06	-1.064185e-08	-4.559964e+01	-6.991959e+02
7.600000e-07	-6.232421e-06	-1.061351e-08	-4.530612e+01	-6.975171e+02
7.700000e-07	-6.191617e-06	-1.058647e-08	-4.500949e+01	-6.958199e+02
7.800000e-07	-6.150426e-06	-1.055553e-08	-4.471006e+01	-6.941015e+02
7.900000e-07	-6.108811e-06	-1.052204e-08	-4.440754e+01	-6.923585e+02
8.000000e-07	-6.066665e-06	-1.049827e-08	-4.410117e+01	-6.905868e+02
8.100000e-07	-6.023986e-06	-1.048280e-08	-4.379091e+01	-6.887827e+02
8.200000e-07	-5.980885e-06	-1.046131e-08	-4.347760e+01	-6.869421e+02
8.300000e-07	-5.937381e-06	-1.042599e-08	-4.316135e+01	-6.850615e+02
8.400000e-07	-5.893465e-06	-1.038836e-08	-4.284210e+01	-6.831381e+02
8.500000e-07	-5.849190e-06	-1.035891e-08	-4.252025e+01	-6.811694e+02
8.600000e-07	-5.804585e-06	-1.033049e-08	-4.219599e+01	-6.791541e+02
8.700000e-07	-5.759546e-06	-1.029383e-08	-4.186859e+01	-6.770913e+02
8.800000e-07	-5.714041e-06	-1.025828e-08	-4.153779e+01	-6.749811e+02
8.900000e-07	-5.668104e-06	-1.022942e-08	-4.120386e+01	-6.728244e+02
9.000000e-07	-5.621674e-06	-1.020265e-08	-4.086634e+01	-6.706223e+02
9.100000e-07	-5.574726e-06	-1.016681e-08	-4.052505e+01	-6.683767e+02
9.200000e-07	-5.527368e-06	-1.012249e-08	-4.018079e+01	-6.660893e+02
9.300000e-07	-5.479621e-06	-1.008295e-08	-3.983369e+01	-6.637620e+02
9.400000e-07	-5.431446e-06	-1.004912e-08	-3.948349e+01	-6.613963e+02
9.500000e-07	-5.382885e-06	-1.001430e-08	-3.913048e+01	-6.589932e+02
9.600000e-07	-5.333903e-06	-9.974032e-09	-3.877441e+01	-6.565531e+02
9.700000e-07	-5.284534e-06	-9.935284e-09	-3.841553e+01	-6.540757e+02
9.800000e-07	-5.234867e-06	-9.902772e-09	-3.805448e+01	-6.515599e+02
9.900000e-07	-5.184823e-06	-9.868097e-09	-3.769068e+01	-6.490040e+02
1.000000e-06	-5.134432e-06	-9.823122e-09	-3.732437e+01	-6.464056e+02
1.010000e-06	-5.083765e-06	-9.775045e-09	-3.695605e+01	-6.437621e+02
1.020000e-06	-5.032766e-06	-9.734974e-09	-3.658532e+01	-6.410706e+02
1.030000e-06	-4.981370e-06	-9.699383e-09	-3.621169e+01	-6.383285e+02
1.040000e-06	-4.929551e-06	-9.657387e-09	-3.583500e+01	-6.355335e+02
1.050000e-06	-4.877343e-06	-9.611361e-09	-3.545548e+01	-6.326841e+02
1.060000e-06	-4.824744e-06	-9.566703e-09	-3.507311e+01	-6.297792e+02
1.070000e-06	-4.771787e-06	-9.526276e-09	-3.468815e+01	-6.268188e+02
1.080000e-06	-4.718494e-06	-9.481621e-09	-3.430074e+01	-6.238034e+02
1.090000e-06	-4.664888e-06	-9.427653e-09	-3.391105e+01	-6.207341e+02
1.100000e-06	-4.610975e-06	-9.373538e-09	-3.351914e+01	-6.176124e+02
1.110000e-06	-4.556739e-06	-9.326959e-09	-3.312487e+01	-6.144399e+02
1.120000e-06	-4.502165e-06	-9.283592e-09	-3.272815e+01	-6.112179e+02
1.130000e-06	-4.447276e-06	-9.235579e-09	-3.232914e+01	-6.079473e+02
1.140000e-06	-4.392090e-06	-9.185137e-09	-3.192797e+01	-6.046283e+02
1.150000e-06	-4.336557e-06	-9.137800e-09	-3.152427e+01	-6.012605e+02
1.160000e-06	-4.280691e-06	-9.089773e-09	-3.111816e+01	-5.978427e+02
1.170000e-06	-4.224459e-06	-9.032388e-09	-3.070939e+01	-5.943733e+02
1.180000e-06	-4.167782e-06	-8.969830e-09	-3.029738e+01	-5.908501e+02
1.190000e-06	-4.110763e-06	-8.909041e-09	-2.988289e+01	-5.872710e+02
1.200000e-06	-4.053420e-06	-8.854201e-09	-2.946603e+01	-5.836338e+02
1.210000e-06	-3.995689e-06	-8.802026e-09	-2.904636e+01	-5.799371e+02
1.220000e-06	-3.937661e-06	-8.744954e-09	-2.862453e+01	-5.761798e+02
1.230000e-06	-3.879380e-06	-8.684541e-09	-2.820086e+01	-5.723617e+02
1.240000e-06	-3.820856e-06	-8.626834e-09	-2.777542e+01	-5.684832e+02
1.250000e-06	-3.762098e-06	-8.568311e-09	-2.734829e+01	-5.645451e+02
1.260000e-06	-3.703090e-06	-8.501436e-09	-2.691934e+01	-5.605486e+02
1.270000e-06	-3.643886e-06	-8.433567e-09	-2.648895e+01	-5.564950e+02
1.280000e-06	-3.584540e-06	-8.369092e-09	-2.605755e+01	-5.523850e+02
1.290000e-06	-3.524953e-06	-8.309512e-09	-2.562438e+01	-5.482187e+02
1.300000e-06	-3.465110e-06	-8.249352e-09	-2.518936e+01	-5.439954e+02
1.310000e-06	-3.405055e-06	-8.183446e-09	-2.475279e+01	-5.397133e+02
1.320000e-06	-3.344751e-06	-8.116093e-09	-2.431442e+01	-5.353696e+02
1.330000e-06	-3.284153e-06	-8.049416e-09	-2.387391e+01	-5.309608e+02
1.340000e-06	-3.223213e-06	-7.980994e-09	-2.343091e+01	-5.264825e+02
1.350000e-06	-3.161999e-06	-7.904232e-09	-2.298591e+01	-5.219302e+02
1.360000e-06	-3.100582e-06	-7.826070e-09	-2.253945e+01	-5.172994e+02
1.370000e-06	-3.038959e-06	-7.753812e-09	-2.209149e+01	-5.125861e+02
1.380000e-06	-2.977122e-06	-7.679358e-09	-2.164196e+01	-5.077870e+02
1.390000e-06	-2.915049e-06	-7.603762e-09	-2.119073e+01	-5.028997e+02
1.400000e-06	-2.852787e-06	-7.525101e-09	-2.073812e+01	-4.979229e+02
1.410000e-06	-2.790344e-06	-7.449839e-09	-2.028420e+01	-4.928560e+02
1.420000e-06	-2.727699e-06	-7.377769e-09	-1.982880e+01	-4.876996e+02
1.430000e-06	-2.664868e-06	-7.298669e-09	-1.937206e+01	-4.824542e+02
1.440000e-06	-2.601846e-06	-7.215894e-09	-1.891392e+01	-4.771210e+02
1.450000e-06	-2.538638e-06	-7.129953e-09	-1.845444e+01	-4.717008e+02
1.460000e-06	-2.475238e-06	-7.045852e-09	-1.799356e+01	-4.661938e+02
1.470000e-06	-2.411623e-06	-6.960092e-09	-1.753111e+01	-4.605997e+02
1.480000e-06	-2.347814e-06	-6.871315e-09	-1.706726e+01	-4.549172e+02
1.490000e-06	-2.283843e-06	-6.785461e-09	-1.660223e+01	-4.491444e+02
1.500000e-06	-2.219710e-06	-6.702861e-09	-1.613602e+01	-4.432785e+02
1.510000e-06	-2.155473e-06	-6.615532e-09	-1.566905e+01	-4.373159e+02
1.520000e-06	-2.091127e-06	-6.522014e-09	-1.520129e+01	-4.312528e+02
1.530000e-06	-2.026656e-06	-6.421082e-09	-1.473262e+01	-4.250851e+02
1.540000e-06	-1.962080e-06	-6.319506e-09	-1.426320e+01	-4.188090e+02
1.550000e-06	-1.897380e-06	-6.219714e-09	-1.379286e+01	-4.124206e+02
1.560000e-06	-1.832534e-06	-6.118632e-09	-1.332147e+01	-4.059163e+02
1.570000e-06	-1.767506e-06	-6.018923e-09	-1.284875e+01	-3.992930e+02
1.580000e-06	-1.702303e-06	-5.921354e-09	-1.237476e+01	-3.925477e+02
1.590000e-06	-1.636946e-06	-5.825260e-09	-1.189965e+01	-3.856777e+02
1.600000e-06	-1.571478e-06	-5.722278e-09	-1.142374e+01	-3.786804e+02
1.610000e-06	-1.505850e-06	-5.606126e-09	-1.094667e+01	-3.715531e+02
1.620000e-06	-1.440131e-06	-5.487729e-09	-1.046892e+01	-3.642930e+02
1.630000e-06	-1.374360e-06	-5.370739e-09	-9.990805e+00	-3.568972e+02
1.640000e-06	-1.308462e-06	-5.256176e-09	-9.511769e+00	-3.493622e+02
1.650000e-06	-1.242478e-06	-5.141312e-09	-9.032100e+00	-3.416846e+02
1.660000e-06	-1.176462e-06	-5.022917e-09	-8.552205e+00	-3.338608e+02
1.670000e-06	-1.110405e-06	-4.903545e-09	-8.072005e+00	-3.258870e+02
1.680000e-06	-1.044263e-06	-4.777548e-09	-7.591192e+00	-3.177592e+02
1.690000e-06	-9.780718e-07	-4.646366e-09	-7.110020e+00	-3.094735e+02
1.700000e-06	-9.118110e-07	-4.512821e-09	-6.628342e+00	-3.010262e+02
1.710000e-06	-8.454757e-07	-4.380673e-09	-6.146122e+00	-2.924133e+02
1.720000e-06	-7.790564e-07	-4.248303e-09	-5.663292e+00	-2.836310e+02
1.730000e-06	-7.125227e-07	-4.112079e-09	-5.179630e+00	-2.746755e+02
1.740000e-06	-6.459439e-07	-3.971287e-09	-4.695641e+00	-2.655429e+02
1.750000e-06	-5.793239e-07	-3.829576e-09	-4.211352e+00	-2.562294e+02
1.760000e-06	-5.126503e-07	-3.683764e-09	-3.726673e+00	-2.467310e+02
1.770000e-06	-4.459292e-07	-3.533086e-09	-3.241649e+00	-2.370438e+02
1.780000e-06	-3.792051e-07	-3.379189e-09	-2.756603e+00	-2.271638e+02
1.790000e-06	-3.124933e-07	-3.223879e-09	-2.271647e+00	-2.170873e+02
1.800000e-06	-2.457938e-07	-3.067861e-09	-1.786780e+00	-2.068105e+02
1.810000e-06	-1.791273e-07	-2.908196e-09	-1.302152e+00	-1.963299e+02
1.820000e-06	-1.124342e-07	-2.742804e-09	-8.173319e-01	-1.856421e+02
1.830000e-06	-4.571929e-08	-2.571304e-09	-3.323530e-01	-1.747437e+02
1.840000e-06	2.100445e-08	-2.398783e-09	1.526903e-01	-1.636314e+02
1.850000e-06	8.770801e-08	-2.226446e-09	6.375868e-01	-1.523019e+02
1.860000e-06	1.544171e-07	-2.047684e-09	1.122524e+00	-1.407514e+02
1.870000e-06	2.211765e-07	-1.867917e-09	1.607826e+00	-1.289759e+02
1.880000e-06	2.879117e-07	-1.687505e-09	2.092952e+00	-1.169712e+02
1.890000e-06	3.546146e-07	-1.504439e-09	2.577844e+00	-1.047328e+02
1.900000e-06	4.212894e-07	-1.314855e-09	3.062532e+00	-9.225608e+01
1.910000e-06	4.879186e-07	-1.114466e-09	3.546888e+00	-7.953681e+01
1.920000e-06	5.545090e-07	-9.158027e-10	4.030962e+00	-6.657151e+01
1.930000e-06	6.210479e-07	-7.179815e-10	4.514661e+00	-5.335803e+01
1.940000e-06	6.875198e-07	-5.218741e-10	4.997874e+00	-3.989619e+01
1.950000e-06	7.538935e-07	-3.192825e-10	5.480372e+00	-2.618842e+01
1.960000e-06	8.202351e-07	-1.091596e-10	5.962638e+00	-1.224036e+01
1.970000e-06	8.865569e-07	1.055253e-10	6.444759e+00	1.938692e+00
1.980000e-06	9.528257e-07	3.277599e-10	6.926495e+00	1.633540e+01
1.990000e-06	1.019053e-06	5.561976e-10	7.407929e+00	3.093234e+01
2.000000e-06	1.085218e-06	7.890817e-10	7.888908e+00	4.570803e+01
2.010000e-06	1.151306e-06	1.019166e-09	8.369330e+00	6.063729e+01
2.020000e-06	1.217299e-06	1.244676e-09	8.849060e+00	7.569169e+01
2.030000e-06	1.283218e-06	1.468733e-09	9.328255e+00	9.084020e+01
2.040000e-06	1.349077e-06	1.695311e-09	9.807014e+00	1.060499e+02
2.050000e-06	1.414817e-06	1.922403e-09	1.028490e+01	1.212867e+02
2.060000e-06	1.480423e-06	2.151567e-09	1.076183e+01	1.365159e+02
2.070000e-06	1.545914e-06	2.385548e-09	1.123791e+01	1.517033e+02
2.080000e-06	1.611259e-06	2.621732e-09	1.171292e+01	1.668151e+02
2.090000e-06	1.676461e-06	2.854766e-09	1.218691e+01	1.818187e+02
2.100000e-06	1.741569e-06	3.080515e-09	1.266021e+01	1.966828e+02
2.110000e-06	1.806588e-06	3.296467e-09	1.313286e+01	2.113780e+02
2.120000e-06	1.871478e-06	3.509626e-09	1.360457e+01	2.258766e+02
2.130000e-06	1.936245e-06	3.722930e-09	1.407539e+01	2.401530e+02
2.140000e-06	2.000905e-06	3.934224e-09	1.454543e+01	2.541836e+02
2.150000e-06	2.065420e-06	4.142028e-09	1.501441e+01	2.679475e+02
2.160000e-06	2.129750e-06	4.345384e-09	1.548206e+01	2.814262e+02
2.170000e-06	2.193922e-06	4.544787e-09	1.594855e+01	2.946040e+02
2.180000e-06	2.257941e-06	4.739148e-09	1.641393e+01	3.074683e+02
2.190000e-06	2.321794e-06	4.928507e-09	1.687811e+01	3.200096e+02
2.200000e-06	2.385471e-06	5.110379e-09	1.734101e+01	3.322215e+02
2.210000e-06	2.448935e-06	5.285468e-09	1.780235e+01	3.441004e+02
2.220000e-06	2.512222e-06	5.457324e-09	1.826241e+01	3.556458e+02
2.230000e-06	2.575361e-06	5.625599e-09	1.872139e+01	3.668594e+02
2.240000e-06	2.638327e-06	5.790148e-09	1.917912e+01	3.777448e+02
2.250000e-06	2.701133e-06	5.950190e-09	1.963568e+01	3.883070e+02
2.260000e-06	2.763743e-06	6.105614e-09	2.009082e+01	3.985517e+02
2.270000e-06	2.826183e-06	6.258032e-09	2.054472e+01	4.084850e+02
2.280000e-06	2.888429e-06	6.408288e-09	2.099721e+01	4.181129e+02
2.290000e-06	2.950425e-06	6.554041e-09	2.144789e+01	4.274412e+02
2.300000e-06	3.012232e-06	6.692418e-09	2.189719e+01	4.364751e+02
2.310000e-06	3.073784e-06	6.823884e-09	2.234464e+01	4.452196e+02
2.320000e-06	3.135029e-06	6.949323e-09	2.278985e+01	4.536799e+02
2.330000e-06	3.196013e-06	7.068321e-09	2.323317e+01	4.618613e+02
2.340000e-06	3.256758e-06	7.183040e-09	2.367475e+01	4.697697e+02
2.350000e-06	3.317234e-06	7.295703e-09	2.411438e+01	4.774121e+02
2.360000e-06	3.377467e-06	7.404056e-09	2.455224e+01	4.847967e+02
2.370000e-06	3.437459e-06	7.508431e-09	2.498835e+01	4.919332e+02
2.380000e-06	3.497239e-06	7.611030e-09	2.542291e+01	4.988321e+02
2.390000e-06	3.556834e-06	7.712533e-09	2.585614e+01	5.055052e+02
2.400000e-06	3.616176e-06	7.810555e-09	2.628752e+01	5.119646e+02
2.410000e-06	3.675278e-06	7.904459e-09	2.671716e+01	5.182227e+02
2.420000e-06	3.734129e-06	7.996036e-09	2.714497e+01	5.242912e+02
2.430000e-06	3.792725e-06	8.085756e-09	2.757093e+01	5.301810e+02
2.440000e-06	3.851037e-06	8.171945e-09	2.799483e+01	5.359017e+02
2.450000e-06	3.909058e-06	8.256385e-09	2.841660e+01	5.414615e+02
2.460000e-06	3.966838e-06	8.339703e-09	2.883663e+01	5.468672e+02
2.470000e-06	4.024280e-06	8.420917e-09	2.925420e+01	5.521242e+02
2.480000e-06	4.081353e-06	8.499636e-09	2.966909e+01	5.572370e+02
2.490000e-06	4.138124e-06	8.576341e-09	3.008178e+01	5.622097e+02
2.500000e-06	4.194620e-06	8.651607e-09	3.049248e+01	5.670463e+02
2.510000e-06	4.250838e-06	8.722202e-09	3.090115e+01	5.717511e+02
2.520000e-06	4.306772e-06	8.787922e-09	3.130776e+01	5.763290e+02
2.530000e-06	4.362384e-06	8.852184e-09	3.171203e+01	5.807856e+02
2.540000e-06	4.417620e-06	8.915398e-09	3.211356e+01	5.851273e+02
2.550000e-06	4.472507e-06	8.978725e-09	3.251255e+01	5.893610e+02
2.560000e-06	4.527039e-06	9.043910e-09	3.290897e+01	5.934937e+02
2.570000e-06	4.581224e-06	9.106420e-09	3.330287e+01	5.975322e+02
2.580000e-06	4.635073e-06	9.164770e-09	3.369431e+01	6.014827e+02
2.590000e-06	4.688560e-06	9.220725e-09	3.408313e+01	6.053500e+02
2.600000e-06	4.741703e-06	9.276025e-09	3.446945e+01	6.091381e+02
2.610000e-06	4.794565e-06	9.328355e-09	3.485373e+01	6.128494e+02
2.620000e-06	4.847098e-06	9.379710e-09	3.523561e+01	6.164851e+02
2.630000e-06	4.899228e-06	9.432720e-09	3.561457e+01	6.200455e+02
2.640000e-06	4.950993e-06	9.485571e-09	3.599087e+01	6.235303e+02
2.650000e-06	5.002426e-06	9.536568e-09	3.636476e+01	6.269391e+02
2.660000e-06	5.053504e-06	9.584447e-09	3.673607e+01	6.302717e+02
2.670000e-06	5.104237e-06	9.629864e-09	3.710486e+01	6.335288e+02
2.680000e-06	5.154656e-06	9.673260e-09	3.747139e+01	6.367118e+02
2.690000e-06	5.204743e-06	9.717094e-09	3.783549e+01	6.398232e+02
2.700000e-06	5.254485e-06	9.760781e-09	3.819709e+01	6.428664e+02
2.710000e-06	5.303852e-06	9.803754e-09	3.855595e+01	6.458452e+02
2.720000e-06	5.352811e-06	9.846415e-09	3.891186e+01	6.487637e+02
2.730000e-06	5.401313e-06	9.888966e-09	3.926444e+01	6.516257e+02
2.740000e-06	5.449381e-06	9.929045e-09	3.961387e+01	6.544346e+02
2.750000e-06	5.497096e-06	9.965423e-09	3.996073e+01	6.571924e+02
2.760000e-06	5.544448e-06	1.000148e-08	4.030495e+01	6.599002e+02
2.770000e-06	5.591424e-06	1.003764e-08	4.064644e+01	6.625578e+02
2.780000e-06	5.637974e-06	1.007624e-08	4.098483e+01	6.651643e+02
2.790000e-06	5.684072e-06	1.011583e-08	4.131993e+01	6.677177e+02
2.800000e-06	5.729697e-06	1.015335e-08	4.165161e+01	6.702160e+02
2.810000e-06	5.774835e-06	1.018924e-08	4.197973e+01	6.726575e+02
2.820000e-06	5.819561e-06	1.022120e-08	4.230486e+01	6.750410e+02
2.830000e-06	5.863907e-06	1.025085e-08	4.262723e+01	6.773662e+02
2.840000e-06	5.907864e-06	1.028026e-08	4.294678e+01	6.796342e+02
2.850000e-06	5.951424e-06	1.030958e-08	4.326343e+01	6.818471e+02
2.860000e-06	5.994596e-06	1.033899e-08	4.357726e+01	6.840080e+02
2.870000e-06	6.037315e-06	1.036809e-08	4.388781e+01	6.861206e+02
2.880000e-06	6.079536e-06	1.039938e-08	4.419473e+01	6.881891e+02
2.890000e-06	6.121319e-06	1.043441e-08	4.449847e+01	6.902170e+02
2.900000e-06	6.162674e-06	1.046898e-08	4.479910e+01	6.922076e+02
