# Temperatura_=_20.0
# Concentracion g/m^3_=_10000.0
# C_Vs_to_Am_M_A/Vsm_=_65563218390.804596
# pendiente_HvsI_1/m_=_3716.3
# ordenada_HvsI_A/m_=_1297.0
# frecuencia_Hz_=_135396.59994124717

Tiempo_(s)	Campo_(V.s)	Magnetizacion_(V.s)	Campo_(kA/m)	Magnetizacion_(A/m)
0.000000e+00	-7.788227e-06	-1.146252e-08	-5.698004e+01	-7.485167e+02
1.000000e-08	-7.788304e-06	-1.145926e-08	-5.698061e+01	-7.485433e+02
2.000000e-08	-7.787843e-06	-1.145759e-08	-5.697723e+01	-7.485461e+02
3.000000e-08	-7.786768e-06	-1.145967e-08	-5.696937e+01	-7.485242e+02
4.000000e-08	-7.785187e-06	-1.146437e-08	-5.695780e+01	-7.484770e+02
5.000000e-08	-7.783203e-06	-1.146788e-08	-5.694329e+01	-7.484050e+02
6.000000e-08	-7.780741e-06	-1.146739e-08	-5.692527e+01	-7.483093e+02
7.000000e-08	-7.777807e-06	-1.146222e-08	-5.690381e+01	-7.481921e+02
8.000000e-08	-7.774468e-06	-1.145020e-08	-5.687938e+01	-7.480567e+02
9.000000e-08	-7.770482e-06	-1.143541e-08	-5.685022e+01	-7.479074e+02
1.000000e-07	-7.765569e-06	-1.144791e-08	-5.681427e+01	-7.477489e+02
1.100000e-07	-7.759445e-06	-1.146359e-08	-5.676947e+01	-7.475866e+02
1.200000e-07	-7.752116e-06	-1.145344e-08	-5.671585e+01	-7.474252e+02
1.300000e-07	-7.744212e-06	-1.141226e-08	-5.665802e+01	-7.472693e+02
1.400000e-07	-7.736344e-06	-1.141172e-08	-5.660046e+01	-7.471220e+02
1.500000e-07	-7.728346e-06	-1.147538e-08	-5.654195e+01	-7.469849e+02
1.600000e-07	-7.719628e-06	-1.143081e-08	-5.647816e+01	-7.468580e+02
1.700000e-07	-7.710429e-06	-1.135752e-08	-5.641086e+01	-7.467390e+02
1.800000e-07	-7.701099e-06	-1.142973e-08	-5.634260e+01	-7.466240e+02
1.900000e-07	-7.691067e-06	-1.144521e-08	-5.626920e+01	-7.465072e+02
2.000000e-07	-7.680229e-06	-1.135556e-08	-5.618991e+01	-7.463817e+02
2.100000e-07	-7.669124e-06	-1.139004e-08	-5.610866e+01	-7.462398e+02
2.200000e-07	-7.657610e-06	-1.144324e-08	-5.602442e+01	-7.460736e+02
2.300000e-07	-7.645361e-06	-1.134716e-08	-5.593481e+01	-7.458757e+02
2.400000e-07	-7.632693e-06	-1.137358e-08	-5.584213e+01	-7.456399e+02
2.500000e-07	-7.619569e-06	-1.143489e-08	-5.574611e+01	-7.453613e+02
2.600000e-07	-7.605659e-06	-1.135577e-08	-5.564434e+01	-7.450368e+02
2.700000e-07	-7.591131e-06	-1.134058e-08	-5.553805e+01	-7.446653e+02
2.800000e-07	-7.576044e-06	-1.138853e-08	-5.542767e+01	-7.442476e+02
2.900000e-07	-7.560361e-06	-1.133895e-08	-5.531293e+01	-7.437863e+02
3.000000e-07	-7.544309e-06	-1.132367e-08	-5.519550e+01	-7.432852e+02
3.100000e-07	-7.527748e-06	-1.135835e-08	-5.507433e+01	-7.427491e+02
3.200000e-07	-7.510432e-06	-1.130079e-08	-5.494764e+01	-7.421835e+02
3.300000e-07	-7.492663e-06	-1.131077e-08	-5.481764e+01	-7.415936e+02
3.400000e-07	-7.474455e-06	-1.133688e-08	-5.468443e+01	-7.409844e+02
3.500000e-07	-7.455617e-06	-1.127769e-08	-5.454661e+01	-7.403598e+02
3.600000e-07	-7.436283e-06	-1.126526e-08	-5.440516e+01	-7.397227e+02
3.700000e-07	-7.416388e-06	-1.129148e-08	-5.425960e+01	-7.390748e+02
3.800000e-07	-7.395742e-06	-1.125272e-08	-5.410855e+01	-7.384161e+02
3.900000e-07	-7.374453e-06	-1.125712e-08	-5.395280e+01	-7.377457e+02
4.000000e-07	-7.352592e-06	-1.125197e-08	-5.379286e+01	-7.370611e+02
4.100000e-07	-7.330198e-06	-1.121674e-08	-5.362902e+01	-7.363593e+02
4.200000e-07	-7.307216e-06	-1.122670e-08	-5.346088e+01	-7.356364e+02
4.300000e-07	-7.283592e-06	-1.122164e-08	-5.328804e+01	-7.348884e+02
4.400000e-07	-7.259466e-06	-1.117834e-08	-5.311154e+01	-7.341111e+02
4.500000e-07	-7.234892e-06	-1.117078e-08	-5.293175e+01	-7.333011e+02
4.600000e-07	-7.209908e-06	-1.117149e-08	-5.274896e+01	-7.324554e+02
4.700000e-07	-7.184526e-06	-1.114946e-08	-5.256326e+01	-7.315722e+02
4.800000e-07	-7.158614e-06	-1.113617e-08	-5.237368e+01	-7.306506e+02
4.900000e-07	-7.132079e-06	-1.112136e-08	-5.217955e+01	-7.296910e+02
5.000000e-07	-7.104973e-06	-1.110418e-08	-5.198124e+01	-7.286950e+02
5.100000e-07	-7.077389e-06	-1.108935e-08	-5.177943e+01	-7.276651e+02
5.200000e-07	-7.049359e-06	-1.107366e-08	-5.157436e+01	-7.266047e+02
5.300000e-07	-7.020779e-06	-1.104377e-08	-5.136526e+01	-7.255175e+02
5.400000e-07	-6.991638e-06	-1.102782e-08	-5.115206e+01	-7.244076e+02
5.500000e-07	-6.961914e-06	-1.102085e-08	-5.093459e+01	-7.232785e+02
5.600000e-07	-6.931550e-06	-1.100599e-08	-5.071244e+01	-7.221332e+02
5.700000e-07	-6.900619e-06	-1.098388e-08	-5.048614e+01	-7.209739e+02
5.800000e-07	-6.869143e-06	-1.096184e-08	-5.025586e+01	-7.198014e+02
5.900000e-07	-6.837167e-06	-1.094087e-08	-5.002192e+01	-7.186154e+02
6.000000e-07	-6.804741e-06	-1.092810e-08	-4.978469e+01	-7.174145e+02
6.100000e-07	-6.771860e-06	-1.090201e-08	-4.954412e+01	-7.161962e+02
6.200000e-07	-6.738555e-06	-1.087549e-08	-4.930046e+01	-7.149571e+02
6.300000e-07	-6.704818e-06	-1.086420e-08	-4.905363e+01	-7.136935e+02
6.400000e-07	-6.670660e-06	-1.085220e-08	-4.880373e+01	-7.124017e+02
6.500000e-07	-6.636061e-06	-1.083248e-08	-4.855059e+01	-7.110784e+02
6.600000e-07	-6.600954e-06	-1.080703e-08	-4.829374e+01	-7.097210e+02
6.700000e-07	-6.565340e-06	-1.078229e-08	-4.803318e+01	-7.083278e+02
6.800000e-07	-6.529221e-06	-1.075907e-08	-4.776893e+01	-7.068984e+02
6.900000e-07	-6.492596e-06	-1.073449e-08	-4.750098e+01	-7.054336e+02
7.000000e-07	-6.455464e-06	-1.070642e-08	-4.722931e+01	-7.039350e+02
7.100000e-07	-6.417879e-06	-1.068166e-08	-4.695433e+01	-7.024053e+02
7.200000e-07	-6.379923e-06	-1.066282e-08	-4.667664e+01	-7.008475e+02
7.300000e-07	-6.341604e-06	-1.064334e-08	-4.639629e+01	-6.992648e+02
7.400000e-07	-6.302851e-06	-1.061548e-08	-4.611277e+01	-6.976601e+02
7.500000e-07	-6.263624e-06	-1.058587e-08	-4.582578e+01	-6.960357e+02
7.600000e-07	-6.223901e-06	-1.055553e-08	-4.553516e+01	-6.943932e+02
7.700000e-07	-6.183704e-06	-1.052611e-08	-4.524107e+01	-6.927329e+02
7.800000e-07	-6.143103e-06	-1.049546e-08	-4.494403e+01	-6.910543e+02
7.900000e-07	-6.102080e-06	-1.046609e-08	-4.464389e+01	-6.893557e+02
8.000000e-07	-6.060586e-06	-1.044125e-08	-4.434032e+01	-6.876345e+02
8.100000e-07	-6.018602e-06	-1.042004e-08	-4.403315e+01	-6.858876e+02
8.200000e-07	-5.976104e-06	-1.039533e-08	-4.372223e+01	-6.841113e+02
8.300000e-07	-5.933127e-06	-1.036486e-08	-4.340780e+01	-6.823021e+02
8.400000e-07	-5.889746e-06	-1.033243e-08	-4.309042e+01	-6.804563e+02
8.500000e-07	-5.845995e-06	-1.030259e-08	-4.277033e+01	-6.785708e+02
8.600000e-07	-5.801885e-06	-1.027457e-08	-4.244761e+01	-6.766431e+02
8.700000e-07	-5.757408e-06	-1.024238e-08	-4.212221e+01	-6.746712e+02
8.800000e-07	-5.712551e-06	-1.020739e-08	-4.179403e+01	-6.726538e+02
8.900000e-07	-5.667269e-06	-1.017454e-08	-4.146274e+01	-6.705906e+02
9.000000e-07	-5.621521e-06	-1.014295e-08	-4.112804e+01	-6.684816e+02
9.100000e-07	-5.575284e-06	-1.010833e-08	-4.078976e+01	-6.663275e+02
9.200000e-07	-5.528541e-06	-1.007096e-08	-4.044778e+01	-6.641294e+02
9.300000e-07	-5.481379e-06	-1.003433e-08	-4.010273e+01	-6.618887e+02
9.400000e-07	-5.433845e-06	-1.000065e-08	-3.975497e+01	-6.596068e+02
9.500000e-07	-5.385900e-06	-9.965570e-09	-3.940419e+01	-6.572850e+02
9.600000e-07	-5.337563e-06	-9.927440e-09	-3.905055e+01	-6.549245e+02
9.700000e-07	-5.288859e-06	-9.886850e-09	-3.869423e+01	-6.525260e+02
9.800000e-07	-5.239761e-06	-9.848034e-09	-3.833501e+01	-6.500896e+02
9.900000e-07	-5.190256e-06	-9.811073e-09	-3.797283e+01	-6.476148e+02
1.000000e-06	-5.140383e-06	-9.773673e-09	-3.760795e+01	-6.451005e+02
1.010000e-06	-5.090218e-06	-9.735328e-09	-3.724093e+01	-6.425447e+02
1.020000e-06	-5.039789e-06	-9.696525e-09	-3.687199e+01	-6.399450e+02
1.030000e-06	-4.989004e-06	-9.656323e-09	-3.650043e+01	-6.372986e+02
1.040000e-06	-4.937804e-06	-9.612214e-09	-3.612584e+01	-6.346023e+02
1.050000e-06	-4.886250e-06	-9.564826e-09	-3.574867e+01	-6.318531e+02
1.060000e-06	-4.834343e-06	-9.518812e-09	-3.536891e+01	-6.290484e+02
1.070000e-06	-4.782041e-06	-9.475768e-09	-3.498626e+01	-6.261860e+02
1.080000e-06	-4.729370e-06	-9.434240e-09	-3.460091e+01	-6.232648e+02
1.090000e-06	-4.676335e-06	-9.389946e-09	-3.421289e+01	-6.202847e+02
1.100000e-06	-4.622967e-06	-9.343208e-09	-3.382244e+01	-6.172465e+02
1.110000e-06	-4.569281e-06	-9.296278e-09	-3.342967e+01	-6.141522e+02
1.120000e-06	-4.515258e-06	-9.251621e-09	-3.303442e+01	-6.110043e+02
1.130000e-06	-4.460926e-06	-9.206634e-09	-3.263692e+01	-6.078060e+02
1.140000e-06	-4.406313e-06	-9.156805e-09	-3.223736e+01	-6.045604e+02
1.150000e-06	-4.351418e-06	-9.106151e-09	-3.183574e+01	-6.012701e+02
1.160000e-06	-4.296211e-06	-9.051996e-09	-3.143184e+01	-5.979371e+02
1.170000e-06	-4.240644e-06	-8.994850e-09	-3.102530e+01	-5.945621e+02
1.180000e-06	-4.184689e-06	-8.936037e-09	-3.061592e+01	-5.911445e+02
1.190000e-06	-4.128351e-06	-8.878789e-09	-3.020375e+01	-5.876825e+02
1.200000e-06	-4.071635e-06	-8.828809e-09	-2.978880e+01	-5.841728e+02
1.210000e-06	-4.014605e-06	-8.784583e-09	-2.937156e+01	-5.806115e+02
1.220000e-06	-3.957260e-06	-8.736518e-09	-2.895201e+01	-5.769939e+02
1.230000e-06	-3.899597e-06	-8.682022e-09	-2.853014e+01	-5.733155e+02
1.240000e-06	-3.841668e-06	-8.619940e-09	-2.810632e+01	-5.695724e+02
1.250000e-06	-3.783455e-06	-8.554508e-09	-2.768042e+01	-5.657614e+02
1.260000e-06	-3.724990e-06	-8.489119e-09	-2.725268e+01	-5.618809e+02
1.270000e-06	-3.666326e-06	-8.426090e-09	-2.682349e+01	-5.579304e+02
1.280000e-06	-3.607422e-06	-8.369813e-09	-2.639254e+01	-5.539109e+02
1.290000e-06	-3.548274e-06	-8.313564e-09	-2.595980e+01	-5.498243e+02
1.300000e-06	-3.488929e-06	-8.254806e-09	-2.552562e+01	-5.456731e+02
1.310000e-06	-3.429351e-06	-8.191529e-09	-2.508974e+01	-5.414601e+02
1.320000e-06	-3.369533e-06	-8.123034e-09	-2.465210e+01	-5.371872e+02
1.330000e-06	-3.309476e-06	-8.051932e-09	-2.421271e+01	-5.328555e+02
1.340000e-06	-3.249167e-06	-7.980927e-09	-2.377148e+01	-5.284646e+02
1.350000e-06	-3.188582e-06	-7.909677e-09	-2.332822e+01	-5.240124e+02
1.360000e-06	-3.127734e-06	-7.839401e-09	-2.288305e+01	-5.194955e+02
1.370000e-06	-3.066674e-06	-7.770689e-09	-2.243632e+01	-5.149089e+02
1.380000e-06	-3.005417e-06	-7.700807e-09	-2.198816e+01	-5.102466e+02
1.390000e-06	-2.943977e-06	-7.628703e-09	-2.153866e+01	-5.055028e+02
1.400000e-06	-2.882318e-06	-7.552608e-09	-2.108755e+01	-5.006714e+02
1.410000e-06	-2.820427e-06	-7.473100e-09	-2.063474e+01	-4.957475e+02
1.420000e-06	-2.758332e-06	-7.395229e-09	-2.018044e+01	-4.907277e+02
1.430000e-06	-2.696029e-06	-7.319163e-09	-1.972462e+01	-4.856100e+02
1.440000e-06	-2.633548e-06	-7.241741e-09	-1.926750e+01	-4.803942e+02
1.450000e-06	-2.570863e-06	-7.163226e-09	-1.880889e+01	-4.750816e+02
1.460000e-06	-2.507940e-06	-7.081950e-09	-1.834853e+01	-4.696748e+02
1.470000e-06	-2.444840e-06	-6.999693e-09	-1.788688e+01	-4.641767e+02
1.480000e-06	-2.381570e-06	-6.915113e-09	-1.742398e+01	-4.585904e+02
1.490000e-06	-2.318118e-06	-6.827873e-09	-1.695976e+01	-4.529180e+02
1.500000e-06	-2.254491e-06	-6.740466e-09	-1.649426e+01	-4.471607e+02
1.510000e-06	-2.190707e-06	-6.651452e-09	-1.602760e+01	-4.413180e+02
1.520000e-06	-2.126805e-06	-6.560669e-09	-1.556008e+01	-4.353876e+02
1.530000e-06	-2.062803e-06	-6.467771e-09	-1.509183e+01	-4.293659e+02
1.540000e-06	-1.998693e-06	-6.374531e-09	-1.462279e+01	-4.232476e+02
1.550000e-06	-1.934463e-06	-6.282281e-09	-1.415287e+01	-4.170267e+02
1.560000e-06	-1.870071e-06	-6.187961e-09	-1.368177e+01	-4.106969e+02
1.570000e-06	-1.805522e-06	-6.090678e-09	-1.320952e+01	-4.042521e+02
1.580000e-06	-1.740862e-06	-5.991727e-09	-1.273645e+01	-3.976869e+02
1.590000e-06	-1.676094e-06	-5.888908e-09	-1.226260e+01	-3.909969e+02
1.600000e-06	-1.611206e-06	-5.784343e-09	-1.178787e+01	-3.841789e+02
1.610000e-06	-1.546193e-06	-5.677318e-09	-1.131222e+01	-3.772310e+02
1.620000e-06	-1.481030e-06	-5.564708e-09	-1.083548e+01	-3.701522e+02
1.630000e-06	-1.415725e-06	-5.450940e-09	-1.035769e+01	-3.629419e+02
1.640000e-06	-1.350319e-06	-5.338994e-09	-9.879174e+00	-3.555998e+02
1.650000e-06	-1.284869e-06	-5.230577e-09	-9.400326e+00	-3.481254e+02
1.660000e-06	-1.219375e-06	-5.119084e-09	-8.921165e+00	-3.405172e+02
1.670000e-06	-1.153790e-06	-5.002203e-09	-8.441328e+00	-3.327730e+02
1.680000e-06	-1.088102e-06	-4.881400e-09	-7.960747e+00	-3.248895e+02
1.690000e-06	-1.022331e-06	-4.757905e-09	-7.479557e+00	-3.168623e+02
1.700000e-06	-9.564718e-07	-4.631436e-09	-6.997717e+00	-3.086862e+02
1.710000e-06	-8.905278e-07	-4.500386e-09	-6.515258e+00	-3.003556e+02
1.720000e-06	-8.245303e-07	-4.368711e-09	-6.032409e+00	-2.918648e+02
1.730000e-06	-7.584499e-07	-4.237847e-09	-5.548953e+00	-2.832082e+02
1.740000e-06	-6.923067e-07	-4.108019e-09	-5.065038e+00	-2.743809e+02
1.750000e-06	-6.261108e-07	-3.974697e-09	-4.580737e+00	-2.653787e+02
1.760000e-06	-5.598502e-07	-3.834793e-09	-4.095963e+00	-2.561982e+02
1.770000e-06	-4.935690e-07	-3.688716e-09	-3.611038e+00	-2.468365e+02
1.780000e-06	-4.272910e-07	-3.540242e-09	-3.126137e+00	-2.372914e+02
1.790000e-06	-3.610044e-07	-3.388692e-09	-2.641172e+00	-2.275607e+02
1.800000e-06	-2.947103e-07	-3.232757e-09	-2.156153e+00	-2.176422e+02
1.810000e-06	-2.284180e-07	-3.075290e-09	-1.671146e+00	-2.075332e+02
1.820000e-06	-1.621209e-07	-2.918943e-09	-1.186105e+00	-1.972302e+02
1.830000e-06	-9.581957e-08	-2.761542e-09	-7.010329e-01	-1.867291e+02
1.840000e-06	-2.950259e-08	-2.597052e-09	-2.158462e-01	-1.760249e+02
1.850000e-06	3.684423e-08	-2.427270e-09	2.695589e-01	-1.651121e+02
1.860000e-06	1.032044e-07	-2.258642e-09	7.550617e-01	-1.539845e+02
1.870000e-06	1.695656e-07	-2.089870e-09	1.240572e+00	-1.426363e+02
1.880000e-06	2.359225e-07	-1.916778e-09	1.726050e+00	-1.310617e+02
1.890000e-06	3.022647e-07	-1.737600e-09	2.211422e+00	-1.192556e+02
1.900000e-06	3.685933e-07	-1.555443e-09	2.696694e+00	-1.072138e+02
1.910000e-06	4.349004e-07	-1.368158e-09	3.181808e+00	-9.493314e+01
1.920000e-06	5.011560e-07	-1.175636e-09	3.666546e+00	-8.241198e+01
1.930000e-06	5.673532e-07	-9.820824e-10	4.150856e+00	-6.964998e+01
1.940000e-06	6.334912e-07	-7.883597e-10	4.634733e+00	-5.664836e+01
1.950000e-06	6.995738e-07	-5.966365e-10	5.118205e+00	-4.340993e+01
1.960000e-06	7.656078e-07	-3.999071e-10	5.601322e+00	-2.993927e+01
1.970000e-06	8.316088e-07	-1.947606e-10	6.084197e+00	-1.624285e+01
1.980000e-06	8.975576e-07	2.006125e-11	6.566690e+00	-2.329335e+00
1.990000e-06	9.634434e-07	2.416659e-10	7.048722e+00	1.179014e+01
2.000000e-06	1.029287e-06	4.657677e-10	7.530449e+00	2.610165e+01
2.010000e-06	1.095060e-06	6.909585e-10	8.011651e+00	4.058814e+01
2.020000e-06	1.160728e-06	9.135548e-10	8.492087e+00	5.522924e+01
2.030000e-06	1.226306e-06	1.129930e-09	8.971868e+00	7.000111e+01
2.040000e-06	1.291765e-06	1.343920e-09	9.450781e+00	8.487652e+01
2.050000e-06	1.357061e-06	1.562779e-09	9.928495e+00	9.982514e+01
2.060000e-06	1.422257e-06	1.789129e-09	1.040548e+01	1.148140e+02
2.070000e-06	1.487360e-06	2.022192e-09	1.088179e+01	1.298081e+02
2.080000e-06	1.552339e-06	2.257685e-09	1.135718e+01	1.447714e+02
2.090000e-06	1.617219e-06	2.490201e-09	1.183186e+01	1.596677e+02
2.100000e-06	1.681977e-06	2.717833e-09	1.230564e+01	1.744615e+02
2.110000e-06	1.746622e-06	2.939610e-09	1.277860e+01	1.891189e+02
2.120000e-06	1.811168e-06	3.150670e-09	1.325082e+01	2.036086e+02
2.130000e-06	1.875590e-06	3.356640e-09	1.372215e+01	2.179024e+02
2.140000e-06	1.939914e-06	3.563289e-09	1.419275e+01	2.319754e+02
2.150000e-06	2.004108e-06	3.771569e-09	1.466241e+01	2.458064e+02
2.160000e-06	2.068146e-06	3.979715e-09	1.513092e+01	2.593777e+02
2.170000e-06	2.132044e-06	4.184335e-09	1.559841e+01	2.726751e+02
2.180000e-06	2.195794e-06	4.383698e-09	1.606482e+01	2.856871e+02
2.190000e-06	2.259406e-06	4.576586e-09	1.653021e+01	2.984051e+02
2.200000e-06	2.322823e-06	4.760468e-09	1.699418e+01	3.108223e+02
2.210000e-06	2.386036e-06	4.935727e-09	1.745666e+01	3.229338e+02
2.220000e-06	2.449107e-06	5.108202e-09	1.791810e+01	3.347362e+02
2.230000e-06	2.512010e-06	5.280419e-09	1.837831e+01	3.462272e+02
2.240000e-06	2.574760e-06	5.450974e-09	1.883740e+01	3.574055e+02
2.250000e-06	2.637370e-06	5.617640e-09	1.929547e+01	3.682710e+02
2.260000e-06	2.699752e-06	5.780062e-09	1.975186e+01	3.788245e+02
2.270000e-06	2.761889e-06	5.940207e-09	2.020647e+01	3.890676e+02
2.280000e-06	2.823786e-06	6.096629e-09	2.065932e+01	3.990033e+02
2.290000e-06	2.885458e-06	6.244290e-09	2.111052e+01	4.086353e+02
2.300000e-06	2.946933e-06	6.383725e-09	2.156028e+01	4.179682e+02
2.310000e-06	3.008195e-06	6.518046e-09	2.200848e+01	4.270073e+02
2.320000e-06	3.069230e-06	6.646719e-09	2.245503e+01	4.357588e+02
2.330000e-06	3.130051e-06	6.769320e-09	2.290001e+01	4.442292e+02
2.340000e-06	3.190649e-06	6.889080e-09	2.334335e+01	4.524254e+02
2.350000e-06	3.250993e-06	7.008153e-09	2.378484e+01	4.603547e+02
2.360000e-06	3.311051e-06	7.125616e-09	2.422423e+01	4.680248e+02
2.370000e-06	3.370888e-06	7.237477e-09	2.466201e+01	4.754435e+02
2.380000e-06	3.430552e-06	7.342105e-09	2.509852e+01	4.826192e+02
2.390000e-06	3.489966e-06	7.444462e-09	2.553321e+01	4.895608e+02
2.400000e-06	3.549094e-06	7.545517e-09	2.596580e+01	4.962777e+02
2.410000e-06	3.607981e-06	7.642619e-09	2.639662e+01	5.027801e+02
2.420000e-06	3.666641e-06	7.735035e-09	2.682579e+01	5.090785e+02
2.430000e-06	3.725059e-06	7.825170e-09	2.725319e+01	5.151839e+02
2.440000e-06	3.783217e-06	7.916494e-09	2.767868e+01	5.211078e+02
2.450000e-06	3.841073e-06	8.006657e-09	2.810196e+01	5.268613e+02
2.460000e-06	3.898626e-06	8.092925e-09	2.852304e+01	5.324553e+02
2.470000e-06	3.955897e-06	8.176896e-09	2.894204e+01	5.378997e+02
2.480000e-06	4.012872e-06	8.260937e-09	2.935888e+01	5.432033e+02
2.490000e-06	4.069538e-06	8.343295e-09	2.977346e+01	5.483737e+02
2.500000e-06	4.125926e-06	8.419754e-09	3.018601e+01	5.534168e+02
2.510000e-06	4.181994e-06	8.491163e-09	3.059621e+01	5.583370e+02
2.520000e-06	4.237691e-06	8.560874e-09	3.100369e+01	5.631372e+02
2.530000e-06	4.293052e-06	8.630437e-09	3.140872e+01	5.678191e+02
2.540000e-06	4.348120e-06	8.697954e-09	3.181161e+01	5.723837e+02
2.550000e-06	4.402912e-06	8.763930e-09	3.221248e+01	5.768315e+02
2.560000e-06	4.457413e-06	8.831556e-09	3.261122e+01	5.811631e+02
2.570000e-06	4.511568e-06	8.899892e-09	3.300742e+01	5.853795e+02
2.580000e-06	4.565336e-06	8.964961e-09	3.340080e+01	5.894825e+02
2.590000e-06	4.618745e-06	9.022656e-09	3.379156e+01	5.934748e+02
2.600000e-06	4.671864e-06	9.077738e-09	3.418018e+01	5.973602e+02
2.610000e-06	4.724662e-06	9.131282e-09	3.456646e+01	6.011432e+02
2.620000e-06	4.777091e-06	9.181439e-09	3.495004e+01	6.048294e+02
2.630000e-06	4.829138e-06	9.230566e-09	3.533083e+01	6.084246e+02
2.640000e-06	4.880820e-06	9.280641e-09	3.570894e+01	6.119350e+02
2.650000e-06	4.932173e-06	9.335401e-09	3.608465e+01	6.153664e+02
2.660000e-06	4.983192e-06	9.390920e-09	3.645791e+01	6.187244e+02
2.670000e-06	5.033874e-06	9.440659e-09	3.682871e+01	6.220140e+02
2.680000e-06	5.084209e-06	9.484440e-09	3.719697e+01	6.252390e+02
2.690000e-06	5.134221e-06	9.526812e-09	3.756287e+01	6.284027e+02
2.700000e-06	5.183915e-06	9.569364e-09	3.792644e+01	6.315075e+02
2.710000e-06	5.233212e-06	9.610152e-09	3.828710e+01	6.345549e+02
2.720000e-06	5.282092e-06	9.651486e-09	3.864472e+01	6.375457e+02
2.730000e-06	5.330596e-06	9.695638e-09	3.899958e+01	6.404804e+02
2.740000e-06	5.378729e-06	9.741249e-09	3.935173e+01	6.433591e+02
2.750000e-06	5.426442e-06	9.785017e-09	3.970081e+01	6.461814e+02
2.760000e-06	5.473718e-06	9.823328e-09	4.004669e+01	6.489472e+02
2.770000e-06	5.520603e-06	9.857951e-09	4.038970e+01	6.516560e+02
2.780000e-06	5.567102e-06	9.892622e-09	4.072990e+01	6.543075e+02
2.790000e-06	5.613140e-06	9.929037e-09	4.106672e+01	6.569015e+02
2.800000e-06	5.658727e-06	9.966670e-09	4.140024e+01	6.594377e+02
2.810000e-06	5.703942e-06	1.000400e-08	4.173104e+01	6.619163e+02
2.820000e-06	5.748755e-06	1.004180e-08	4.205890e+01	6.643376e+02
2.830000e-06	5.793140e-06	1.007765e-08	4.238363e+01	6.667022e+02
2.840000e-06	5.837144e-06	1.010946e-08	4.270557e+01	6.690111e+02
2.850000e-06	5.880759e-06	1.013956e-08	4.302467e+01	6.712657e+02
2.860000e-06	5.923923e-06	1.016938e-08	4.334046e+01	6.734678e+02
2.870000e-06	5.966609e-06	1.020024e-08	4.365276e+01	6.756193e+02
2.880000e-06	6.008856e-06	1.023058e-08	4.396185e+01	6.777226e+02
2.890000e-06	6.050681e-06	1.026250e-08	4.426785e+01	6.797800e+02
2.900000e-06	6.092049e-06	1.029621e-08	4.457050e+01	6.817936e+02
