# Temperatura_=_20.0
# Concentracion g/m^3_=_10000.0
# C_Vs_to_Am_M_A/Vsm_=_65563218390.804596
# pendiente_HvsI_1/m_=_3716.3
# ordenada_HvsI_A/m_=_1297.0
# frecuencia_Hz_=_135393.70219873413

Tiempo_(s)	Campo_(V.s)	Magnetizacion_(V.s)	Campo_(kA/m)	Magnetizacion_(A/m)
0.000000e+00	-7.823568e-06	-5.605704e-10	-5.698024e+01	-3.629396e+01
1.000000e-08	-7.823510e-06	-5.574141e-10	-5.697983e+01	-3.632255e+01
2.000000e-08	-7.822903e-06	-5.530636e-10	-5.697540e+01	-3.633199e+01
3.000000e-08	-7.821671e-06	-5.576632e-10	-5.696643e+01	-3.631696e+01
4.000000e-08	-7.819969e-06	-5.647166e-10	-5.695404e+01	-3.627519e+01
5.000000e-08	-7.817841e-06	-5.674129e-10	-5.693854e+01	-3.620810e+01
6.000000e-08	-7.815205e-06	-5.684825e-10	-5.691934e+01	-3.612099e+01
7.000000e-08	-7.812119e-06	-5.658630e-10	-5.689686e+01	-3.602264e+01
8.000000e-08	-7.808553e-06	-5.497328e-10	-5.687089e+01	-3.592440e+01
9.000000e-08	-7.804283e-06	-5.369110e-10	-5.683979e+01	-3.583884e+01
1.000000e-07	-7.799071e-06	-5.983528e-10	-5.680183e+01	-3.577824e+01
1.100000e-07	-7.792569e-06	-6.273320e-10	-5.675447e+01	-3.575291e+01
1.200000e-07	-7.784933e-06	-5.756358e-10	-5.669886e+01	-3.576983e+01
1.300000e-07	-7.776921e-06	-4.361409e-10	-5.664051e+01	-3.583163e+01
1.400000e-07	-7.769034e-06	-5.168899e-10	-5.658307e+01	-3.593611e+01
1.500000e-07	-7.760884e-06	-7.320963e-10	-5.652371e+01	-3.607635e+01
1.600000e-07	-7.751931e-06	-5.062169e-10	-5.645851e+01	-3.624152e+01
1.700000e-07	-7.742661e-06	-3.932317e-10	-5.639099e+01	-3.641807e+01
1.800000e-07	-7.733235e-06	-6.828905e-10	-5.632234e+01	-3.659137e+01
1.900000e-07	-7.722930e-06	-6.282937e-10	-5.624729e+01	-3.674734e+01
2.000000e-07	-7.711912e-06	-4.117162e-10	-5.616704e+01	-3.687410e+01
2.100000e-07	-7.700697e-06	-5.888585e-10	-5.608536e+01	-3.696319e+01
2.200000e-07	-7.688899e-06	-6.680963e-10	-5.599943e+01	-3.701039e+01
2.300000e-07	-7.676402e-06	-3.921589e-10	-5.590841e+01	-3.701583e+01
2.400000e-07	-7.663586e-06	-5.601749e-10	-5.581508e+01	-3.698368e+01
2.500000e-07	-7.650198e-06	-6.915591e-10	-5.571756e+01	-3.692121e+01
2.600000e-07	-7.636035e-06	-4.399956e-10	-5.561441e+01	-3.683755e+01
2.700000e-07	-7.621356e-06	-4.853843e-10	-5.550750e+01	-3.674225e+01
2.800000e-07	-7.606089e-06	-6.242331e-10	-5.539631e+01	-3.664396e+01
2.900000e-07	-7.590247e-06	-4.821748e-10	-5.528094e+01	-3.654927e+01
3.000000e-07	-7.574075e-06	-4.959016e-10	-5.516315e+01	-3.646202e+01
3.100000e-07	-7.557274e-06	-5.706400e-10	-5.504078e+01	-3.638305e+01
3.200000e-07	-7.539716e-06	-4.592325e-10	-5.491291e+01	-3.631045e+01
3.300000e-07	-7.521780e-06	-5.560953e-10	-5.478228e+01	-3.624026e+01
3.400000e-07	-7.503342e-06	-5.905765e-10	-5.464799e+01	-3.616738e+01
3.500000e-07	-7.484253e-06	-4.731004e-10	-5.450896e+01	-3.608672e+01
3.600000e-07	-7.464653e-06	-5.031423e-10	-5.436621e+01	-3.599414e+01
3.700000e-07	-7.444421e-06	-5.531768e-10	-5.421886e+01	-3.588730e+01
3.800000e-07	-7.423461e-06	-4.844645e-10	-5.406621e+01	-3.576603e+01
3.900000e-07	-7.401921e-06	-5.450987e-10	-5.390932e+01	-3.563240e+01
4.000000e-07	-7.379827e-06	-5.154406e-10	-5.374841e+01	-3.549033e+01
4.100000e-07	-7.357154e-06	-4.726826e-10	-5.358328e+01	-3.534486e+01
4.200000e-07	-7.333895e-06	-5.498978e-10	-5.341388e+01	-3.520127e+01
4.300000e-07	-7.310086e-06	-5.400263e-10	-5.324048e+01	-3.506413e+01
4.400000e-07	-7.285787e-06	-4.641145e-10	-5.306350e+01	-3.493649e+01
4.500000e-07	-7.261062e-06	-4.966488e-10	-5.288343e+01	-3.481930e+01
4.600000e-07	-7.235898e-06	-5.252784e-10	-5.270015e+01	-3.471124e+01
4.700000e-07	-7.210260e-06	-5.042239e-10	-5.251343e+01	-3.460884e+01
4.800000e-07	-7.184056e-06	-5.000861e-10	-5.232258e+01	-3.450708e+01
4.900000e-07	-7.157209e-06	-4.846543e-10	-5.212705e+01	-3.440014e+01
5.000000e-07	-7.129843e-06	-4.839411e-10	-5.192774e+01	-3.428236e+01
5.100000e-07	-7.102014e-06	-5.040734e-10	-5.172506e+01	-3.414914e+01
5.200000e-07	-7.073677e-06	-5.061962e-10	-5.151867e+01	-3.399773e+01
5.300000e-07	-7.044832e-06	-4.709355e-10	-5.130859e+01	-3.382766e+01
5.400000e-07	-7.015445e-06	-4.849905e-10	-5.109457e+01	-3.364084e+01
5.500000e-07	-6.985401e-06	-5.044195e-10	-5.087575e+01	-3.344135e+01
5.600000e-07	-6.954717e-06	-4.950032e-10	-5.065227e+01	-3.323480e+01
5.700000e-07	-6.923477e-06	-4.700633e-10	-5.042475e+01	-3.302751e+01
5.800000e-07	-6.891737e-06	-4.551869e-10	-5.019358e+01	-3.282560e+01
5.900000e-07	-6.859532e-06	-4.602020e-10	-4.995903e+01	-3.263407e+01
6.000000e-07	-6.826877e-06	-4.789831e-10	-4.972119e+01	-3.245612e+01
6.100000e-07	-6.793763e-06	-4.598705e-10	-4.948002e+01	-3.229273e+01
6.200000e-07	-6.760185e-06	-4.476225e-10	-4.923547e+01	-3.214256e+01
6.300000e-07	-6.726148e-06	-4.625992e-10	-4.898757e+01	-3.200222e+01
6.400000e-07	-6.691693e-06	-4.740429e-10	-4.873663e+01	-3.186684e+01
6.500000e-07	-6.656820e-06	-4.657708e-10	-4.848264e+01	-3.173087e+01
6.600000e-07	-6.621451e-06	-4.446067e-10	-4.822504e+01	-3.158887e+01
6.700000e-07	-6.585537e-06	-4.371863e-10	-4.796348e+01	-3.143639e+01
6.800000e-07	-6.549126e-06	-4.445278e-10	-4.769829e+01	-3.127055e+01
6.900000e-07	-6.512254e-06	-4.496886e-10	-4.742975e+01	-3.109045e+01
7.000000e-07	-6.474909e-06	-4.378505e-10	-4.715775e+01	-3.089723e+01
7.100000e-07	-6.437122e-06	-4.326322e-10	-4.688255e+01	-3.069384e+01
7.200000e-07	-6.398915e-06	-4.445330e-10	-4.660428e+01	-3.048455e+01
7.300000e-07	-6.360257e-06	-4.515106e-10	-4.632273e+01	-3.027430e+01
7.400000e-07	-6.321160e-06	-4.364425e-10	-4.603798e+01	-3.006797e+01
7.500000e-07	-6.281632e-06	-4.194432e-10	-4.575009e+01	-2.986969e+01
7.600000e-07	-6.241617e-06	-4.118663e-10	-4.545865e+01	-2.968231e+01
7.700000e-07	-6.201122e-06	-4.158762e-10	-4.516373e+01	-2.950705e+01
7.800000e-07	-6.160207e-06	-4.119942e-10	-4.486574e+01	-2.934344e+01
7.900000e-07	-6.118862e-06	-4.022319e-10	-4.456461e+01	-2.918946e+01
8.000000e-07	-6.077012e-06	-4.019198e-10	-4.425981e+01	-2.904190e+01
8.100000e-07	-6.034682e-06	-4.147273e-10	-4.395152e+01	-2.889683e+01
8.200000e-07	-5.991912e-06	-4.191304e-10	-4.364002e+01	-2.875017e+01
8.300000e-07	-5.948687e-06	-4.083464e-10	-4.332520e+01	-2.859814e+01
8.400000e-07	-5.905029e-06	-3.970651e-10	-4.300724e+01	-2.843769e+01
8.500000e-07	-5.860967e-06	-3.989331e-10	-4.268632e+01	-2.826677e+01
8.600000e-07	-5.816553e-06	-4.038967e-10	-4.236285e+01	-2.808439e+01
8.700000e-07	-5.771791e-06	-3.952397e-10	-4.203684e+01	-2.789056e+01
8.800000e-07	-5.726617e-06	-3.826247e-10	-4.170783e+01	-2.768615e+01
8.900000e-07	-5.680974e-06	-3.787399e-10	-4.137541e+01	-2.747259e+01
9.000000e-07	-5.634836e-06	-3.828448e-10	-4.103938e+01	-2.725166e+01
9.100000e-07	-5.588224e-06	-3.803757e-10	-4.069989e+01	-2.702524e+01
9.200000e-07	-5.541173e-06	-3.700270e-10	-4.035722e+01	-2.679511e+01
9.300000e-07	-5.493694e-06	-3.657042e-10	-4.001142e+01	-2.656293e+01
9.400000e-07	-5.445797e-06	-3.713434e-10	-3.966257e+01	-2.633013e+01
9.500000e-07	-5.397514e-06	-3.714056e-10	-3.931092e+01	-2.609801e+01
9.600000e-07	-5.348846e-06	-3.612187e-10	-3.895647e+01	-2.586776e+01
9.700000e-07	-5.299780e-06	-3.503840e-10	-3.859911e+01	-2.564045e+01
9.800000e-07	-5.250309e-06	-3.480709e-10	-3.823881e+01	-2.541708e+01
9.900000e-07	-5.200474e-06	-3.500388e-10	-3.787585e+01	-2.519844e+01
1.000000e-06	-5.150336e-06	-3.471430e-10	-3.751069e+01	-2.498502e+01
1.010000e-06	-5.099921e-06	-3.414099e-10	-3.714351e+01	-2.477688e+01
1.020000e-06	-5.049177e-06	-3.427681e-10	-3.677393e+01	-2.457348e+01
1.030000e-06	-4.998023e-06	-3.481038e-10	-3.640137e+01	-2.437355e+01
1.040000e-06	-4.946465e-06	-3.436610e-10	-3.602586e+01	-2.417516e+01
1.050000e-06	-4.894504e-06	-3.316485e-10	-3.564742e+01	-2.397571e+01
1.060000e-06	-4.842167e-06	-3.223699e-10	-3.526625e+01	-2.377219e+01
1.070000e-06	-4.789470e-06	-3.186750e-10	-3.488245e+01	-2.356145e+01
1.080000e-06	-4.736416e-06	-3.162315e-10	-3.449605e+01	-2.334057e+01
1.090000e-06	-4.683046e-06	-3.105678e-10	-3.410734e+01	-2.310722e+01
1.100000e-06	-4.629372e-06	-3.067301e-10	-3.371642e+01	-2.286003e+01
1.110000e-06	-4.575383e-06	-3.098972e-10	-3.332321e+01	-2.259874e+01
1.120000e-06	-4.521058e-06	-3.157370e-10	-3.292756e+01	-2.232438e+01
1.130000e-06	-4.466402e-06	-3.136761e-10	-3.252949e+01	-2.203911e+01
1.140000e-06	-4.411436e-06	-3.066410e-10	-3.212916e+01	-2.174603e+01
1.150000e-06	-4.356175e-06	-3.024618e-10	-3.172669e+01	-2.144879e+01
1.160000e-06	-4.300604e-06	-2.968003e-10	-3.132196e+01	-2.115113e+01
1.170000e-06	-4.244702e-06	-2.861704e-10	-3.091481e+01	-2.085642e+01
1.180000e-06	-4.188384e-06	-2.726800e-10	-3.050464e+01	-2.056730e+01
1.190000e-06	-4.131653e-06	-2.663079e-10	-3.009146e+01	-2.028532e+01
1.200000e-06	-4.074587e-06	-2.695538e-10	-2.967585e+01	-2.001088e+01
1.210000e-06	-4.017174e-06	-2.752030e-10	-2.925770e+01	-1.974328e+01
1.220000e-06	-3.959412e-06	-2.763488e-10	-2.883701e+01	-1.948093e+01
1.230000e-06	-3.901387e-06	-2.727168e-10	-2.841440e+01	-1.922174e+01
1.240000e-06	-3.843142e-06	-2.672315e-10	-2.799019e+01	-1.896352e+01
1.250000e-06	-3.784654e-06	-2.586611e-10	-2.756421e+01	-1.870442e+01
1.260000e-06	-3.725945e-06	-2.466266e-10	-2.713663e+01	-1.844322e+01
1.270000e-06	-3.666999e-06	-2.347847e-10	-2.670731e+01	-1.817959e+01
1.280000e-06	-3.607814e-06	-2.313120e-10	-2.627627e+01	-1.791408e+01
1.290000e-06	-3.548406e-06	-2.362300e-10	-2.584359e+01	-1.764796e+01
1.300000e-06	-3.488757e-06	-2.416438e-10	-2.540915e+01	-1.738296e+01
1.310000e-06	-3.428858e-06	-2.450704e-10	-2.497290e+01	-1.712084e+01
1.320000e-06	-3.368700e-06	-2.440928e-10	-2.453476e+01	-1.686299e+01
1.330000e-06	-3.308272e-06	-2.386181e-10	-2.409465e+01	-1.661008e+01
1.340000e-06	-3.247563e-06	-2.301857e-10	-2.365250e+01	-1.636180e+01
1.350000e-06	-3.186590e-06	-2.197201e-10	-2.320842e+01	-1.611680e+01
1.360000e-06	-3.125383e-06	-2.078426e-10	-2.276264e+01	-1.587281e+01
1.370000e-06	-3.063972e-06	-2.004935e-10	-2.231538e+01	-1.562695e+01
1.380000e-06	-3.002375e-06	-1.976568e-10	-2.186675e+01	-1.537614e+01
1.390000e-06	-2.940595e-06	-1.975777e-10	-2.141681e+01	-1.511760e+01
1.400000e-06	-2.878624e-06	-1.982441e-10	-2.096546e+01	-1.484934e+01
1.410000e-06	-2.816422e-06	-1.983574e-10	-2.051244e+01	-1.457048e+01
1.420000e-06	-2.753986e-06	-1.981748e-10	-2.005771e+01	-1.428148e+01
1.430000e-06	-2.691360e-06	-1.929715e-10	-1.960158e+01	-1.398413e+01
1.440000e-06	-2.628547e-06	-1.847009e-10	-1.914411e+01	-1.368131e+01
1.450000e-06	-2.565533e-06	-1.757212e-10	-1.868517e+01	-1.337660e+01
1.460000e-06	-2.502302e-06	-1.684638e-10	-1.822465e+01	-1.307372e+01
1.470000e-06	-2.438873e-06	-1.646783e-10	-1.776269e+01	-1.277601e+01
1.480000e-06	-2.375286e-06	-1.641757e-10	-1.729958e+01	-1.248586e+01
1.490000e-06	-2.311526e-06	-1.646067e-10	-1.683520e+01	-1.220436e+01
1.500000e-06	-2.247606e-06	-1.632161e-10	-1.636966e+01	-1.193110e+01
1.510000e-06	-2.183535e-06	-1.605665e-10	-1.590302e+01	-1.166423e+01
1.520000e-06	-2.119302e-06	-1.559949e-10	-1.543520e+01	-1.140072e+01
1.530000e-06	-2.054927e-06	-1.472197e-10	-1.496635e+01	-1.113679e+01
1.540000e-06	-1.990439e-06	-1.386575e-10	-1.449668e+01	-1.086852e+01
1.550000e-06	-1.925839e-06	-1.339009e-10	-1.402618e+01	-1.059237e+01
1.560000e-06	-1.861116e-06	-1.322228e-10	-1.355479e+01	-1.030572e+01
1.570000e-06	-1.796262e-06	-1.277424e-10	-1.308245e+01	-1.000723e+01
1.580000e-06	-1.731264e-06	-1.237060e-10	-1.260906e+01	-9.696935e+00
1.590000e-06	-1.666152e-06	-1.228955e-10	-1.213484e+01	-9.376244e+00
1.600000e-06	-1.600962e-06	-1.242442e-10	-1.166005e+01	-9.047590e+00
1.610000e-06	-1.535640e-06	-1.218223e-10	-1.118431e+01	-8.714011e+00
1.620000e-06	-1.470133e-06	-1.121138e-10	-1.070720e+01	-8.378626e+00
1.630000e-06	-1.404491e-06	-1.011213e-10	-1.022912e+01	-8.044128e+00
1.640000e-06	-1.338801e-06	-9.231161e-11	-9.750694e+00	-7.712373e+00
1.650000e-06	-1.273057e-06	-8.882599e-11	-9.271872e+00	-7.384145e+00
1.660000e-06	-1.207225e-06	-8.412418e-11	-8.792402e+00	-7.059113e+00
1.670000e-06	-1.141309e-06	-7.916197e-11	-8.312329e+00	-6.736016e+00
1.680000e-06	-1.075293e-06	-7.620790e-11	-7.831527e+00	-6.413007e+00
1.690000e-06	-1.009214e-06	-7.493264e-11	-7.350262e+00	-6.088111e+00
1.700000e-06	-9.430727e-07	-7.141051e-11	-6.868544e+00	-5.759707e+00
1.710000e-06	-8.768565e-07	-6.397577e-11	-6.386281e+00	-5.426941e+00
1.720000e-06	-8.105763e-07	-5.745164e-11	-5.903552e+00	-5.089996e+00
1.730000e-06	-7.442345e-07	-5.458349e-11	-5.420374e+00	-4.750160e+00
1.740000e-06	-6.778324e-07	-5.179440e-11	-4.936757e+00	-4.409681e+00
1.750000e-06	-6.113723e-07	-4.595373e-11	-4.452719e+00	-4.071416e+00
1.760000e-06	-5.448662e-07	-3.999742e-11	-3.968344e+00	-3.738347e+00
1.770000e-06	-4.783162e-07	-3.673933e-11	-3.483650e+00	-3.413028e+00
1.780000e-06	-4.117607e-07	-3.518532e-11	-2.998916e+00	-3.097072e+00
1.790000e-06	-3.451961e-07	-3.034367e-11	-2.514116e+00	-2.790768e+00
1.800000e-06	-2.786276e-07	-2.404380e-11	-2.029288e+00	-2.492889e+00
1.810000e-06	-2.120787e-07	-1.794652e-11	-1.544602e+00	-2.200751e+00
1.820000e-06	-1.455231e-07	-1.506703e-11	-1.059867e+00	-1.910518e+00
1.830000e-06	-7.894622e-08	-9.154713e-12	-5.749774e-01	-1.617698e+00
1.840000e-06	-1.236604e-08	-6.575329e-13	-9.006378e-02	-1.317783e+00
1.850000e-06	5.424105e-08	3.037975e-12	3.950459e-01	-1.006911e+00
1.860000e-06	1.208899e-07	3.814270e-12	8.804600e-01	-6.824586e-01
1.870000e-06	1.875481e-07	4.532504e-12	1.365942e+00	-3.434615e-01
1.880000e-06	2.541899e-07	9.781328e-12	1.851304e+00	9.207924e-03
1.890000e-06	3.208112e-07	1.612791e-11	2.336517e+00	3.729347e-01
1.900000e-06	3.874079e-07	2.076271e-11	2.821551e+00	7.437202e-01
1.910000e-06	4.539611e-07	2.368338e-11	3.306268e+00	1.116752e+00
1.920000e-06	5.204670e-07	2.629639e-11	3.790641e+00	1.487096e+00
1.930000e-06	5.869271e-07	2.986914e-11	4.274680e+00	1.850410e+00
1.940000e-06	6.533562e-07	3.098743e-11	4.758494e+00	2.203553e+00
1.950000e-06	7.197002e-07	3.109029e-11	5.241687e+00	2.545016e+00
1.960000e-06	7.859355e-07	3.427390e-11	5.724089e+00	2.875084e+00
1.970000e-06	8.521435e-07	4.136052e-11	6.206292e+00	3.195722e+00
1.980000e-06	9.183217e-07	5.154364e-11	6.688278e+00	3.510198e+00
1.990000e-06	9.844331e-07	6.055433e-11	7.169777e+00	3.822501e+00
2.000000e-06	1.050477e-06	6.841825e-11	7.650786e+00	4.136654e+00
2.010000e-06	1.116458e-06	7.359258e-11	8.131334e+00	4.456027e+00
2.020000e-06	1.182376e-06	7.272712e-11	8.611428e+00	4.782763e+00
2.030000e-06	1.248199e-06	6.799329e-11	9.090821e+00	5.117405e+00
2.040000e-06	1.313941e-06	6.535299e-11	9.569631e+00	5.458788e+00
2.050000e-06	1.379610e-06	6.809390e-11	1.004791e+01	5.804208e+00
2.060000e-06	1.445126e-06	7.455478e-11	1.052507e+01	6.149835e+00
2.070000e-06	1.510470e-06	8.331487e-11	1.100098e+01	6.491313e+00
2.080000e-06	1.575693e-06	9.329067e-11	1.147601e+01	6.824448e+00
2.090000e-06	1.640775e-06	1.021091e-10	1.195002e+01	7.145867e+00
2.100000e-06	1.705736e-06	1.038370e-10	1.242314e+01	7.453556e+00
2.110000e-06	1.770651e-06	1.019161e-10	1.289592e+01	7.747180e+00
2.120000e-06	1.835484e-06	1.001379e-10	1.336811e+01	8.028155e+00
2.130000e-06	1.900216e-06	1.007912e-10	1.383956e+01	8.299447e+00
2.140000e-06	1.964830e-06	1.048313e-10	1.431016e+01	8.565145e+00
2.150000e-06	2.029304e-06	1.121199e-10	1.477974e+01	8.829869e+00
2.160000e-06	2.093627e-06	1.236420e-10	1.524821e+01	9.098121e+00
2.170000e-06	2.157751e-06	1.328452e-10	1.571523e+01	9.373669e+00
2.180000e-06	2.221696e-06	1.398058e-10	1.618095e+01	9.659061e+00
2.190000e-06	2.285459e-06	1.409043e-10	1.664535e+01	9.955350e+00
2.200000e-06	2.349021e-06	1.385220e-10	1.710828e+01	1.026205e+01
2.210000e-06	2.412420e-06	1.370160e-10	1.757002e+01	1.057734e+01
2.220000e-06	2.475659e-06	1.375361e-10	1.803060e+01	1.089847e+01
2.230000e-06	2.538740e-06	1.420779e-10	1.849003e+01	1.122223e+01
2.240000e-06	2.601639e-06	1.475136e-10	1.894814e+01	1.154560e+01
2.250000e-06	2.664379e-06	1.535424e-10	1.940508e+01	1.186617e+01
2.260000e-06	2.726968e-06	1.596715e-10	1.986093e+01	1.218256e+01
2.270000e-06	2.789357e-06	1.660166e-10	2.031532e+01	1.249455e+01
2.280000e-06	2.851533e-06	1.712697e-10	2.076815e+01	1.280310e+01
2.290000e-06	2.913500e-06	1.767115e-10	2.121947e+01	1.311007e+01
2.300000e-06	2.975240e-06	1.836802e-10	2.166913e+01	1.341782e+01
2.310000e-06	3.036763e-06	1.906416e-10	2.211721e+01	1.372876e+01
2.320000e-06	3.098079e-06	1.942629e-10	2.256379e+01	1.404485e+01
2.330000e-06	3.159108e-06	1.949566e-10	2.300827e+01	1.436722e+01
2.340000e-06	3.219870e-06	1.939849e-10	2.345081e+01	1.469589e+01
2.350000e-06	3.280385e-06	1.954335e-10	2.389155e+01	1.502971e+01
2.360000e-06	3.340649e-06	1.991828e-10	2.433046e+01	1.536650e+01
2.370000e-06	3.400678e-06	2.026689e-10	2.476766e+01	1.570331e+01
2.380000e-06	3.460485e-06	2.060784e-10	2.520324e+01	1.603685e+01
2.390000e-06	3.520081e-06	2.113021e-10	2.563729e+01	1.636398e+01
2.400000e-06	3.579434e-06	2.175799e-10	2.606956e+01	1.668210e+01
2.410000e-06	3.638545e-06	2.217428e-10	2.650008e+01	1.698951e+01
2.420000e-06	3.697431e-06	2.251868e-10	2.692895e+01	1.728561e+01
2.430000e-06	3.756085e-06	2.300934e-10	2.735615e+01	1.757095e+01
2.440000e-06	3.814481e-06	2.377235e-10	2.778145e+01	1.784701e+01
2.450000e-06	3.872562e-06	2.440395e-10	2.820446e+01	1.811599e+01
2.460000e-06	3.930315e-06	2.495368e-10	2.862508e+01	1.838037e+01
2.470000e-06	3.987768e-06	2.549028e-10	2.904352e+01	1.864254e+01
2.480000e-06	4.044930e-06	2.588659e-10	2.945985e+01	1.890443e+01
2.490000e-06	4.101773e-06	2.617359e-10	2.987384e+01	1.916722e+01
2.500000e-06	4.158291e-06	2.629404e-10	3.028547e+01	1.943125e+01
2.510000e-06	4.214497e-06	2.673493e-10	3.069483e+01	1.969597e+01
2.520000e-06	4.270361e-06	2.738495e-10	3.110170e+01	1.996016e+01
2.530000e-06	4.325917e-06	2.783302e-10	3.150631e+01	2.022215e+01
2.540000e-06	4.381185e-06	2.814829e-10	3.190884e+01	2.048015e+01
2.550000e-06	4.436182e-06	2.840873e-10	3.230939e+01	2.073259e+01
2.560000e-06	4.490826e-06	2.870422e-10	3.270737e+01	2.097839e+01
2.570000e-06	4.545086e-06	2.894949e-10	3.310256e+01	2.121712e+01
2.580000e-06	4.599007e-06	2.919710e-10	3.349527e+01	2.144911e+01
2.590000e-06	4.652590e-06	2.949645e-10	3.388552e+01	2.167541e+01
2.600000e-06	4.705866e-06	3.004382e-10	3.427354e+01	2.189762e+01
2.610000e-06	4.758816e-06	3.077149e-10	3.465918e+01	2.211767e+01
2.620000e-06	4.811376e-06	3.125263e-10	3.504199e+01	2.233760e+01
2.630000e-06	4.863564e-06	3.148485e-10	3.542209e+01	2.255927e+01
2.640000e-06	4.915437e-06	3.151770e-10	3.579989e+01	2.278423e+01
2.650000e-06	4.966981e-06	3.143995e-10	3.617529e+01	2.301351e+01
2.660000e-06	5.018181e-06	3.138323e-10	3.654818e+01	2.324762e+01
2.670000e-06	5.069010e-06	3.147641e-10	3.691838e+01	2.348660e+01
2.680000e-06	5.119475e-06	3.179782e-10	3.728592e+01	2.373003e+01
2.690000e-06	5.169624e-06	3.225573e-10	3.765116e+01	2.397723e+01
2.700000e-06	5.219446e-06	3.309084e-10	3.801402e+01	2.422734e+01
2.710000e-06	5.268866e-06	3.399441e-10	3.837396e+01	2.447944e+01
2.720000e-06	5.317883e-06	3.460861e-10	3.873096e+01	2.473263e+01
2.730000e-06	5.366526e-06	3.492870e-10	3.908523e+01	2.498604e+01
2.740000e-06	5.414749e-06	3.485604e-10	3.943645e+01	2.523887e+01
2.750000e-06	5.462544e-06	3.471480e-10	3.978454e+01	2.549035e+01
2.760000e-06	5.509927e-06	3.470477e-10	4.012965e+01	2.573971e+01
2.770000e-06	5.556933e-06	3.530778e-10	4.047199e+01	2.598620e+01
2.780000e-06	5.603543e-06	3.613862e-10	4.081146e+01	2.622907e+01
2.790000e-06	5.649737e-06	3.689042e-10	4.114790e+01	2.646766e+01
2.800000e-06	5.695506e-06	3.770329e-10	4.148125e+01	2.670147e+01
2.810000e-06	5.740801e-06	3.817068e-10	4.181113e+01	2.693027e+01
2.820000e-06	5.785669e-06	3.834830e-10	4.213792e+01	2.715414e+01
2.830000e-06	5.830133e-06	3.794008e-10	4.246175e+01	2.737355e+01
2.840000e-06	5.874208e-06	3.742205e-10	4.278276e+01	2.758937e+01
2.850000e-06	5.917911e-06	3.717214e-10	4.310105e+01	2.780276e+01
2.860000e-06	5.961202e-06	3.736960e-10	4.341635e+01	2.801506e+01
2.870000e-06	6.004052e-06	3.807152e-10	4.372843e+01	2.822761e+01
2.880000e-06	6.046441e-06	3.909159e-10	4.403716e+01	2.844154e+01
2.890000e-06	6.088363e-06	4.034676e-10	4.434249e+01	2.865753e+01
2.900000e-06	6.129837e-06	4.135095e-10	4.464454e+01	2.887571e+01
2.910000e-06	6.170854e-06	4.182415e-10	4.494328e+01	2.909555e+01
