# Temperatura_=_20.0
# Concentracion g/m^3_=_10000.0
# C_Vs_to_Am_M_A/Vsm_=_65563218390.804596
# pendiente_HvsI_1/m_=_3716.3
# ordenada_HvsI_A/m_=_1297.0
# frecuencia_Hz_=_135406.7621789146

Tiempo_(s)	Campo_(V.s)	Magnetizacion_(V.s)	Campo_(kA/m)	Magnetizacion_(A/m)
0.000000e+00	-7.874209e-06	-1.152083e-08	-5.697020e+01	-7.536803e+02
1.000000e-08	-7.874289e-06	-1.151932e-08	-5.697078e+01	-7.537170e+02
2.000000e-08	-7.873854e-06	-1.151440e-08	-5.696763e+01	-7.537324e+02
3.000000e-08	-7.872767e-06	-1.151297e-08	-5.695977e+01	-7.537260e+02
4.000000e-08	-7.871143e-06	-1.151516e-08	-5.694802e+01	-7.536970e+02
5.000000e-08	-7.869111e-06	-1.151436e-08	-5.693332e+01	-7.536445e+02
6.000000e-08	-7.866590e-06	-1.151236e-08	-5.691508e+01	-7.535672e+02
7.000000e-08	-7.863590e-06	-1.150916e-08	-5.689338e+01	-7.534639e+02
8.000000e-08	-7.860180e-06	-1.149740e-08	-5.686871e+01	-7.533333e+02
9.000000e-08	-7.856135e-06	-1.147089e-08	-5.683944e+01	-7.531751e+02
1.000000e-07	-7.851166e-06	-1.150355e-08	-5.680349e+01	-7.529891e+02
1.100000e-07	-7.844993e-06	-1.156703e-08	-5.675883e+01	-7.527765e+02
1.200000e-07	-7.837564e-06	-1.155828e-08	-5.670508e+01	-7.525395e+02
1.300000e-07	-7.829515e-06	-1.144793e-08	-5.664684e+01	-7.522814e+02
1.400000e-07	-7.821505e-06	-1.134777e-08	-5.658889e+01	-7.520064e+02
1.500000e-07	-7.813428e-06	-1.154541e-08	-5.653045e+01	-7.517194e+02
1.600000e-07	-7.804622e-06	-1.158081e-08	-5.646674e+01	-7.514256e+02
1.700000e-07	-7.795240e-06	-1.127850e-08	-5.639886e+01	-7.511297e+02
1.800000e-07	-7.785813e-06	-1.141953e-08	-5.633065e+01	-7.508360e+02
1.900000e-07	-7.775726e-06	-1.161863e-08	-5.625767e+01	-7.505470e+02
2.000000e-07	-7.764745e-06	-1.135231e-08	-5.617823e+01	-7.502639e+02
2.100000e-07	-7.753495e-06	-1.136440e-08	-5.609683e+01	-7.499859e+02
2.200000e-07	-7.741846e-06	-1.157922e-08	-5.601256e+01	-7.497100e+02
2.300000e-07	-7.729406e-06	-1.136343e-08	-5.592255e+01	-7.494317e+02
2.400000e-07	-7.716570e-06	-1.131972e-08	-5.582968e+01	-7.491448e+02
2.500000e-07	-7.703344e-06	-1.156881e-08	-5.573399e+01	-7.488423e+02
2.600000e-07	-7.689273e-06	-1.144322e-08	-5.563218e+01	-7.485169e+02
2.700000e-07	-7.674580e-06	-1.131090e-08	-5.552588e+01	-7.481616e+02
2.800000e-07	-7.659356e-06	-1.147668e-08	-5.541574e+01	-7.477705e+02
2.900000e-07	-7.643518e-06	-1.142976e-08	-5.530115e+01	-7.473391e+02
3.000000e-07	-7.627344e-06	-1.133577e-08	-5.518413e+01	-7.468647e+02
3.100000e-07	-7.610662e-06	-1.144577e-08	-5.506343e+01	-7.463470e+02
3.200000e-07	-7.593164e-06	-1.135407e-08	-5.493683e+01	-7.457872e+02
3.300000e-07	-7.575221e-06	-1.133182e-08	-5.480701e+01	-7.451885e+02
3.400000e-07	-7.556875e-06	-1.144330e-08	-5.467428e+01	-7.445553e+02
3.500000e-07	-7.537892e-06	-1.132934e-08	-5.453694e+01	-7.438925e+02
3.600000e-07	-7.518353e-06	-1.127365e-08	-5.439557e+01	-7.432054e+02
3.700000e-07	-7.498186e-06	-1.136948e-08	-5.424966e+01	-7.424986e+02
3.800000e-07	-7.477235e-06	-1.130969e-08	-5.409808e+01	-7.417759e+02
3.900000e-07	-7.455670e-06	-1.128893e-08	-5.394206e+01	-7.410397e+02
4.000000e-07	-7.433589e-06	-1.132832e-08	-5.378230e+01	-7.402909e+02
4.100000e-07	-7.410960e-06	-1.124965e-08	-5.361858e+01	-7.395289e+02
4.200000e-07	-7.387735e-06	-1.125501e-08	-5.345055e+01	-7.387519e+02
4.300000e-07	-7.363893e-06	-1.129347e-08	-5.327805e+01	-7.379570e+02
4.400000e-07	-7.339543e-06	-1.123494e-08	-5.310187e+01	-7.371405e+02
4.500000e-07	-7.314735e-06	-1.119875e-08	-5.292239e+01	-7.362990e+02
4.600000e-07	-7.289498e-06	-1.122639e-08	-5.273980e+01	-7.354288e+02
4.700000e-07	-7.263878e-06	-1.120432e-08	-5.255444e+01	-7.345273e+02
4.800000e-07	-7.237704e-06	-1.117877e-08	-5.236507e+01	-7.335926e+02
4.900000e-07	-7.210846e-06	-1.115667e-08	-5.217075e+01	-7.326240e+02
5.000000e-07	-7.183438e-06	-1.113446e-08	-5.197245e+01	-7.316217e+02
5.100000e-07	-7.155570e-06	-1.112898e-08	-5.177082e+01	-7.305871e+02
5.200000e-07	-7.127245e-06	-1.113661e-08	-5.156589e+01	-7.295224e+02
5.300000e-07	-7.098394e-06	-1.109689e-08	-5.135715e+01	-7.284299e+02
5.400000e-07	-7.068929e-06	-1.106422e-08	-5.114397e+01	-7.273127e+02
5.500000e-07	-7.038813e-06	-1.106832e-08	-5.092608e+01	-7.261732e+02
5.600000e-07	-7.008065e-06	-1.105656e-08	-5.070362e+01	-7.250138e+02
5.700000e-07	-6.976723e-06	-1.103093e-08	-5.047686e+01	-7.238362e+02
5.800000e-07	-6.944857e-06	-1.099808e-08	-5.024631e+01	-7.226412e+02
5.900000e-07	-6.912540e-06	-1.097457e-08	-5.001249e+01	-7.214291e+02
6.000000e-07	-6.879789e-06	-1.097583e-08	-4.977554e+01	-7.201993e+02
6.100000e-07	-6.846577e-06	-1.096032e-08	-4.953525e+01	-7.189506e+02
6.200000e-07	-6.812940e-06	-1.091675e-08	-4.929189e+01	-7.176813e+02
6.300000e-07	-6.778872e-06	-1.090110e-08	-4.904540e+01	-7.163896e+02
6.400000e-07	-6.744320e-06	-1.089701e-08	-4.879541e+01	-7.150735e+02
6.500000e-07	-6.709326e-06	-1.088276e-08	-4.854223e+01	-7.137313e+02
6.600000e-07	-6.673886e-06	-1.084460e-08	-4.828582e+01	-7.123615e+02
6.700000e-07	-6.637860e-06	-1.081313e-08	-4.802517e+01	-7.109630e+02
6.800000e-07	-6.601284e-06	-1.079307e-08	-4.776054e+01	-7.095352e+02
6.900000e-07	-6.564248e-06	-1.078009e-08	-4.749259e+01	-7.080781e+02
7.000000e-07	-6.526756e-06	-1.075597e-08	-4.722133e+01	-7.065919e+02
7.100000e-07	-6.488824e-06	-1.072117e-08	-4.694689e+01	-7.050774e+02
7.200000e-07	-6.450500e-06	-1.070113e-08	-4.666961e+01	-7.035356e+02
7.300000e-07	-6.411764e-06	-1.069286e-08	-4.638936e+01	-7.019673e+02
7.400000e-07	-6.372519e-06	-1.067066e-08	-4.610542e+01	-7.003735e+02
7.500000e-07	-6.332816e-06	-1.063368e-08	-4.581817e+01	-6.987547e+02
7.600000e-07	-6.292683e-06	-1.059888e-08	-4.552780e+01	-6.971112e+02
7.700000e-07	-6.252062e-06	-1.057556e-08	-4.523391e+01	-6.954427e+02
7.800000e-07	-6.211000e-06	-1.055464e-08	-4.493682e+01	-6.937483e+02
7.900000e-07	-6.169554e-06	-1.052054e-08	-4.463696e+01	-6.920267e+02
8.000000e-07	-6.127652e-06	-1.048523e-08	-4.433380e+01	-6.902760e+02
8.100000e-07	-6.085174e-06	-1.046106e-08	-4.402647e+01	-6.884940e+02
8.200000e-07	-6.042152e-06	-1.044602e-08	-4.371520e+01	-6.866784e+02
8.300000e-07	-5.998698e-06	-1.041671e-08	-4.340081e+01	-6.848267e+02
8.400000e-07	-5.954864e-06	-1.037578e-08	-4.308367e+01	-6.829366e+02
8.500000e-07	-5.910649e-06	-1.034228e-08	-4.276377e+01	-6.810063e+02
8.600000e-07	-5.866076e-06	-1.031822e-08	-4.244129e+01	-6.790345e+02
8.700000e-07	-5.821171e-06	-1.029025e-08	-4.211639e+01	-6.770205e+02
8.800000e-07	-5.775812e-06	-1.025208e-08	-4.178822e+01	-6.749644e+02
8.900000e-07	-5.729914e-06	-1.021265e-08	-4.145615e+01	-6.728669e+02
9.000000e-07	-5.683565e-06	-1.018091e-08	-4.112081e+01	-6.707292e+02
9.100000e-07	-5.636807e-06	-1.014925e-08	-4.078252e+01	-6.685531e+02
9.200000e-07	-5.589583e-06	-1.011042e-08	-4.044085e+01	-6.663403e+02
9.300000e-07	-5.541931e-06	-1.007061e-08	-4.009608e+01	-6.640927e+02
9.400000e-07	-5.493893e-06	-1.003900e-08	-3.974853e+01	-6.618115e+02
9.500000e-07	-5.445380e-06	-1.001211e-08	-3.939753e+01	-6.594975e+02
9.600000e-07	-5.396373e-06	-9.976685e-09	-3.904297e+01	-6.571506e+02
9.700000e-07	-5.347005e-06	-9.931248e-09	-3.868579e+01	-6.547699e+02
9.800000e-07	-5.297338e-06	-9.888058e-09	-3.832645e+01	-6.523533e+02
9.900000e-07	-5.247334e-06	-9.854010e-09	-3.796466e+01	-6.498981e+02
1.000000e-06	-5.196973e-06	-9.818293e-09	-3.760030e+01	-6.474007e+02
1.010000e-06	-5.146291e-06	-9.776110e-09	-3.723362e+01	-6.448573e+02
1.020000e-06	-5.095349e-06	-9.733856e-09	-3.686505e+01	-6.422637e+02
1.030000e-06	-5.044084e-06	-9.699606e-09	-3.649414e+01	-6.396162e+02
1.040000e-06	-4.992327e-06	-9.663332e-09	-3.611968e+01	-6.369113e+02
1.050000e-06	-4.940088e-06	-9.612922e-09	-3.574172e+01	-6.341465e+02
1.060000e-06	-4.887497e-06	-9.559581e-09	-3.536123e+01	-6.313203e+02
1.070000e-06	-4.834576e-06	-9.512850e-09	-3.497834e+01	-6.284319e+02
1.080000e-06	-4.781287e-06	-9.473459e-09	-3.459280e+01	-6.254820e+02
1.090000e-06	-4.727633e-06	-9.430699e-09	-3.420461e+01	-6.224719e+02
1.100000e-06	-4.673683e-06	-9.381041e-09	-3.381427e+01	-6.194038e+02
1.110000e-06	-4.619482e-06	-9.334574e-09	-3.342213e+01	-6.162800e+02
1.120000e-06	-4.564969e-06	-9.292533e-09	-3.302773e+01	-6.131034e+02
1.130000e-06	-4.510037e-06	-9.244616e-09	-3.263029e+01	-6.098762e+02
1.140000e-06	-4.454686e-06	-9.188376e-09	-3.222982e+01	-6.066005e+02
1.150000e-06	-4.398991e-06	-9.132335e-09	-3.182687e+01	-6.032776e+02
1.160000e-06	-4.343051e-06	-9.082319e-09	-3.142214e+01	-5.999080e+02
1.170000e-06	-4.286834e-06	-9.032490e-09	-3.101541e+01	-5.964913e+02
1.180000e-06	-4.230247e-06	-8.977816e-09	-3.060600e+01	-5.930265e+02
1.190000e-06	-4.173231e-06	-8.920260e-09	-3.019349e+01	-5.895120e+02
1.200000e-06	-4.115797e-06	-8.869456e-09	-2.977795e+01	-5.859456e+02
1.210000e-06	-4.058016e-06	-8.822985e-09	-2.935990e+01	-5.823250e+02
1.220000e-06	-3.999932e-06	-8.773481e-09	-2.893966e+01	-5.786480e+02
1.230000e-06	-3.941580e-06	-8.714817e-09	-2.851748e+01	-5.749124e+02
1.240000e-06	-3.882976e-06	-8.649110e-09	-2.809348e+01	-5.711166e+02
1.250000e-06	-3.824180e-06	-8.585291e-09	-2.766809e+01	-5.672590e+02
1.260000e-06	-3.765191e-06	-8.519936e-09	-2.724131e+01	-5.633388e+02
1.270000e-06	-3.705979e-06	-8.452971e-09	-2.681290e+01	-5.593551e+02
1.280000e-06	-3.646536e-06	-8.390696e-09	-2.638283e+01	-5.553074e+02
1.290000e-06	-3.586838e-06	-8.334844e-09	-2.595091e+01	-5.511950e+02
1.300000e-06	-3.526867e-06	-8.280639e-09	-2.551702e+01	-5.470172e+02
1.310000e-06	-3.466657e-06	-8.223128e-09	-2.508140e+01	-5.427729e+02
1.320000e-06	-3.406248e-06	-8.157000e-09	-2.464433e+01	-5.384607e+02
1.330000e-06	-3.345585e-06	-8.085196e-09	-2.420543e+01	-5.340786e+02
1.340000e-06	-3.284618e-06	-8.010952e-09	-2.376433e+01	-5.296246e+02
1.350000e-06	-3.223312e-06	-7.935957e-09	-2.332079e+01	-5.250961e+02
1.360000e-06	-3.161689e-06	-7.859085e-09	-2.287494e+01	-5.204907e+02
1.370000e-06	-3.099823e-06	-7.785651e-09	-2.242734e+01	-5.158060e+02
1.380000e-06	-3.037782e-06	-7.715528e-09	-2.197847e+01	-5.110399e+02
1.390000e-06	-2.975573e-06	-7.645897e-09	-2.152839e+01	-5.061907e+02
1.400000e-06	-2.913173e-06	-7.573504e-09	-2.107692e+01	-5.012572e+02
1.410000e-06	-2.850602e-06	-7.497923e-09	-2.062422e+01	-4.962389e+02
1.420000e-06	-2.787854e-06	-7.420666e-09	-2.017023e+01	-4.911356e+02
1.430000e-06	-2.724908e-06	-7.339613e-09	-1.971481e+01	-4.859475e+02
1.440000e-06	-2.661726e-06	-7.257041e-09	-1.925769e+01	-4.806749e+02
1.450000e-06	-2.598344e-06	-7.172085e-09	-1.879912e+01	-4.753183e+02
1.460000e-06	-2.534802e-06	-7.088172e-09	-1.833939e+01	-4.698774e+02
1.470000e-06	-2.471102e-06	-7.007806e-09	-1.787852e+01	-4.643519e+02
1.480000e-06	-2.407257e-06	-6.926164e-09	-1.741660e+01	-4.587403e+02
1.490000e-06	-2.343203e-06	-6.842731e-09	-1.695316e+01	-4.530407e+02
1.500000e-06	-2.278936e-06	-6.758509e-09	-1.648819e+01	-4.472502e+02
1.510000e-06	-2.214518e-06	-6.671205e-09	-1.602212e+01	-4.413652e+02
1.520000e-06	-2.149921e-06	-6.578494e-09	-1.555476e+01	-4.353816e+02
1.530000e-06	-2.085134e-06	-6.480087e-09	-1.508603e+01	-4.292950e+02
1.540000e-06	-2.020217e-06	-6.381123e-09	-1.461635e+01	-4.231008e+02
1.550000e-06	-1.955187e-06	-6.286014e-09	-1.414585e+01	-4.167946e+02
1.560000e-06	-1.890023e-06	-6.193426e-09	-1.367439e+01	-4.103724e+02
1.570000e-06	-1.824732e-06	-6.097906e-09	-1.320200e+01	-4.038305e+02
1.580000e-06	-1.759318e-06	-5.997857e-09	-1.272873e+01	-3.971658e+02
1.590000e-06	-1.693771e-06	-5.893840e-09	-1.225450e+01	-3.903757e+02
1.600000e-06	-1.628112e-06	-5.788132e-09	-1.177946e+01	-3.834581e+02
1.610000e-06	-1.562356e-06	-5.678972e-09	-1.130371e+01	-3.764109e+02
1.620000e-06	-1.496467e-06	-5.561423e-09	-1.082699e+01	-3.692322e+02
1.630000e-06	-1.430444e-06	-5.442045e-09	-1.034932e+01	-3.619199e+02
1.640000e-06	-1.364320e-06	-5.327813e-09	-9.870906e+00	-3.544713e+02
1.650000e-06	-1.298095e-06	-5.218455e-09	-9.391766e+00	-3.468836e+02
1.660000e-06	-1.231807e-06	-5.103054e-09	-8.912168e+00	-3.391532e+02
1.670000e-06	-1.165464e-06	-4.980968e-09	-8.432176e+00	-3.312761e+02
1.680000e-06	-1.099056e-06	-4.856447e-09	-7.951709e+00	-3.232479e+02
1.690000e-06	-1.032566e-06	-4.730465e-09	-7.470654e+00	-3.150640e+02
1.700000e-06	-9.659968e-07	-4.601771e-09	-6.989024e+00	-3.067197e+02
1.710000e-06	-8.993649e-07	-4.465435e-09	-6.506939e+00	-2.982106e+02
1.720000e-06	-8.326602e-07	-4.328221e-09	-6.024328e+00	-2.895327e+02
1.730000e-06	-7.659083e-07	-4.194136e-09	-5.541376e+00	-2.806821e+02
1.740000e-06	-6.991168e-07	-4.059192e-09	-5.058137e+00	-2.716558e+02
1.750000e-06	-6.322624e-07	-3.918886e-09	-4.574443e+00	-2.624510e+02
1.760000e-06	-5.653800e-07	-3.774600e-09	-4.090546e+00	-2.530653e+02
1.770000e-06	-4.984797e-07	-3.627691e-09	-3.606520e+00	-2.434964e+02
1.780000e-06	-4.315391e-07	-3.479495e-09	-3.122202e+00	-2.337417e+02
1.790000e-06	-3.645774e-07	-3.326625e-09	-2.637732e+00	-2.237984e+02
1.800000e-06	-2.976417e-07	-3.168152e-09	-2.153449e+00	-2.136631e+02
1.810000e-06	-2.307245e-07	-3.008366e-09	-1.669301e+00	-2.033317e+02
1.820000e-06	-1.637923e-07	-2.848495e-09	-1.185043e+00	-1.927992e+02
1.830000e-06	-9.683203e-08	-2.685994e-09	-7.005834e-01	-1.820600e+02
1.840000e-06	-2.986476e-08	-2.517759e-09	-2.160727e-01	-1.711079e+02
1.850000e-06	3.711528e-08	-2.346402e-09	2.685305e-01	-1.599363e+02
1.860000e-06	1.041321e-07	-2.175007e-09	7.533997e-01	-1.485385e+02
1.870000e-06	1.711555e-07	-2.000400e-09	1.238316e+00	-1.369085e+02
1.880000e-06	2.381813e-07	-1.819525e-09	1.723251e+00	-1.250403e+02
1.890000e-06	3.051678e-07	-1.635588e-09	2.207901e+00	-1.129295e+02
1.900000e-06	3.721168e-07	-1.447736e-09	2.692280e+00	-1.005725e+02
1.910000e-06	4.390938e-07	-1.255374e-09	3.176860e+00	-8.796729e+01
1.920000e-06	5.060222e-07	-1.058187e-09	3.661090e+00	-7.511358e+01
1.930000e-06	5.728613e-07	-8.603764e-10	4.144674e+00	-6.201265e+01
1.940000e-06	6.396691e-07	-6.647338e-10	4.628031e+00	-4.866763e+01
1.950000e-06	7.064421e-07	-4.654319e-10	5.111136e+00	-3.508346e+01
1.960000e-06	7.731651e-07	-2.614108e-10	5.593879e+00	-2.126701e+01
1.970000e-06	8.398128e-07	-4.896119e-11	6.076078e+00	-7.227139e+00
1.980000e-06	9.064399e-07	1.695617e-10	6.558127e+00	7.025120e+00
1.990000e-06	9.730529e-07	3.943435e-10	7.040075e+00	2.147643e+01
2.000000e-06	1.039590e-06	6.258922e-10	7.521472e+00	3.611093e+01
2.010000e-06	1.106067e-06	8.560965e-10	8.002437e+00	5.091005e+01
2.020000e-06	1.172455e-06	1.078843e-09	8.482758e+00	6.585234e+01
2.030000e-06	1.238732e-06	1.295474e-09	8.962276e+00	8.091343e+01
2.040000e-06	1.304935e-06	1.516238e-09	9.441258e+00	9.606602e+01
2.050000e-06	1.371018e-06	1.744733e-09	9.919368e+00	1.112801e+02
2.060000e-06	1.436962e-06	1.976554e-09	1.039647e+01	1.265231e+02
2.070000e-06	1.502783e-06	2.208872e-09	1.087269e+01	1.417607e+02
2.080000e-06	1.568500e-06	2.445158e-09	1.134816e+01	1.569573e+02
2.090000e-06	1.634114e-06	2.683502e-09	1.182287e+01	1.720765e+02
2.100000e-06	1.699598e-06	2.914453e-09	1.229666e+01	1.870822e+02
2.110000e-06	1.765004e-06	3.134276e-09	1.276987e+01	2.019395e+02
2.120000e-06	1.830322e-06	3.348545e-09	1.324245e+01	2.166153e+02
2.130000e-06	1.895524e-06	3.562966e-09	1.371419e+01	2.310788e+02
2.140000e-06	1.960602e-06	3.774993e-09	1.418503e+01	2.453024e+02
2.150000e-06	2.025546e-06	3.982801e-09	1.465490e+01	2.592620e+02
2.160000e-06	2.090381e-06	4.190548e-09	1.512399e+01	2.729372e+02
2.170000e-06	2.155075e-06	4.397466e-09	1.559205e+01	2.863113e+02
2.180000e-06	2.219550e-06	4.599257e-09	1.605853e+01	2.993711e+02
2.190000e-06	2.283808e-06	4.791054e-09	1.652344e+01	3.121069e+02
2.200000e-06	2.347826e-06	4.972260e-09	1.698661e+01	3.245121e+02
2.210000e-06	2.411611e-06	5.146718e-09	1.744810e+01	3.365829e+02
2.220000e-06	2.475245e-06	5.320068e-09	1.790849e+01	3.483178e+02
2.230000e-06	2.538748e-06	5.491616e-09	1.836794e+01	3.597170e+02
2.240000e-06	2.602133e-06	5.658818e-09	1.882653e+01	3.707828e+02
2.250000e-06	2.665366e-06	5.825095e-09	1.928403e+01	3.815185e+02
2.260000e-06	2.728412e-06	5.986965e-09	1.974017e+01	3.919286e+02
2.270000e-06	2.791266e-06	6.143062e-09	2.019492e+01	4.020184e+02
2.280000e-06	2.853922e-06	6.290239e-09	2.064823e+01	4.117940e+02
2.290000e-06	2.916386e-06	6.429653e-09	2.110017e+01	4.212620e+02
2.300000e-06	2.978659e-06	6.566257e-09	2.155071e+01	4.304294e+02
2.310000e-06	3.040732e-06	6.698787e-09	2.199981e+01	4.393035e+02
2.320000e-06	3.102580e-06	6.825959e-09	2.244729e+01	4.478917e+02
2.330000e-06	3.164192e-06	6.947999e-09	2.289305e+01	4.562018e+02
2.340000e-06	3.225526e-06	7.068396e-09	2.333680e+01	4.642414e+02
2.350000e-06	3.286525e-06	7.186016e-09	2.377813e+01	4.720182e+02
2.360000e-06	3.347199e-06	7.297261e-09	2.421711e+01	4.795402e+02
2.370000e-06	3.407646e-06	7.401082e-09	2.465445e+01	4.868151e+02
2.380000e-06	3.467914e-06	7.502159e-09	2.509049e+01	4.938511e+02
2.390000e-06	3.527930e-06	7.604752e-09	2.552471e+01	5.006568e+02
2.400000e-06	3.587673e-06	7.704244e-09	2.595695e+01	5.072408e+02
2.410000e-06	3.647207e-06	7.799146e-09	2.638768e+01	5.136125e+02
2.420000e-06	3.706535e-06	7.893020e-09	2.681692e+01	5.197813e+02
2.430000e-06	3.765623e-06	7.985911e-09	2.724443e+01	5.257573e+02
2.440000e-06	3.824461e-06	8.075925e-09	2.767012e+01	5.315507e+02
2.450000e-06	3.883031e-06	8.159375e-09	2.809388e+01	5.371718e+02
2.460000e-06	3.941298e-06	8.239182e-09	2.851545e+01	5.426307e+02
2.470000e-06	3.999211e-06	8.320485e-09	2.893445e+01	5.479370e+02
2.480000e-06	4.056803e-06	8.402823e-09	2.935112e+01	5.530997e+02
2.490000e-06	4.114113e-06	8.481575e-09	2.976576e+01	5.581270e+02
2.500000e-06	4.171130e-06	8.554992e-09	3.017828e+01	5.630258e+02
2.510000e-06	4.227827e-06	8.627480e-09	3.058849e+01	5.678023e+02
2.520000e-06	4.284212e-06	8.698988e-09	3.099644e+01	5.724612e+02
2.530000e-06	4.340323e-06	8.766775e-09	3.140240e+01	5.770064e+02
2.540000e-06	4.396121e-06	8.831868e-09	3.180610e+01	5.814411e+02
2.550000e-06	4.451602e-06	8.895805e-09	3.220751e+01	5.857679e+02
2.560000e-06	4.506743e-06	8.960012e-09	3.260646e+01	5.899890e+02
2.570000e-06	4.561454e-06	9.022747e-09	3.300230e+01	5.941071e+02
2.580000e-06	4.615742e-06	9.082321e-09	3.339507e+01	5.981245e+02
2.590000e-06	4.669723e-06	9.140518e-09	3.378563e+01	6.020442e+02
2.600000e-06	4.723422e-06	9.196945e-09	3.417414e+01	6.058697e+02
2.610000e-06	4.776763e-06	9.251285e-09	3.456006e+01	6.096045e+02
2.620000e-06	4.829754e-06	9.300302e-09	3.494345e+01	6.132527e+02
2.630000e-06	4.882408e-06	9.347686e-09	3.532441e+01	6.168180e+02
2.640000e-06	4.934732e-06	9.396809e-09	3.570298e+01	6.203042e+02
2.650000e-06	4.986732e-06	9.447753e-09	3.607919e+01	6.237146e+02
2.660000e-06	5.038345e-06	9.498687e-09	3.645262e+01	6.270520e+02
2.670000e-06	5.089547e-06	9.547253e-09	3.682306e+01	6.303185e+02
2.680000e-06	5.140405e-06	9.595128e-09	3.719103e+01	6.335154e+02
2.690000e-06	5.190953e-06	9.641321e-09	3.755674e+01	6.366435e+02
2.700000e-06	5.241169e-06	9.683787e-09	3.792006e+01	6.397034e+02
2.710000e-06	5.291028e-06	9.723371e-09	3.828079e+01	6.426953e+02
2.720000e-06	5.340501e-06	9.762325e-09	3.863873e+01	6.456194e+02
2.730000e-06	5.389627e-06	9.803087e-09	3.899416e+01	6.484764e+02
2.740000e-06	5.438334e-06	9.845673e-09	3.934656e+01	6.512671e+02
2.750000e-06	5.486543e-06	9.887025e-09	3.969535e+01	6.539931e+02
2.760000e-06	5.534338e-06	9.925513e-09	4.004114e+01	6.566565e+02
2.770000e-06	5.581783e-06	9.962180e-09	4.038441e+01	6.592598e+02
2.780000e-06	5.628843e-06	9.999523e-09	4.072489e+01	6.618058e+02
2.790000e-06	5.675478e-06	1.003636e-08	4.106230e+01	6.642975e+02
2.800000e-06	5.721683e-06	1.007161e-08	4.139660e+01	6.667377e+02
2.810000e-06	5.767475e-06	1.010637e-08	4.172790e+01	6.691286e+02
2.820000e-06	5.812801e-06	1.014147e-08	4.205584e+01	6.714723e+02
2.830000e-06	5.857633e-06	1.017525e-08	4.238020e+01	6.737699e+02
2.840000e-06	5.902060e-06	1.020767e-08	4.270163e+01	6.760221e+02
2.850000e-06	5.946118e-06	1.023985e-08	4.302039e+01	6.782288e+02
2.860000e-06	5.989786e-06	1.027168e-08	4.333633e+01	6.803898e+02
2.870000e-06	6.033054e-06	1.030134e-08	4.364938e+01	6.825044e+02
2.880000e-06	6.075911e-06	1.033000e-08	4.395945e+01	6.845721e+02
2.890000e-06	6.118282e-06	1.036066e-08	4.426601e+01	6.865926e+02
2.900000e-06	6.160107e-06	1.039350e-08	4.456861e+01	6.885660e+02
