# Temperatura_=_20.0
# Concentracion g/m^3_=_10000.0
# C_Vs_to_Am_M_A/Vsm_=_65563218390.804596
# pendiente_HvsI_1/m_=_3716.3
# ordenada_HvsI_A/m_=_1297.0
# frecuencia_Hz_=_135396.57603320468

Tiempo_(s)	Campo_(V.s)	Magnetizacion_(V.s)	Campo_(kA/m)	Magnetizacion_(A/m)
0.000000e+00	-7.825136e-06	-4.601485e-10	-5.697870e+01	-2.939923e+01
1.000000e-08	-7.825181e-06	-4.541784e-10	-5.697903e+01	-2.944531e+01
2.000000e-08	-7.824683e-06	-4.467127e-10	-5.697540e+01	-2.946995e+01
3.000000e-08	-7.823558e-06	-4.440761e-10	-5.696722e+01	-2.946661e+01
4.000000e-08	-7.821939e-06	-4.470027e-10	-5.695543e+01	-2.943239e+01
5.000000e-08	-7.819882e-06	-4.538704e-10	-5.694044e+01	-2.936860e+01
6.000000e-08	-7.817322e-06	-4.608704e-10	-5.692181e+01	-2.928093e+01
7.000000e-08	-7.814309e-06	-4.657039e-10	-5.689986e+01	-2.917880e+01
8.000000e-08	-7.810832e-06	-4.575331e-10	-5.687455e+01	-2.907428e+01
9.000000e-08	-7.806696e-06	-4.452034e-10	-5.684443e+01	-2.898051e+01
1.000000e-07	-7.801633e-06	-4.700835e-10	-5.680757e+01	-2.890996e+01
1.100000e-07	-7.795332e-06	-4.848674e-10	-5.676169e+01	-2.887269e+01
1.200000e-07	-7.787875e-06	-4.532418e-10	-5.670739e+01	-2.887491e+01
1.300000e-07	-7.779902e-06	-3.821677e-10	-5.664933e+01	-2.891806e+01
1.400000e-07	-7.771996e-06	-4.131848e-10	-5.659177e+01	-2.899849e+01
1.500000e-07	-7.763920e-06	-5.344881e-10	-5.653296e+01	-2.910782e+01
1.600000e-07	-7.755099e-06	-4.413421e-10	-5.646873e+01	-2.923391e+01
1.700000e-07	-7.745865e-06	-3.555955e-10	-5.640149e+01	-2.936239e+01
1.800000e-07	-7.736476e-06	-4.942957e-10	-5.633312e+01	-2.947841e+01
1.900000e-07	-7.726316e-06	-4.876493e-10	-5.625915e+01	-2.956843e+01
2.000000e-07	-7.715386e-06	-3.702402e-10	-5.617956e+01	-2.962185e+01
2.100000e-07	-7.704198e-06	-4.495036e-10	-5.609810e+01	-2.963217e+01
2.200000e-07	-7.692515e-06	-5.005448e-10	-5.601303e+01	-2.959762e+01
2.300000e-07	-7.680118e-06	-3.617930e-10	-5.592275e+01	-2.952116e+01
2.400000e-07	-7.667338e-06	-4.275541e-10	-5.582970e+01	-2.940983e+01
2.500000e-07	-7.654047e-06	-5.167904e-10	-5.573292e+01	-2.927366e+01
2.600000e-07	-7.639983e-06	-3.886992e-10	-5.563051e+01	-2.912423e+01
2.700000e-07	-7.625365e-06	-3.845270e-10	-5.552407e+01	-2.897312e+01
2.800000e-07	-7.610206e-06	-4.747135e-10	-5.541369e+01	-2.883053e+01
2.900000e-07	-7.594420e-06	-4.133202e-10	-5.529875e+01	-2.870410e+01
3.000000e-07	-7.578243e-06	-3.975612e-10	-5.518096e+01	-2.859828e+01
3.100000e-07	-7.561532e-06	-4.349520e-10	-5.505927e+01	-2.851413e+01
3.200000e-07	-7.544091e-06	-3.816247e-10	-5.493228e+01	-2.844963e+01
3.300000e-07	-7.526197e-06	-4.203383e-10	-5.480198e+01	-2.840038e+01
3.400000e-07	-7.507854e-06	-4.471245e-10	-5.466842e+01	-2.836059e+01
3.500000e-07	-7.488900e-06	-3.888112e-10	-5.453040e+01	-2.832414e+01
3.600000e-07	-7.469413e-06	-4.036146e-10	-5.438850e+01	-2.828555e+01
3.700000e-07	-7.449335e-06	-4.349193e-10	-5.424231e+01	-2.824074e+01
3.800000e-07	-7.428524e-06	-4.037831e-10	-5.409078e+01	-2.818746e+01
3.900000e-07	-7.407062e-06	-4.282449e-10	-5.393450e+01	-2.812536e+01
4.000000e-07	-7.384991e-06	-4.144498e-10	-5.377379e+01	-2.805569e+01
4.100000e-07	-7.362366e-06	-3.842309e-10	-5.360905e+01	-2.798081e+01
4.200000e-07	-7.339213e-06	-4.219646e-10	-5.344046e+01	-2.790344e+01
4.300000e-07	-7.315480e-06	-4.230583e-10	-5.326765e+01	-2.782604e+01
4.400000e-07	-7.291234e-06	-3.817936e-10	-5.309110e+01	-2.775016e+01
4.500000e-07	-7.266547e-06	-3.961111e-10	-5.291134e+01	-2.767614e+01
4.600000e-07	-7.241421e-06	-4.165769e-10	-5.272839e+01	-2.760295e+01
4.700000e-07	-7.215864e-06	-4.086057e-10	-5.254229e+01	-2.752843e+01
4.800000e-07	-7.189761e-06	-4.050669e-10	-5.235222e+01	-2.744963e+01
4.900000e-07	-7.163035e-06	-3.934908e-10	-5.215761e+01	-2.736343e+01
5.000000e-07	-7.135750e-06	-3.859801e-10	-5.195894e+01	-2.726703e+01
5.100000e-07	-7.107983e-06	-3.945935e-10	-5.175676e+01	-2.715854e+01
5.200000e-07	-7.079747e-06	-3.927526e-10	-5.155116e+01	-2.703730e+01
5.300000e-07	-7.050975e-06	-3.712478e-10	-5.134165e+01	-2.690396e+01
5.400000e-07	-7.021633e-06	-3.804562e-10	-5.112800e+01	-2.676042e+01
5.500000e-07	-6.991671e-06	-3.976965e-10	-5.090983e+01	-2.660944e+01
5.600000e-07	-6.961089e-06	-3.945413e-10	-5.068715e+01	-2.645417e+01
5.700000e-07	-6.929963e-06	-3.822598e-10	-5.046050e+01	-2.629760e+01
5.800000e-07	-6.898294e-06	-3.717971e-10	-5.022991e+01	-2.614209e+01
5.900000e-07	-6.866142e-06	-3.692463e-10	-4.999580e+01	-2.598897e+01
6.000000e-07	-6.833565e-06	-3.750346e-10	-4.975858e+01	-2.583838e+01
6.100000e-07	-6.800514e-06	-3.615590e-10	-4.951792e+01	-2.568938e+01
6.200000e-07	-6.766988e-06	-3.504238e-10	-4.927380e+01	-2.554018e+01
6.300000e-07	-6.733033e-06	-3.575100e-10	-4.902656e+01	-2.538865e+01
6.400000e-07	-6.698687e-06	-3.672219e-10	-4.877647e+01	-2.523278e+01
6.500000e-07	-6.663889e-06	-3.658591e-10	-4.852309e+01	-2.507129e+01
6.600000e-07	-6.628558e-06	-3.562908e-10	-4.826582e+01	-2.490396e+01
6.700000e-07	-6.592700e-06	-3.485322e-10	-4.800472e+01	-2.473192e+01
6.800000e-07	-6.556326e-06	-3.514241e-10	-4.773987e+01	-2.455758e+01
6.900000e-07	-6.519465e-06	-3.536610e-10	-4.747146e+01	-2.438448e+01
7.000000e-07	-6.482149e-06	-3.421675e-10	-4.719975e+01	-2.421676e+01
7.100000e-07	-6.444435e-06	-3.323887e-10	-4.692513e+01	-2.405864e+01
7.200000e-07	-6.406316e-06	-3.361664e-10	-4.664757e+01	-2.391382e+01
7.300000e-07	-6.367737e-06	-3.436706e-10	-4.636666e+01	-2.378487e+01
7.400000e-07	-6.328728e-06	-3.401422e-10	-4.608262e+01	-2.367288e+01
7.500000e-07	-6.289290e-06	-3.347826e-10	-4.579545e+01	-2.357720e+01
7.600000e-07	-6.249347e-06	-3.332148e-10	-4.550460e+01	-2.349552e+01
7.700000e-07	-6.208906e-06	-3.370846e-10	-4.521013e+01	-2.342408e+01
7.800000e-07	-6.168033e-06	-3.338945e-10	-4.491252e+01	-2.335813e+01
7.900000e-07	-6.126735e-06	-3.251260e-10	-4.461180e+01	-2.329246e+01
8.000000e-07	-6.084947e-06	-3.191731e-10	-4.430752e+01	-2.322201e+01
8.100000e-07	-6.042663e-06	-3.218690e-10	-4.399963e+01	-2.314234e+01
8.200000e-07	-5.999932e-06	-3.248044e-10	-4.368849e+01	-2.304999e+01
8.300000e-07	-5.956777e-06	-3.216349e-10	-4.337426e+01	-2.294276e+01
8.400000e-07	-5.913203e-06	-3.165493e-10	-4.305697e+01	-2.281962e+01
8.500000e-07	-5.869211e-06	-3.181922e-10	-4.273664e+01	-2.268065e+01
8.600000e-07	-5.824864e-06	-3.220711e-10	-4.241373e+01	-2.252671e+01
8.700000e-07	-5.780192e-06	-3.183688e-10	-4.208845e+01	-2.235913e+01
8.800000e-07	-5.735131e-06	-3.083525e-10	-4.176034e+01	-2.217943e+01
8.900000e-07	-5.689581e-06	-3.015297e-10	-4.142867e+01	-2.198903e+01
9.000000e-07	-5.643530e-06	-3.012517e-10	-4.109335e+01	-2.178918e+01
9.100000e-07	-5.596979e-06	-2.958720e-10	-4.075438e+01	-2.158094e+01
9.200000e-07	-5.549968e-06	-2.865527e-10	-4.041208e+01	-2.136528e+01
9.300000e-07	-5.502545e-06	-2.834151e-10	-4.006677e+01	-2.114330e+01
9.400000e-07	-5.454659e-06	-2.898906e-10	-3.971808e+01	-2.091637e+01
9.500000e-07	-5.406361e-06	-2.935904e-10	-3.936640e+01	-2.068630e+01
9.600000e-07	-5.357718e-06	-2.870403e-10	-3.901221e+01	-2.045537e+01
9.700000e-07	-5.308703e-06	-2.759424e-10	-3.865531e+01	-2.022624e+01
9.800000e-07	-5.259298e-06	-2.705611e-10	-3.829556e+01	-2.000171e+01
9.900000e-07	-5.209528e-06	-2.687862e-10	-3.793316e+01	-1.978437e+01
1.000000e-06	-5.159437e-06	-2.643764e-10	-3.756843e+01	-1.957622e+01
1.010000e-06	-5.109056e-06	-2.584347e-10	-3.720157e+01	-1.937826e+01
1.020000e-06	-5.058348e-06	-2.592256e-10	-3.683234e+01	-1.919023e+01
1.030000e-06	-5.007274e-06	-2.639193e-10	-3.646045e+01	-1.901045e+01
1.040000e-06	-4.955836e-06	-2.619067e-10	-3.608590e+01	-1.883588e+01
1.050000e-06	-4.904001e-06	-2.532564e-10	-3.570847e+01	-1.866240e+01
1.060000e-06	-4.851760e-06	-2.456245e-10	-3.532808e+01	-1.848530e+01
1.070000e-06	-4.799126e-06	-2.432373e-10	-3.494482e+01	-1.829985e+01
1.080000e-06	-4.746129e-06	-2.407606e-10	-3.455892e+01	-1.810194e+01
1.090000e-06	-4.692787e-06	-2.340326e-10	-3.417051e+01	-1.788870e+01
1.100000e-06	-4.639119e-06	-2.281271e-10	-3.377973e+01	-1.765895e+01
1.110000e-06	-4.585141e-06	-2.284114e-10	-3.338669e+01	-1.741345e+01
1.120000e-06	-4.530845e-06	-2.313215e-10	-3.299134e+01	-1.715482e+01
1.130000e-06	-4.476229e-06	-2.297324e-10	-3.259365e+01	-1.688730e+01
1.140000e-06	-4.421286e-06	-2.244536e-10	-3.219358e+01	-1.661621e+01
1.150000e-06	-4.366037e-06	-2.217697e-10	-3.179129e+01	-1.634724e+01
1.160000e-06	-4.310478e-06	-2.206464e-10	-3.138674e+01	-1.608574e+01
1.170000e-06	-4.254585e-06	-2.153914e-10	-3.097975e+01	-1.583601e+01
1.180000e-06	-4.198323e-06	-2.058567e-10	-3.057007e+01	-1.560081e+01
1.190000e-06	-4.141653e-06	-2.007513e-10	-3.015743e+01	-1.538100e+01
1.200000e-06	-4.084604e-06	-2.004334e-10	-2.974203e+01	-1.517556e+01
1.210000e-06	-4.027233e-06	-2.013399e-10	-2.932429e+01	-1.498180e+01
1.220000e-06	-3.969588e-06	-2.010120e-10	-2.890454e+01	-1.479589e+01
1.230000e-06	-3.911657e-06	-2.001086e-10	-2.848272e+01	-1.461342e+01
1.240000e-06	-3.853445e-06	-1.970511e-10	-2.805885e+01	-1.443013e+01
1.250000e-06	-3.794963e-06	-1.894962e-10	-2.763301e+01	-1.424245e+01
1.260000e-06	-3.736222e-06	-1.805620e-10	-2.720529e+01	-1.404798e+01
1.270000e-06	-3.677264e-06	-1.727288e-10	-2.677598e+01	-1.384573e+01
1.280000e-06	-3.618109e-06	-1.699114e-10	-2.634525e+01	-1.363605e+01
1.290000e-06	-3.558718e-06	-1.714397e-10	-2.591280e+01	-1.342039e+01
1.300000e-06	-3.499092e-06	-1.721450e-10	-2.547863e+01	-1.320082e+01
1.310000e-06	-3.439275e-06	-1.728409e-10	-2.504307e+01	-1.297955e+01
1.320000e-06	-3.379229e-06	-1.715211e-10	-2.460584e+01	-1.275832e+01
1.330000e-06	-3.318866e-06	-1.673446e-10	-2.416631e+01	-1.253802e+01
1.340000e-06	-3.258166e-06	-1.616356e-10	-2.372433e+01	-1.231840e+01
1.350000e-06	-3.197234e-06	-1.534917e-10	-2.328065e+01	-1.209810e+01
1.360000e-06	-3.136072e-06	-1.460592e-10	-2.283530e+01	-1.187480e+01
1.370000e-06	-3.074648e-06	-1.423605e-10	-2.238804e+01	-1.164569e+01
1.380000e-06	-3.013025e-06	-1.388460e-10	-2.193933e+01	-1.140798e+01
1.390000e-06	-2.951239e-06	-1.361837e-10	-2.148943e+01	-1.115947e+01
1.400000e-06	-2.889268e-06	-1.328537e-10	-2.103819e+01	-1.089901e+01
1.410000e-06	-2.827095e-06	-1.299921e-10	-2.058549e+01	-1.062690e+01
1.420000e-06	-2.764711e-06	-1.302335e-10	-2.013124e+01	-1.034489e+01
1.430000e-06	-2.702124e-06	-1.275445e-10	-1.967551e+01	-1.005611e+01
1.440000e-06	-2.639322e-06	-1.228346e-10	-1.921822e+01	-9.764608e+00
1.450000e-06	-2.576301e-06	-1.164939e-10	-1.875933e+01	-9.474841e+00
1.460000e-06	-2.513097e-06	-1.097780e-10	-1.829911e+01	-9.190976e+00
1.470000e-06	-2.449717e-06	-1.034061e-10	-1.783761e+01	-8.916287e+00
1.480000e-06	-2.386151e-06	-1.019736e-10	-1.737475e+01	-8.652640e+00
1.490000e-06	-2.322422e-06	-1.030433e-10	-1.691071e+01	-8.400206e+00
1.500000e-06	-2.258549e-06	-1.064021e-10	-1.644562e+01	-8.157437e+00
1.510000e-06	-2.194515e-06	-1.083642e-10	-1.597935e+01	-7.921312e+00
1.520000e-06	-2.130325e-06	-1.056719e-10	-1.551196e+01	-7.687820e+00
1.530000e-06	-2.065991e-06	-9.923547e-11	-1.504351e+01	-7.452600e+00
1.540000e-06	-2.001517e-06	-9.005746e-11	-1.457404e+01	-7.211645e+00
1.550000e-06	-1.936922e-06	-8.211077e-11	-1.410369e+01	-6.961940e+00
1.560000e-06	-1.872197e-06	-7.607548e-11	-1.363240e+01	-6.701946e+00
1.570000e-06	-1.807364e-06	-7.029671e-11	-1.316031e+01	-6.431846e+00
1.580000e-06	-1.742432e-06	-6.885664e-11	-1.268752e+01	-6.153507e+00
1.590000e-06	-1.677358e-06	-7.310224e-11	-1.221368e+01	-5.870182e+00
1.600000e-06	-1.612144e-06	-7.860063e-11	-1.173882e+01	-5.585984e+00
1.610000e-06	-1.546798e-06	-8.079581e-11	-1.126301e+01	-5.305233e+00
1.620000e-06	-1.481300e-06	-7.218940e-11	-1.078608e+01	-5.031776e+00
1.630000e-06	-1.415685e-06	-5.958707e-11	-1.030830e+01	-4.768396e+00
1.640000e-06	-1.349961e-06	-4.653493e-11	-9.829735e+00	-4.516403e+00
1.650000e-06	-1.284124e-06	-3.936297e-11	-9.350348e+00	-4.275476e+00
1.660000e-06	-1.218261e-06	-3.618055e-11	-8.870767e+00	-4.043769e+00
1.670000e-06	-1.152362e-06	-3.711842e-11	-8.390921e+00	-3.818278e+00
1.680000e-06	-1.086355e-06	-3.967032e-11	-7.910288e+00	-3.595376e+00
1.690000e-06	-1.020261e-06	-4.004850e-11	-7.429028e+00	-3.371451e+00
1.700000e-06	-9.541020e-07	-3.896411e-11	-6.947291e+00	-3.143518e+00
1.710000e-06	-8.878761e-07	-3.559730e-11	-6.465067e+00	-2.909708e+00
1.720000e-06	-8.215777e-07	-3.152429e-11	-5.982316e+00	-2.669549e+00
1.730000e-06	-7.552003e-07	-2.603806e-11	-5.498989e+00	-2.423998e+00
1.740000e-06	-6.887571e-07	-2.084044e-11	-5.015182e+00	-2.175206e+00
1.750000e-06	-6.222565e-07	-1.574326e-11	-4.530959e+00	-1.926081e+00
1.760000e-06	-5.557043e-07	-1.113574e-11	-4.046359e+00	-1.679699e+00
1.770000e-06	-4.891446e-07	-7.725612e-12	-3.561705e+00	-1.438690e+00
1.780000e-06	-4.226072e-07	-8.879251e-12	-3.077213e+00	-1.204688e+00
1.790000e-06	-3.560512e-07	-1.152483e-11	-2.592586e+00	-9.779513e-01
1.800000e-06	-2.894781e-07	-1.402430e-11	-2.107834e+00	-7.572237e-01
1.810000e-06	-2.229051e-07	-1.340528e-11	-1.623083e+00	-5.398507e-01
1.820000e-06	-1.563024e-07	-9.307905e-12	-1.138116e+00	-3.221480e-01
1.830000e-06	-8.969661e-08	-9.979136e-13	-6.531256e-01	-9.995492e-02
1.840000e-06	-2.311082e-08	1.031405e-11	-1.682814e-01	1.307156e-01
1.850000e-06	4.348954e-08	1.835370e-11	3.166689e-01	3.730393e-01
1.860000e-06	1.100973e-07	2.058574e-11	8.016728e-01	6.288621e-01
1.870000e-06	1.767067e-07	2.040415e-11	1.286689e+00	8.983870e-01
1.880000e-06	2.433342e-07	2.106383e-11	1.771837e+00	1.180122e+00
1.890000e-06	3.099498e-07	2.037393e-11	2.256899e+00	1.471096e+00
1.900000e-06	3.765493e-07	1.986633e-11	2.741842e+00	1.767313e+00
1.910000e-06	4.431069e-07	2.300870e-11	3.226481e+00	2.064361e+00
1.920000e-06	5.096189e-07	3.036527e-11	3.710789e+00	2.358093e+00
1.930000e-06	5.760911e-07	3.786872e-11	4.194806e+00	2.645244e+00
1.940000e-06	6.425021e-07	4.161503e-11	4.678377e+00	2.923902e+00
1.950000e-06	7.088657e-07	4.074937e-11	5.161603e+00	3.193754e+00
1.960000e-06	7.751871e-07	4.011319e-11	5.644523e+00	3.456050e+00
1.970000e-06	8.414690e-07	4.030985e-11	6.127154e+00	3.713315e+00
1.980000e-06	9.077055e-07	4.346746e-11	6.609455e+00	3.968843e+00
1.990000e-06	9.739141e-07	5.062515e-11	7.091552e+00	4.226062e+00
2.000000e-06	1.040057e-06	5.905907e-11	7.573170e+00	4.487878e+00
2.010000e-06	1.106109e-06	6.593273e-11	8.054131e+00	4.756108e+00
2.020000e-06	1.172088e-06	6.901655e-11	8.534554e+00	5.031092e+00
2.030000e-06	1.237974e-06	6.859884e-11	9.014306e+00	5.311561e+00
2.040000e-06	1.303760e-06	6.652558e-11	9.493325e+00	5.594768e+00
2.050000e-06	1.369400e-06	6.567495e-11	9.971280e+00	5.876879e+00
2.060000e-06	1.434916e-06	6.691689e-11	1.044834e+01	6.153552e+00
2.070000e-06	1.500315e-06	7.174398e-11	1.092454e+01	6.420614e+00
2.080000e-06	1.565566e-06	7.967836e-11	1.139967e+01	6.674721e+00
2.090000e-06	1.630714e-06	8.742840e-11	1.187404e+01	6.913904e+00
2.100000e-06	1.695753e-06	9.056058e-11	1.234762e+01	7.137912e+00
2.110000e-06	1.760679e-06	8.958691e-11	1.282038e+01	7.348286e+00
2.120000e-06	1.825520e-06	8.766462e-11	1.329252e+01	7.548170e+00
2.130000e-06	1.890270e-06	8.817680e-11	1.376400e+01	7.741877e+00
2.140000e-06	1.954907e-06	9.033076e-11	1.423465e+01	7.934285e+00
2.150000e-06	2.019416e-06	9.424946e-11	1.470437e+01	8.130159e+00
2.160000e-06	2.083758e-06	1.009276e-10	1.517288e+01	8.333503e+00
2.170000e-06	2.147909e-06	1.085087e-10	1.563999e+01	8.547045e+00
2.180000e-06	2.211892e-06	1.138503e-10	1.610588e+01	8.771928e+00
2.190000e-06	2.275705e-06	1.148257e-10	1.657054e+01	9.007655e+00
2.200000e-06	2.339347e-06	1.134000e-10	1.703395e+01	9.252283e+00
2.210000e-06	2.402813e-06	1.126373e-10	1.749608e+01	9.502837e+00
2.220000e-06	2.466118e-06	1.139826e-10	1.795703e+01	9.755860e+00
2.230000e-06	2.529257e-06	1.159939e-10	1.841678e+01	1.000802e+01
2.240000e-06	2.592246e-06	1.193202e-10	1.887543e+01	1.025668e+01
2.250000e-06	2.655094e-06	1.252290e-10	1.933306e+01	1.050029e+01
2.260000e-06	2.717787e-06	1.327460e-10	1.978956e+01	1.073866e+01
2.270000e-06	2.780249e-06	1.384433e-10	2.024438e+01	1.097291e+01
2.280000e-06	2.842458e-06	1.411681e-10	2.069735e+01	1.120529e+01
2.290000e-06	2.904456e-06	1.436640e-10	2.114879e+01	1.143876e+01
2.300000e-06	2.966237e-06	1.476486e-10	2.159865e+01	1.167647e+01
2.310000e-06	3.027818e-06	1.515121e-10	2.204705e+01	1.192125e+01
2.320000e-06	3.089175e-06	1.525003e-10	2.249382e+01	1.217513e+01
2.330000e-06	3.150288e-06	1.538842e-10	2.293881e+01	1.243899e+01
2.340000e-06	3.211108e-06	1.582851e-10	2.338168e+01	1.271242e+01
2.350000e-06	3.271642e-06	1.632440e-10	2.382245e+01	1.299372e+01
2.360000e-06	3.331925e-06	1.685212e-10	2.426140e+01	1.328015e+01
2.370000e-06	3.391966e-06	1.723009e-10	2.469859e+01	1.356830e+01
2.380000e-06	3.451811e-06	1.750349e-10	2.513435e+01	1.385449e+01
2.390000e-06	3.511434e-06	1.797457e-10	2.556849e+01	1.413524e+01
2.400000e-06	3.570827e-06	1.827384e-10	2.600096e+01	1.440765e+01
2.410000e-06	3.630003e-06	1.844703e-10	2.643186e+01	1.466967e+01
2.420000e-06	3.688919e-06	1.885153e-10	2.686085e+01	1.492021e+01
2.430000e-06	3.747583e-06	1.946127e-10	2.728801e+01	1.515913e+01
2.440000e-06	3.806018e-06	2.013394e-10	2.771351e+01	1.538707e+01
2.450000e-06	3.864170e-06	2.057572e-10	2.813694e+01	1.560524e+01
2.460000e-06	3.921973e-06	2.093067e-10	2.855783e+01	1.581507e+01
2.470000e-06	3.979473e-06	2.131576e-10	2.897652e+01	1.601800e+01
2.480000e-06	4.036674e-06	2.176682e-10	2.939303e+01	1.621526e+01
2.490000e-06	4.093589e-06	2.210274e-10	2.980746e+01	1.640770e+01
2.500000e-06	4.150222e-06	2.218188e-10	3.021983e+01	1.659584e+01
2.510000e-06	4.206528e-06	2.230847e-10	3.062982e+01	1.677985e+01
2.520000e-06	4.262508e-06	2.239601e-10	3.103744e+01	1.695976e+01
2.530000e-06	4.318151e-06	2.240902e-10	3.144260e+01	1.713557e+01
2.540000e-06	4.373484e-06	2.255732e-10	3.184551e+01	1.730740e+01
2.550000e-06	4.428482e-06	2.301921e-10	3.224598e+01	1.747561e+01
2.560000e-06	4.483133e-06	2.379063e-10	3.264392e+01	1.764080e+01
2.570000e-06	4.537481e-06	2.462103e-10	3.303965e+01	1.780382e+01
2.580000e-06	4.591457e-06	2.508450e-10	3.343268e+01	1.796564e+01
2.590000e-06	4.645075e-06	2.506858e-10	3.382310e+01	1.812724e+01
2.600000e-06	4.698418e-06	2.473166e-10	3.421152e+01	1.828947e+01
2.610000e-06	4.751412e-06	2.446154e-10	3.459739e+01	1.845299e+01
2.620000e-06	4.804015e-06	2.443708e-10	3.498042e+01	1.861817e+01
2.630000e-06	4.856262e-06	2.479755e-10	3.536086e+01	1.878515e+01
2.640000e-06	4.908197e-06	2.541839e-10	3.573902e+01	1.895394e+01
2.650000e-06	4.959808e-06	2.592888e-10	3.611483e+01	1.912452e+01
2.660000e-06	5.011052e-06	2.633064e-10	3.648796e+01	1.929704e+01
2.670000e-06	5.061919e-06	2.652148e-10	3.685834e+01	1.947195e+01
2.680000e-06	5.112455e-06	2.657119e-10	3.722633e+01	1.965003e+01
2.690000e-06	5.162703e-06	2.650626e-10	3.759221e+01	1.983245e+01
2.700000e-06	5.212630e-06	2.656905e-10	3.795575e+01	2.002060e+01
2.710000e-06	5.262134e-06	2.689328e-10	3.831621e+01	2.021596e+01
2.720000e-06	5.311195e-06	2.747442e-10	3.867345e+01	2.041977e+01
2.730000e-06	5.359894e-06	2.810920e-10	3.902806e+01	2.063281e+01
2.740000e-06	5.408206e-06	2.861668e-10	3.937983e+01	2.085511e+01
2.750000e-06	5.456088e-06	2.905465e-10	3.972849e+01	2.108577e+01
2.760000e-06	5.503559e-06	2.940061e-10	4.007415e+01	2.132292e+01
2.770000e-06	5.550658e-06	2.959524e-10	4.041710e+01	2.156378e+01
2.780000e-06	5.597422e-06	2.981150e-10	4.075761e+01	2.180489e+01
2.790000e-06	5.643755e-06	3.013315e-10	4.109498e+01	2.204245e+01
2.800000e-06	5.689605e-06	3.035241e-10	4.142884e+01	2.227273e+01
2.810000e-06	5.735014e-06	3.060267e-10	4.175949e+01	2.249252e+01
2.820000e-06	5.779956e-06	3.103100e-10	4.208673e+01	2.269950e+01
2.830000e-06	5.824458e-06	3.145697e-10	4.241077e+01	2.289249e+01
2.840000e-06	5.868570e-06	3.182859e-10	4.273197e+01	2.307162e+01
2.850000e-06	5.912289e-06	3.211281e-10	4.305031e+01	2.323822e+01
2.860000e-06	5.955640e-06	3.223172e-10	4.336597e+01	2.339464e+01
2.870000e-06	5.998576e-06	3.228382e-10	4.367861e+01	2.354385e+01
2.880000e-06	6.041057e-06	3.233804e-10	4.398794e+01	2.368902e+01
2.890000e-06	6.083054e-06	3.259560e-10	4.429374e+01	2.383304e+01
2.900000e-06	6.124559e-06	3.320972e-10	4.459596e+01	2.397812e+01
2.910000e-06	6.165646e-06	3.378826e-10	4.489514e+01	2.412550e+01
