# Temperatura_=_20.0
# Concentracion g/m^3_=_10000.0
# C_Vs_to_Am_M_A/Vsm_=_65563218390.804596
# pendiente_HvsI_1/m_=_3716.3
# ordenada_HvsI_A/m_=_1297.0
# frecuencia_Hz_=_135401.35626846345

Tiempo_(s)	Campo_(V.s)	Magnetizacion_(V.s)	Campo_(kA/m)	Magnetizacion_(A/m)
0.000000e+00	-7.805304e-06	-1.150919e-08	-5.697827e+01	-7.513927e+02
1.000000e-08	-7.805362e-06	-1.150166e-08	-5.697869e+01	-7.514380e+02
2.000000e-08	-7.804923e-06	-1.149548e-08	-5.697548e+01	-7.514537e+02
3.000000e-08	-7.803890e-06	-1.149354e-08	-5.696794e+01	-7.514366e+02
4.000000e-08	-7.802306e-06	-1.149535e-08	-5.695638e+01	-7.513845e+02
5.000000e-08	-7.800278e-06	-1.149646e-08	-5.694158e+01	-7.512974e+02
6.000000e-08	-7.797790e-06	-1.149860e-08	-5.692342e+01	-7.511774e+02
7.000000e-08	-7.794805e-06	-1.150178e-08	-5.690162e+01	-7.510292e+02
8.000000e-08	-7.791373e-06	-1.149450e-08	-5.687657e+01	-7.508595e+02
9.000000e-08	-7.787342e-06	-1.147559e-08	-5.684714e+01	-7.506767e+02
1.000000e-07	-7.782409e-06	-1.148491e-08	-5.681113e+01	-7.504904e+02
1.100000e-07	-7.776284e-06	-1.150979e-08	-5.676642e+01	-7.503097e+02
1.200000e-07	-7.768956e-06	-1.149893e-08	-5.671293e+01	-7.501425e+02
1.300000e-07	-7.760999e-06	-1.144746e-08	-5.665484e+01	-7.499945e+02
1.400000e-07	-7.753059e-06	-1.140394e-08	-5.659688e+01	-7.498681e+02
1.500000e-07	-7.745054e-06	-1.149007e-08	-5.653844e+01	-7.497619e+02
1.600000e-07	-7.736367e-06	-1.150822e-08	-5.647503e+01	-7.496707e+02
1.700000e-07	-7.727127e-06	-1.137497e-08	-5.640758e+01	-7.495861e+02
1.800000e-07	-7.717745e-06	-1.144430e-08	-5.633909e+01	-7.494965e+02
1.900000e-07	-7.707711e-06	-1.152456e-08	-5.626584e+01	-7.493892e+02
2.000000e-07	-7.696843e-06	-1.138672e-08	-5.618650e+01	-7.492510e+02
2.100000e-07	-7.685687e-06	-1.139693e-08	-5.610506e+01	-7.490697e+02
2.200000e-07	-7.674120e-06	-1.148613e-08	-5.602063e+01	-7.488355e+02
2.300000e-07	-7.661813e-06	-1.137257e-08	-5.593079e+01	-7.485417e+02
2.400000e-07	-7.649092e-06	-1.135751e-08	-5.583792e+01	-7.481855e+02
2.500000e-07	-7.635967e-06	-1.145932e-08	-5.574211e+01	-7.477675e+02
2.600000e-07	-7.622038e-06	-1.138802e-08	-5.564044e+01	-7.472920e+02
2.700000e-07	-7.607479e-06	-1.133208e-08	-5.553415e+01	-7.467659e+02
2.800000e-07	-7.592427e-06	-1.140011e-08	-5.542428e+01	-7.461976e+02
2.900000e-07	-7.576731e-06	-1.136775e-08	-5.530969e+01	-7.455962e+02
3.000000e-07	-7.560601e-06	-1.132883e-08	-5.519195e+01	-7.449703e+02
3.100000e-07	-7.543995e-06	-1.136713e-08	-5.507072e+01	-7.443270e+02
3.200000e-07	-7.526641e-06	-1.130424e-08	-5.494404e+01	-7.436718e+02
3.300000e-07	-7.508822e-06	-1.130277e-08	-5.481397e+01	-7.430076e+02
3.400000e-07	-7.490611e-06	-1.135432e-08	-5.468102e+01	-7.423355e+02
3.500000e-07	-7.471774e-06	-1.127885e-08	-5.454352e+01	-7.416549e+02
3.600000e-07	-7.452380e-06	-1.125410e-08	-5.440194e+01	-7.409640e+02
3.700000e-07	-7.432416e-06	-1.130617e-08	-5.425620e+01	-7.402606e+02
3.800000e-07	-7.411712e-06	-1.126055e-08	-5.410507e+01	-7.395424e+02
3.900000e-07	-7.390357e-06	-1.123776e-08	-5.394917e+01	-7.388077e+02
4.000000e-07	-7.368405e-06	-1.125269e-08	-5.378893e+01	-7.380554e+02
4.100000e-07	-7.345885e-06	-1.120507e-08	-5.362453e+01	-7.372853e+02
4.200000e-07	-7.322855e-06	-1.119930e-08	-5.345641e+01	-7.364974e+02
4.300000e-07	-7.299242e-06	-1.121257e-08	-5.328404e+01	-7.356919e+02
4.400000e-07	-7.275094e-06	-1.117287e-08	-5.310776e+01	-7.348684e+02
4.500000e-07	-7.250485e-06	-1.115337e-08	-5.292812e+01	-7.340262e+02
4.600000e-07	-7.225416e-06	-1.116441e-08	-5.274511e+01	-7.331632e+02
4.700000e-07	-7.199904e-06	-1.114408e-08	-5.255888e+01	-7.322767e+02
4.800000e-07	-7.173898e-06	-1.112647e-08	-5.236904e+01	-7.313632e+02
4.900000e-07	-7.147284e-06	-1.111227e-08	-5.217476e+01	-7.304187e+02
5.000000e-07	-7.120118e-06	-1.108830e-08	-5.197645e+01	-7.294399e+02
5.100000e-07	-7.092501e-06	-1.107292e-08	-5.177484e+01	-7.284239e+02
5.200000e-07	-7.064418e-06	-1.106662e-08	-5.156984e+01	-7.273695e+02
5.300000e-07	-7.035797e-06	-1.103322e-08	-5.136091e+01	-7.262772e+02
5.400000e-07	-7.006582e-06	-1.100976e-08	-5.114764e+01	-7.251491e+02
5.500000e-07	-6.976760e-06	-1.100927e-08	-5.092994e+01	-7.239893e+02
5.600000e-07	-6.946329e-06	-1.099697e-08	-5.070780e+01	-7.228029e+02
5.700000e-07	-6.915303e-06	-1.097259e-08	-5.048131e+01	-7.215954e+02
5.800000e-07	-6.883767e-06	-1.094514e-08	-5.025110e+01	-7.203721e+02
5.900000e-07	-6.851796e-06	-1.091875e-08	-5.001771e+01	-7.191371e+02
6.000000e-07	-6.819360e-06	-1.090703e-08	-4.978093e+01	-7.178925e+02
6.100000e-07	-6.786415e-06	-1.088801e-08	-4.954043e+01	-7.166384e+02
6.200000e-07	-6.752996e-06	-1.085969e-08	-4.929648e+01	-7.153723e+02
6.300000e-07	-6.719161e-06	-1.084773e-08	-4.904948e+01	-7.140899e+02
6.400000e-07	-6.684917e-06	-1.083637e-08	-4.879950e+01	-7.127849e+02
6.500000e-07	-6.650244e-06	-1.081547e-08	-4.854639e+01	-7.114508e+02
6.600000e-07	-6.615083e-06	-1.078587e-08	-4.828972e+01	-7.100812e+02
6.700000e-07	-6.579420e-06	-1.075626e-08	-4.802938e+01	-7.086708e+02
6.800000e-07	-6.543227e-06	-1.072846e-08	-4.776518e+01	-7.072166e+02
6.900000e-07	-6.506511e-06	-1.070786e-08	-4.749715e+01	-7.057178e+02
7.000000e-07	-6.469343e-06	-1.068566e-08	-4.722583e+01	-7.041763e+02
7.100000e-07	-6.431736e-06	-1.065809e-08	-4.695130e+01	-7.025963e+02
7.200000e-07	-6.393696e-06	-1.063432e-08	-4.667361e+01	-7.009839e+02
7.300000e-07	-6.355264e-06	-1.061702e-08	-4.639305e+01	-6.993457e+02
7.400000e-07	-6.316474e-06	-1.059090e-08	-4.610989e+01	-6.976882e+02
7.500000e-07	-6.277234e-06	-1.055585e-08	-4.582344e+01	-6.960167e+02
7.600000e-07	-6.237465e-06	-1.052152e-08	-4.553313e+01	-6.943345e+02
7.700000e-07	-6.197188e-06	-1.049640e-08	-4.523911e+01	-6.926421e+02
7.800000e-07	-6.156457e-06	-1.047283e-08	-4.494177e+01	-6.909375e+02
7.900000e-07	-6.115288e-06	-1.044362e-08	-4.464125e+01	-6.892163e+02
8.000000e-07	-6.073674e-06	-1.041367e-08	-4.433746e+01	-6.874720e+02
8.100000e-07	-6.031561e-06	-1.038936e-08	-4.403004e+01	-6.856973e+02
8.200000e-07	-5.988956e-06	-1.036695e-08	-4.371903e+01	-6.838849e+02
8.300000e-07	-5.945923e-06	-1.033784e-08	-4.340489e+01	-6.820284e+02
8.400000e-07	-5.902471e-06	-1.030323e-08	-4.308769e+01	-6.801235e+02
8.500000e-07	-5.858622e-06	-1.027020e-08	-4.276760e+01	-6.781679e+02
8.600000e-07	-5.814403e-06	-1.024042e-08	-4.244480e+01	-6.761620e+02
8.700000e-07	-5.769807e-06	-1.020708e-08	-4.211925e+01	-6.741084e+02
8.800000e-07	-5.724862e-06	-1.017076e-08	-4.179116e+01	-6.720115e+02
8.900000e-07	-5.679497e-06	-1.013605e-08	-4.146000e+01	-6.698765e+02
9.000000e-07	-5.633603e-06	-1.010712e-08	-4.112498e+01	-6.677088e+02
9.100000e-07	-5.587201e-06	-1.007772e-08	-4.078624e+01	-6.655129e+02
9.200000e-07	-5.540324e-06	-1.004089e-08	-4.044404e+01	-6.632918e+02
9.300000e-07	-5.493059e-06	-1.000051e-08	-4.009901e+01	-6.610464e+02
9.400000e-07	-5.445385e-06	-9.965865e-09	-3.975099e+01	-6.587756e+02
9.500000e-07	-5.397293e-06	-9.934277e-09	-3.939992e+01	-6.564764e+02
9.600000e-07	-5.348895e-06	-9.899721e-09	-3.904662e+01	-6.541441e+02
9.700000e-07	-5.300120e-06	-9.858412e-09	-3.869057e+01	-6.517735e+02
9.800000e-07	-5.250895e-06	-9.822208e-09	-3.833123e+01	-6.493590e+02
9.900000e-07	-5.201284e-06	-9.787377e-09	-3.796907e+01	-6.468959e+02
1.000000e-06	-5.151336e-06	-9.748522e-09	-3.760445e+01	-6.443803e+02
1.010000e-06	-5.101102e-06	-9.701882e-09	-3.723775e+01	-6.418102e+02
1.020000e-06	-5.050563e-06	-9.656951e-09	-3.686882e+01	-6.391847e+02
1.030000e-06	-4.999641e-06	-9.621485e-09	-3.649709e+01	-6.365045e+02
1.040000e-06	-4.948341e-06	-9.584787e-09	-3.612260e+01	-6.337711e+02
1.050000e-06	-4.896719e-06	-9.543956e-09	-3.574576e+01	-6.309862e+02
1.060000e-06	-4.844690e-06	-9.500613e-09	-3.536596e+01	-6.281516e+02
1.070000e-06	-4.792209e-06	-9.459074e-09	-3.498285e+01	-6.252684e+02
1.080000e-06	-4.739376e-06	-9.414344e-09	-3.459717e+01	-6.223367e+02
1.090000e-06	-4.686235e-06	-9.362853e-09	-3.420924e+01	-6.193556e+02
1.100000e-06	-4.632780e-06	-9.309354e-09	-3.381903e+01	-6.163232e+02
1.110000e-06	-4.578975e-06	-9.262853e-09	-3.342625e+01	-6.132371e+02
1.120000e-06	-4.524854e-06	-9.222077e-09	-3.303117e+01	-6.100948e+02
1.130000e-06	-4.470446e-06	-9.180810e-09	-3.263400e+01	-6.068940e+02
1.140000e-06	-4.415755e-06	-9.131674e-09	-3.223475e+01	-6.036331e+02
1.150000e-06	-4.360779e-06	-9.080499e-09	-3.183344e+01	-6.003116e+02
1.160000e-06	-4.305456e-06	-9.028664e-09	-3.142958e+01	-5.969301e+02
1.170000e-06	-4.249746e-06	-8.975232e-09	-3.102290e+01	-5.934902e+02
1.180000e-06	-4.193651e-06	-8.915733e-09	-3.061341e+01	-5.899943e+02
1.190000e-06	-4.137177e-06	-8.855246e-09	-3.020115e+01	-5.864448e+02
1.200000e-06	-4.080337e-06	-8.800816e-09	-2.978622e+01	-5.828444e+02
1.210000e-06	-4.023185e-06	-8.751091e-09	-2.936902e+01	-5.791948e+02
1.220000e-06	-3.965732e-06	-8.700294e-09	-2.894961e+01	-5.754966e+02
1.230000e-06	-3.907963e-06	-8.644202e-09	-2.852790e+01	-5.717496e+02
1.240000e-06	-3.849893e-06	-8.587006e-09	-2.810399e+01	-5.679521e+02
1.250000e-06	-3.791559e-06	-8.528227e-09	-2.767816e+01	-5.641013e+02
1.260000e-06	-3.733000e-06	-8.465771e-09	-2.725068e+01	-5.601941e+02
1.270000e-06	-3.674192e-06	-8.398238e-09	-2.682138e+01	-5.562270e+02
1.280000e-06	-3.615139e-06	-8.332938e-09	-2.639030e+01	-5.521969e+02
1.290000e-06	-3.555882e-06	-8.272315e-09	-2.595773e+01	-5.481012e+02
1.300000e-06	-3.496420e-06	-8.212595e-09	-2.552366e+01	-5.439384e+02
1.310000e-06	-3.436732e-06	-8.151992e-09	-2.508794e+01	-5.397080e+02
1.320000e-06	-3.376807e-06	-8.088121e-09	-2.465050e+01	-5.354103e+02
1.330000e-06	-3.316590e-06	-8.021179e-09	-2.421091e+01	-5.310462e+02
1.340000e-06	-3.256090e-06	-7.952369e-09	-2.376927e+01	-5.266166e+02
1.350000e-06	-3.195341e-06	-7.880542e-09	-2.332580e+01	-5.221222e+02
1.360000e-06	-3.134353e-06	-7.806661e-09	-2.288059e+01	-5.175627e+02
1.370000e-06	-3.073162e-06	-7.733054e-09	-2.243390e+01	-5.129369e+02
1.380000e-06	-3.011782e-06	-7.660492e-09	-2.198583e+01	-5.082424e+02
1.390000e-06	-2.950212e-06	-7.588534e-09	-2.153638e+01	-5.034757e+02
1.400000e-06	-2.888402e-06	-7.515746e-09	-2.108516e+01	-4.986325e+02
1.410000e-06	-2.826356e-06	-7.441540e-09	-2.063224e+01	-4.937081e+02
1.420000e-06	-2.764093e-06	-7.367291e-09	-2.017772e+01	-4.886982e+02
1.430000e-06	-2.701636e-06	-7.291542e-09	-1.972178e+01	-4.835990e+02
1.440000e-06	-2.639005e-06	-7.213607e-09	-1.926458e+01	-4.784079e+02
1.450000e-06	-2.576160e-06	-7.133419e-09	-1.880582e+01	-4.731235e+02
1.460000e-06	-2.513121e-06	-7.050466e-09	-1.834564e+01	-4.677460e+02
1.470000e-06	-2.449909e-06	-6.966410e-09	-1.788419e+01	-4.622765e+02
1.480000e-06	-2.386488e-06	-6.880937e-09	-1.742122e+01	-4.567166e+02
1.490000e-06	-2.322862e-06	-6.793928e-09	-1.695676e+01	-4.510685e+02
1.500000e-06	-2.259110e-06	-6.707014e-09	-1.649137e+01	-4.453333e+02
1.510000e-06	-2.195252e-06	-6.620304e-09	-1.602521e+01	-4.395112e+02
1.520000e-06	-2.131241e-06	-6.533979e-09	-1.555794e+01	-4.336011e+02
1.530000e-06	-2.067101e-06	-6.442797e-09	-1.508972e+01	-4.275999e+02
1.540000e-06	-2.002843e-06	-6.348789e-09	-1.462063e+01	-4.215029e+02
1.550000e-06	-1.938476e-06	-6.256569e-09	-1.415076e+01	-4.153039e+02
1.560000e-06	-1.874004e-06	-6.164319e-09	-1.368012e+01	-4.089960e+02
1.570000e-06	-1.809401e-06	-6.069142e-09	-1.320852e+01	-4.025718e+02
1.580000e-06	-1.744650e-06	-5.968892e-09	-1.273584e+01	-3.960244e+02
1.590000e-06	-1.679724e-06	-5.865361e-09	-1.226188e+01	-3.893478e+02
1.600000e-06	-1.614643e-06	-5.763037e-09	-1.178680e+01	-3.825374e+02
1.610000e-06	-1.549433e-06	-5.657143e-09	-1.131077e+01	-3.755901e+02
1.620000e-06	-1.484069e-06	-5.542471e-09	-1.083362e+01	-3.685043e+02
1.630000e-06	-1.418574e-06	-5.425723e-09	-1.035551e+01	-3.612793e+02
1.640000e-06	-1.353006e-06	-5.312946e-09	-9.876866e+00	-3.539155e+02
1.650000e-06	-1.287382e-06	-5.207657e-09	-9.397810e+00	-3.464131e+02
1.660000e-06	-1.221677e-06	-5.098283e-09	-8.918169e+00	-3.387718e+02
1.670000e-06	-1.155920e-06	-4.980663e-09	-8.438148e+00	-3.309903e+02
1.680000e-06	-1.090101e-06	-4.856720e-09	-7.957676e+00	-3.230662e+02
1.690000e-06	-1.024193e-06	-4.730337e-09	-7.476552e+00	-3.149953e+02
1.700000e-06	-9.582282e-07	-4.603206e-09	-6.995010e+00	-3.067724e+02
1.710000e-06	-8.921852e-07	-4.471334e-09	-6.512900e+00	-2.983915e+02
1.720000e-06	-8.260601e-07	-4.337573e-09	-6.030191e+00	-2.898458e+02
1.730000e-06	-7.598912e-07	-4.206000e-09	-5.547162e+00	-2.811290e+02
1.740000e-06	-6.936807e-07	-4.077068e-09	-5.063829e+00	-2.722353e+02
1.750000e-06	-6.273954e-07	-3.942626e-09	-4.579950e+00	-2.631601e+02
1.760000e-06	-5.610181e-07	-3.799618e-09	-4.095400e+00	-2.539000e+02
1.770000e-06	-4.946151e-07	-3.651042e-09	-3.610661e+00	-2.444529e+02
1.780000e-06	-4.281834e-07	-3.500187e-09	-3.125714e+00	-2.348177e+02
1.790000e-06	-3.617277e-07	-3.346543e-09	-2.640591e+00	-2.249939e+02
1.800000e-06	-2.953347e-07	-3.189350e-09	-2.155926e+00	-2.149809e+02
1.810000e-06	-2.289254e-07	-3.031295e-09	-1.671142e+00	-2.047778e+02
1.820000e-06	-1.624701e-07	-2.876693e-09	-1.186022e+00	-1.943824e+02
1.830000e-06	-9.600478e-08	-2.719801e-09	-7.008293e-01	-1.837912e+02
1.840000e-06	-2.950990e-08	-2.554412e-09	-2.154206e-01	-1.729993e+02
1.850000e-06	3.701096e-08	-2.383803e-09	2.701779e-01	-1.620003e+02
1.860000e-06	1.035584e-07	-2.213443e-09	7.559705e-01	-1.507868e+02
1.870000e-06	1.701012e-07	-2.040555e-09	1.241729e+00	-1.393509e+02
1.880000e-06	2.366286e-07	-1.862335e-09	1.727375e+00	-1.276848e+02
1.890000e-06	3.031658e-07	-1.680112e-09	2.213093e+00	-1.157815e+02
1.900000e-06	3.696922e-07	-1.497632e-09	2.698732e+00	-1.036355e+02
1.910000e-06	4.361518e-07	-1.313100e-09	3.183883e+00	-9.124303e+01
1.920000e-06	5.025346e-07	-1.123142e-09	3.668473e+00	-7.860252e+01
1.930000e-06	5.688524e-07	-9.294293e-10	4.152589e+00	-6.571471e+01
1.940000e-06	6.351100e-07	-7.320849e-10	4.636266e+00	-5.258262e+01
1.950000e-06	7.013242e-07	-5.314336e-10	5.119626e+00	-3.921135e+01
1.960000e-06	7.674912e-07	-3.249015e-10	5.602641e+00	-2.560800e+01
1.970000e-06	8.335802e-07	-1.151558e-10	6.085087e+00	-1.178143e+01
1.980000e-06	8.996045e-07	9.765526e-11	6.567060e+00	2.257724e+00
1.990000e-06	9.655904e-07	3.127292e-10	7.048754e+00	1.649704e+01
2.000000e-06	1.031538e-06	5.323056e-10	7.530165e+00	3.092208e+01
2.010000e-06	1.097430e-06	7.551756e-10	8.011172e+00	4.551608e+01
2.020000e-06	1.163251e-06	9.791310e-10	8.491664e+00	6.025959e+01
2.030000e-06	1.229006e-06	1.202049e-09	8.971672e+00	7.513017e+01
2.040000e-06	1.294695e-06	1.425389e-09	9.451200e+00	9.010210e+01
2.050000e-06	1.360259e-06	1.652973e-09	9.929810e+00	1.051464e+02
2.060000e-06	1.425683e-06	1.879801e-09	1.040741e+01	1.202310e+02
2.070000e-06	1.491006e-06	2.107346e-09	1.088425e+01	1.353213e+02
2.080000e-06	1.556167e-06	2.339215e-09	1.135993e+01	1.503806e+02
2.090000e-06	1.621149e-06	2.574241e-09	1.183429e+01	1.653716e+02
2.100000e-06	1.686008e-06	2.803887e-09	1.230776e+01	1.802571e+02
2.110000e-06	1.750769e-06	3.024818e-09	1.278051e+01	1.950009e+02
2.120000e-06	1.815416e-06	3.240837e-09	1.325243e+01	2.095696e+02
2.130000e-06	1.879939e-06	3.456007e-09	1.372344e+01	2.239328e+02
2.140000e-06	1.944349e-06	3.665592e-09	1.419364e+01	2.380640e+02
2.150000e-06	2.008652e-06	3.867971e-09	1.466304e+01	2.519410e+02
2.160000e-06	2.072859e-06	4.071696e-09	1.513175e+01	2.655456e+02
2.170000e-06	2.136946e-06	4.278097e-09	1.559958e+01	2.788637e+02
2.180000e-06	2.200853e-06	4.479819e-09	1.606610e+01	2.918848e+02
2.190000e-06	2.264587e-06	4.671851e-09	1.653136e+01	3.046011e+02
2.200000e-06	2.328138e-06	4.855320e-09	1.699527e+01	3.170072e+02
2.210000e-06	2.391508e-06	5.034255e-09	1.745787e+01	3.290994e+02
2.220000e-06	2.454709e-06	5.210017e-09	1.791923e+01	3.408751e+02
2.230000e-06	2.517704e-06	5.379041e-09	1.837909e+01	3.523328e+02
2.240000e-06	2.580543e-06	5.542631e-09	1.883781e+01	3.634717e+02
2.250000e-06	2.643242e-06	5.706964e-09	1.929552e+01	3.742919e+02
2.260000e-06	2.705770e-06	5.872353e-09	1.975197e+01	3.847942e+02
2.270000e-06	2.768114e-06	6.032811e-09	2.020707e+01	3.949808e+02
2.280000e-06	2.830221e-06	6.185118e-09	2.066044e+01	4.048551e+02
2.290000e-06	2.892092e-06	6.330134e-09	2.111211e+01	4.144217e+02
2.300000e-06	2.953716e-06	6.470471e-09	2.156195e+01	4.236867e+02
2.310000e-06	3.015093e-06	6.605651e-09	2.201001e+01	4.326575e+02
2.320000e-06	3.076231e-06	6.730969e-09	2.245631e+01	4.413422e+02
2.330000e-06	3.137117e-06	6.849446e-09	2.290077e+01	4.497498e+02
2.340000e-06	3.197781e-06	6.967365e-09	2.334361e+01	4.578893e+02
2.350000e-06	3.258213e-06	7.085322e-09	2.378477e+01	4.657701e+02
2.360000e-06	3.318416e-06	7.200919e-09	2.422425e+01	4.734009e+02
2.370000e-06	3.378372e-06	7.311252e-09	2.466192e+01	4.807900e+02
2.380000e-06	3.438084e-06	7.418220e-09	2.509781e+01	4.879454e+02
2.390000e-06	3.497587e-06	7.523303e-09	2.553218e+01	4.948745e+02
2.400000e-06	3.556893e-06	7.623376e-09	2.596511e+01	5.015847e+02
2.410000e-06	3.615952e-06	7.718241e-09	2.639624e+01	5.080833e+02
2.420000e-06	3.674746e-06	7.810923e-09	2.682544e+01	5.143779e+02
2.430000e-06	3.733294e-06	7.902518e-09	2.725283e+01	5.204766e+02
2.440000e-06	3.791560e-06	7.991994e-09	2.767817e+01	5.263881e+02
2.450000e-06	3.849557e-06	8.077451e-09	2.810154e+01	5.321214e+02
2.460000e-06	3.907280e-06	8.161331e-09	2.852292e+01	5.376863e+02
2.470000e-06	3.964691e-06	8.246261e-09	2.894201e+01	5.430923e+02
2.480000e-06	4.021769e-06	8.329395e-09	2.935868e+01	5.483490e+02
2.490000e-06	4.078547e-06	8.407438e-09	2.977315e+01	5.534654e+02
2.500000e-06	4.135040e-06	8.481648e-09	3.018555e+01	5.584495e+02
2.510000e-06	4.191255e-06	8.554529e-09	3.059592e+01	5.633082e+02
2.520000e-06	4.247138e-06	8.625535e-09	3.100386e+01	5.680473e+02
2.530000e-06	4.302643e-06	8.693347e-09	3.140904e+01	5.726710e+02
2.540000e-06	4.357808e-06	8.758857e-09	3.181175e+01	5.771826e+02
2.550000e-06	4.412659e-06	8.824586e-09	3.221216e+01	5.815841e+02
2.560000e-06	4.467235e-06	8.892252e-09	3.261056e+01	5.858773e+02
2.570000e-06	4.521494e-06	8.959887e-09	3.300664e+01	5.900632e+02
2.580000e-06	4.575396e-06	9.023416e-09	3.340012e+01	5.941430e+02
2.590000e-06	4.628942e-06	9.081266e-09	3.379101e+01	5.981182e+02
2.600000e-06	4.682134e-06	9.136179e-09	3.417930e+01	6.019909e+02
2.610000e-06	4.734995e-06	9.188811e-09	3.456519e+01	6.057635e+02
2.620000e-06	4.787536e-06	9.236353e-09	3.494873e+01	6.094394e+02
2.630000e-06	4.839731e-06	9.282168e-09	3.532975e+01	6.130221e+02
2.640000e-06	4.891546e-06	9.331185e-09	3.570800e+01	6.165159e+02
2.650000e-06	4.943013e-06	9.382002e-09	3.608371e+01	6.199253e+02
2.660000e-06	4.994122e-06	9.432160e-09	3.645680e+01	6.232549e+02
2.670000e-06	5.044862e-06	9.481365e-09	3.682720e+01	6.265092e+02
2.680000e-06	5.095283e-06	9.530064e-09	3.719527e+01	6.296925e+02
2.690000e-06	5.145402e-06	9.575874e-09	3.756114e+01	6.328090e+02
2.700000e-06	5.195200e-06	9.617464e-09	3.792466e+01	6.358625e+02
2.710000e-06	5.244651e-06	9.658446e-09	3.828565e+01	6.388564e+02
2.720000e-06	5.293675e-06	9.699136e-09	3.864352e+01	6.417936e+02
2.730000e-06	5.342270e-06	9.739120e-09	3.899826e+01	6.446768e+02
2.740000e-06	5.390482e-06	9.778902e-09	3.935020e+01	6.475079e+02
2.750000e-06	5.438277e-06	9.819326e-09	3.969911e+01	6.502884e+02
2.760000e-06	5.485666e-06	9.857767e-09	4.004504e+01	6.530193e+02
2.770000e-06	5.532658e-06	9.895540e-09	4.038808e+01	6.557009e+02
2.780000e-06	5.579223e-06	9.935230e-09	4.072800e+01	6.583331e+02
2.790000e-06	5.625382e-06	9.973433e-09	4.106496e+01	6.609154e+02
2.800000e-06	5.671103e-06	1.001025e-08	4.139872e+01	6.634471e+02
2.810000e-06	5.716380e-06	1.004617e-08	4.172924e+01	6.659271e+02
2.820000e-06	5.761282e-06	1.008130e-08	4.205702e+01	6.683546e+02
2.830000e-06	5.805745e-06	1.011401e-08	4.238160e+01	6.707293e+02
2.840000e-06	5.849797e-06	1.014388e-08	4.270318e+01	6.730510e+02
2.850000e-06	5.893462e-06	1.017499e-08	4.302193e+01	6.753202e+02
2.860000e-06	5.936714e-06	1.020826e-08	4.333767e+01	6.775380e+02
2.870000e-06	5.979541e-06	1.024030e-08	4.365030e+01	6.797061e+02
2.880000e-06	6.021898e-06	1.027198e-08	4.395951e+01	6.818262e+02
2.890000e-06	6.063807e-06	1.030539e-08	4.426544e+01	6.839004e+02
2.900000e-06	6.105268e-06	1.033924e-08	4.456810e+01	6.859304e+02
