# Temperatura_=_20.0
# Concentracion g/m^3_=_10000.0
# C_Vs_to_Am_M_A/Vsm_=_65563218390.804596
# pendiente_HvsI_1/m_=_3716.3
# ordenada_HvsI_A/m_=_1297.0
# frecuencia_Hz_=_135401.58306162048

Tiempo_(s)	Campo_(V.s)	Magnetizacion_(V.s)	Campo_(kA/m)	Magnetizacion_(A/m)
0.000000e+00	-7.732310e-06	-1.149525e-08	-5.697916e+01	-7.493431e+02
1.000000e-08	-7.732372e-06	-1.149167e-08	-5.697962e+01	-7.494053e+02
2.000000e-08	-7.731963e-06	-1.149035e-08	-5.697660e+01	-7.494256e+02
3.000000e-08	-7.730936e-06	-1.149193e-08	-5.696904e+01	-7.493956e+02
4.000000e-08	-7.729358e-06	-1.149489e-08	-5.695741e+01	-7.493115e+02
5.000000e-08	-7.727379e-06	-1.149480e-08	-5.694283e+01	-7.491751e+02
6.000000e-08	-7.724933e-06	-1.149263e-08	-5.692480e+01	-7.489947e+02
7.000000e-08	-7.721972e-06	-1.148943e-08	-5.690298e+01	-7.487843e+02
8.000000e-08	-7.718560e-06	-1.147874e-08	-5.687784e+01	-7.485629e+02
9.000000e-08	-7.714571e-06	-1.146290e-08	-5.684844e+01	-7.483516e+02
1.000000e-07	-7.709698e-06	-1.147918e-08	-5.681254e+01	-7.481714e+02
1.100000e-07	-7.703597e-06	-1.150554e-08	-5.676757e+01	-7.480405e+02
1.200000e-07	-7.696299e-06	-1.148837e-08	-5.671380e+01	-7.479711e+02
1.300000e-07	-7.688412e-06	-1.142519e-08	-5.665568e+01	-7.479676e+02
1.400000e-07	-7.680524e-06	-1.141966e-08	-5.659755e+01	-7.480257e+02
1.500000e-07	-7.672542e-06	-1.151409e-08	-5.653873e+01	-7.481319e+02
1.600000e-07	-7.663873e-06	-1.148201e-08	-5.647485e+01	-7.482649e+02
1.700000e-07	-7.654691e-06	-1.137400e-08	-5.640719e+01	-7.483975e+02
1.800000e-07	-7.645390e-06	-1.145552e-08	-5.633865e+01	-7.484999e+02
1.900000e-07	-7.635418e-06	-1.149869e-08	-5.626517e+01	-7.485427e+02
2.000000e-07	-7.624648e-06	-1.138568e-08	-5.618580e+01	-7.485001e+02
2.100000e-07	-7.613608e-06	-1.140596e-08	-5.610445e+01	-7.483534e+02
2.200000e-07	-7.602124e-06	-1.148431e-08	-5.601982e+01	-7.480921e+02
2.300000e-07	-7.589891e-06	-1.137590e-08	-5.592968e+01	-7.477157e+02
2.400000e-07	-7.577269e-06	-1.135263e-08	-5.583667e+01	-7.472330e+02
2.500000e-07	-7.564268e-06	-1.143689e-08	-5.574087e+01	-7.466606e+02
2.600000e-07	-7.550467e-06	-1.134409e-08	-5.563917e+01	-7.460208e+02
2.700000e-07	-7.536047e-06	-1.127356e-08	-5.553291e+01	-7.453388e+02
2.800000e-07	-7.521152e-06	-1.135904e-08	-5.542315e+01	-7.446392e+02
2.900000e-07	-7.505605e-06	-1.133529e-08	-5.530858e+01	-7.439434e+02
3.000000e-07	-7.489609e-06	-1.127181e-08	-5.519071e+01	-7.432672e+02
3.100000e-07	-7.473159e-06	-1.132045e-08	-5.506949e+01	-7.426195e+02
3.200000e-07	-7.456001e-06	-1.128577e-08	-5.494305e+01	-7.420019e+02
3.300000e-07	-7.438344e-06	-1.126461e-08	-5.481294e+01	-7.414091e+02
3.400000e-07	-7.420291e-06	-1.130904e-08	-5.467991e+01	-7.408310e+02
3.500000e-07	-7.401625e-06	-1.125878e-08	-5.454235e+01	-7.402539e+02
3.600000e-07	-7.382431e-06	-1.121587e-08	-5.440092e+01	-7.396635e+02
3.700000e-07	-7.362689e-06	-1.126155e-08	-5.425544e+01	-7.390468e+02
3.800000e-07	-7.342200e-06	-1.123950e-08	-5.410446e+01	-7.383941e+02
3.900000e-07	-7.321050e-06	-1.121032e-08	-5.394860e+01	-7.376997e+02
4.000000e-07	-7.299296e-06	-1.121060e-08	-5.378829e+01	-7.369627e+02
4.100000e-07	-7.277022e-06	-1.118150e-08	-5.362416e+01	-7.361863e+02
4.200000e-07	-7.254252e-06	-1.117993e-08	-5.345636e+01	-7.353768e+02
4.300000e-07	-7.230865e-06	-1.118135e-08	-5.328403e+01	-7.345420e+02
4.400000e-07	-7.206922e-06	-1.114339e-08	-5.310759e+01	-7.336897e+02
4.500000e-07	-7.182543e-06	-1.113163e-08	-5.292795e+01	-7.328259e+02
4.600000e-07	-7.157728e-06	-1.114284e-08	-5.274508e+01	-7.319542e+02
4.700000e-07	-7.132461e-06	-1.112210e-08	-5.255889e+01	-7.310744e+02
4.800000e-07	-7.106744e-06	-1.109859e-08	-5.236939e+01	-7.301833e+02
4.900000e-07	-7.080444e-06	-1.108061e-08	-5.217558e+01	-7.292751e+02
5.000000e-07	-7.053533e-06	-1.106687e-08	-5.197727e+01	-7.283422e+02
5.100000e-07	-7.026141e-06	-1.105412e-08	-5.177542e+01	-7.273769e+02
5.200000e-07	-6.998276e-06	-1.104334e-08	-5.157008e+01	-7.263724e+02
5.300000e-07	-6.969896e-06	-1.101581e-08	-5.136095e+01	-7.253244e+02
5.400000e-07	-6.941012e-06	-1.099561e-08	-5.114811e+01	-7.242314e+02
5.500000e-07	-6.911536e-06	-1.099464e-08	-5.093090e+01	-7.230950e+02
5.600000e-07	-6.881401e-06	-1.098104e-08	-5.070884e+01	-7.219195e+02
5.700000e-07	-6.850706e-06	-1.095111e-08	-5.048265e+01	-7.207115e+02
5.800000e-07	-6.819555e-06	-1.092659e-08	-5.025310e+01	-7.194782e+02
5.900000e-07	-6.787937e-06	-1.090958e-08	-5.002011e+01	-7.182266e+02
6.000000e-07	-6.755806e-06	-1.089337e-08	-4.978333e+01	-7.169621e+02
6.100000e-07	-6.723139e-06	-1.086429e-08	-4.954261e+01	-7.156878e+02
6.200000e-07	-6.689988e-06	-1.083511e-08	-4.929832e+01	-7.144040e+02
6.300000e-07	-6.656409e-06	-1.082746e-08	-4.905088e+01	-7.131081e+02
6.400000e-07	-6.622432e-06	-1.082078e-08	-4.880050e+01	-7.117953e+02
6.500000e-07	-6.588019e-06	-1.079942e-08	-4.854691e+01	-7.104595e+02
6.600000e-07	-6.553139e-06	-1.076861e-08	-4.828989e+01	-7.090943e+02
6.700000e-07	-6.517819e-06	-1.074290e-08	-4.802961e+01	-7.076940e+02
6.800000e-07	-6.481958e-06	-1.072304e-08	-4.776536e+01	-7.062547e+02
6.900000e-07	-6.445563e-06	-1.070046e-08	-4.749716e+01	-7.047750e+02
7.000000e-07	-6.408718e-06	-1.067278e-08	-4.722565e+01	-7.032560e+02
7.100000e-07	-6.371413e-06	-1.064658e-08	-4.695075e+01	-7.017012e+02
7.200000e-07	-6.333688e-06	-1.062725e-08	-4.667276e+01	-7.001158e+02
7.300000e-07	-6.295617e-06	-1.060888e-08	-4.639221e+01	-6.985058e+02
7.400000e-07	-6.257199e-06	-1.057876e-08	-4.610911e+01	-6.968770e+02
7.500000e-07	-6.218315e-06	-1.054514e-08	-4.582258e+01	-6.952338e+02
7.600000e-07	-6.178858e-06	-1.051778e-08	-4.553182e+01	-6.935787e+02
7.700000e-07	-6.138903e-06	-1.049582e-08	-4.523739e+01	-6.919116e+02
7.800000e-07	-6.098530e-06	-1.047007e-08	-4.493989e+01	-6.902298e+02
7.900000e-07	-6.057727e-06	-1.043774e-08	-4.463921e+01	-6.885285e+02
8.000000e-07	-6.016484e-06	-1.040886e-08	-4.433529e+01	-6.868015e+02
8.100000e-07	-5.974838e-06	-1.038695e-08	-4.402840e+01	-6.850417e+02
8.200000e-07	-5.932747e-06	-1.036455e-08	-4.371823e+01	-6.832424e+02
8.300000e-07	-5.890144e-06	-1.033287e-08	-4.340430e+01	-6.813982e+02
8.400000e-07	-5.847089e-06	-1.029770e-08	-4.308702e+01	-6.795055e+02
8.500000e-07	-5.803615e-06	-1.026996e-08	-4.276667e+01	-6.775628e+02
8.600000e-07	-5.759773e-06	-1.024375e-08	-4.244359e+01	-6.755708e+02
8.700000e-07	-5.715592e-06	-1.020888e-08	-4.211803e+01	-6.735319e+02
8.800000e-07	-5.671084e-06	-1.017176e-08	-4.179005e+01	-6.714497e+02
8.900000e-07	-5.626247e-06	-1.013808e-08	-4.145964e+01	-6.693283e+02
9.000000e-07	-5.580929e-06	-1.010744e-08	-4.112570e+01	-6.671715e+02
9.100000e-07	-5.535039e-06	-1.007326e-08	-4.078754e+01	-6.649822e+02
9.200000e-07	-5.488640e-06	-1.003289e-08	-4.044563e+01	-6.627622e+02
9.300000e-07	-5.441789e-06	-9.995532e-09	-4.010038e+01	-6.605114e+02
9.400000e-07	-5.394544e-06	-9.962564e-09	-3.975224e+01	-6.582289e+02
9.500000e-07	-5.346932e-06	-9.929714e-09	-3.940138e+01	-6.559125e+02
9.600000e-07	-5.298951e-06	-9.890917e-09	-3.904781e+01	-6.535597e+02
9.700000e-07	-5.250612e-06	-9.850028e-09	-3.869160e+01	-6.511679e+02
9.800000e-07	-5.201873e-06	-9.813186e-09	-3.833245e+01	-6.487350e+02
9.900000e-07	-5.152703e-06	-9.779879e-09	-3.797012e+01	-6.462596e+02
1.000000e-06	-5.103150e-06	-9.744483e-09	-3.760496e+01	-6.437410e+02
1.010000e-06	-5.053281e-06	-9.702882e-09	-3.723748e+01	-6.411793e+02
1.020000e-06	-5.003117e-06	-9.660187e-09	-3.686782e+01	-6.385749e+02
1.030000e-06	-4.952647e-06	-9.619575e-09	-3.649591e+01	-6.359280e+02
1.040000e-06	-4.901832e-06	-9.576408e-09	-3.612145e+01	-6.332385e+02
1.050000e-06	-4.850675e-06	-9.530902e-09	-3.574448e+01	-6.305054e+02
1.060000e-06	-4.799134e-06	-9.487110e-09	-3.536467e+01	-6.277265e+02
1.070000e-06	-4.747157e-06	-9.448311e-09	-3.498166e+01	-6.248991e+02
1.080000e-06	-4.694781e-06	-9.407781e-09	-3.459570e+01	-6.220193e+02
1.090000e-06	-4.642060e-06	-9.360043e-09	-3.420721e+01	-6.190833e+02
1.100000e-06	-4.589044e-06	-9.310396e-09	-3.381653e+01	-6.160874e+02
1.110000e-06	-4.535745e-06	-9.262036e-09	-3.342377e+01	-6.130288e+02
1.120000e-06	-4.482175e-06	-9.218503e-09	-3.302901e+01	-6.099060e+02
1.130000e-06	-4.428293e-06	-9.170049e-09	-3.263196e+01	-6.067191e+02
1.140000e-06	-4.374114e-06	-9.116506e-09	-3.223272e+01	-6.034697e+02
1.150000e-06	-4.319710e-06	-9.065628e-09	-3.183182e+01	-6.001606e+02
1.160000e-06	-4.264990e-06	-9.018428e-09	-3.142859e+01	-5.967958e+02
1.170000e-06	-4.209882e-06	-8.969123e-09	-3.102249e+01	-5.933794e+02
1.180000e-06	-4.154397e-06	-8.913160e-09	-3.061363e+01	-5.899149e+02
1.190000e-06	-4.098511e-06	-8.856485e-09	-3.020180e+01	-5.864049e+02
1.200000e-06	-4.042236e-06	-8.804417e-09	-2.978712e+01	-5.828504e+02
1.210000e-06	-3.985648e-06	-8.753011e-09	-2.937012e+01	-5.792505e+02
1.220000e-06	-3.928751e-06	-8.698667e-09	-2.895085e+01	-5.756029e+02
1.230000e-06	-3.871536e-06	-8.639459e-09	-2.852924e+01	-5.719034e+02
1.240000e-06	-3.814023e-06	-8.579225e-09	-2.810542e+01	-5.681475e+02
1.250000e-06	-3.756242e-06	-8.521579e-09	-2.767963e+01	-5.643301e+02
1.260000e-06	-3.698204e-06	-8.461905e-09	-2.725196e+01	-5.604470e+02
1.270000e-06	-3.639902e-06	-8.400688e-09	-2.682233e+01	-5.564948e+02
1.280000e-06	-3.581350e-06	-8.340286e-09	-2.639086e+01	-5.524718e+02
1.290000e-06	-3.522572e-06	-8.280546e-09	-2.595773e+01	-5.483779e+02
1.300000e-06	-3.463575e-06	-8.219475e-09	-2.552298e+01	-5.442143e+02
1.310000e-06	-3.404384e-06	-8.156635e-09	-2.508681e+01	-5.399835e+02
1.320000e-06	-3.344969e-06	-8.090570e-09	-2.464898e+01	-5.356879e+02
1.330000e-06	-3.285312e-06	-8.022196e-09	-2.420937e+01	-5.313300e+02
1.340000e-06	-3.225445e-06	-7.951724e-09	-2.376820e+01	-5.269110e+02
1.350000e-06	-3.165325e-06	-7.878827e-09	-2.332518e+01	-5.224309e+02
1.360000e-06	-3.104946e-06	-7.806058e-09	-2.288026e+01	-5.178879e+02
1.370000e-06	-3.044344e-06	-7.735439e-09	-2.243368e+01	-5.132785e+02
1.380000e-06	-2.983568e-06	-7.665554e-09	-2.198582e+01	-5.085981e+02
1.390000e-06	-2.922635e-06	-7.592954e-09	-2.153681e+01	-5.038413e+02
1.400000e-06	-2.861510e-06	-7.518126e-09	-2.108638e+01	-4.990029e+02
1.410000e-06	-2.800127e-06	-7.442396e-09	-2.063405e+01	-4.940782e+02
1.420000e-06	-2.738478e-06	-7.365614e-09	-2.017977e+01	-4.890640e+02
1.430000e-06	-2.676580e-06	-7.290059e-09	-1.972364e+01	-4.839586e+02
1.440000e-06	-2.614456e-06	-7.212920e-09	-1.926585e+01	-4.787621e+02
1.450000e-06	-2.552149e-06	-7.136117e-09	-1.880671e+01	-4.734760e+02
1.460000e-06	-2.489643e-06	-7.055218e-09	-1.834611e+01	-4.681028e+02
1.470000e-06	-2.426942e-06	-6.970595e-09	-1.788407e+01	-4.626451e+02
1.480000e-06	-2.364066e-06	-6.884566e-09	-1.742073e+01	-4.571050e+02
1.490000e-06	-2.301044e-06	-6.796655e-09	-1.695633e+01	-4.514833e+02
1.500000e-06	-2.237870e-06	-6.710136e-09	-1.649080e+01	-4.457788e+02
1.510000e-06	-2.174547e-06	-6.625354e-09	-1.602417e+01	-4.399884e+02
1.520000e-06	-2.111111e-06	-6.541196e-09	-1.555671e+01	-4.341069e+02
1.530000e-06	-2.047553e-06	-6.453069e-09	-1.508836e+01	-4.281276e+02
1.540000e-06	-1.983881e-06	-6.359580e-09	-1.461916e+01	-4.220429e+02
1.550000e-06	-1.920097e-06	-6.261741e-09	-1.414914e+01	-4.158451e+02
1.560000e-06	-1.856192e-06	-6.161231e-09	-1.367823e+01	-4.095274e+02
1.570000e-06	-1.792158e-06	-6.060184e-09	-1.320636e+01	-4.030844e+02
1.580000e-06	-1.727991e-06	-5.962127e-09	-1.273351e+01	-3.965130e+02
1.590000e-06	-1.663707e-06	-5.863589e-09	-1.225981e+01	-3.898120e+02
1.600000e-06	-1.599315e-06	-5.764592e-09	-1.178531e+01	-3.829822e+02
1.610000e-06	-1.534787e-06	-5.661212e-09	-1.130980e+01	-3.760259e+02
1.620000e-06	-1.470089e-06	-5.550523e-09	-1.083304e+01	-3.689460e+02
1.630000e-06	-1.405246e-06	-5.433647e-09	-1.035522e+01	-3.617451e+02
1.640000e-06	-1.340331e-06	-5.317102e-09	-9.876857e+00	-3.544248e+02
1.650000e-06	-1.275350e-06	-5.203329e-09	-9.398017e+00	-3.469845e+02
1.660000e-06	-1.210253e-06	-5.087528e-09	-8.918320e+00	-3.394215e+02
1.670000e-06	-1.145070e-06	-4.972861e-09	-8.437985e+00	-3.317307e+02
1.680000e-06	-1.079804e-06	-4.857093e-09	-7.957044e+00	-3.239049e+02
1.690000e-06	-1.014445e-06	-4.738661e-09	-7.475418e+00	-3.159351e+02
1.700000e-06	-9.490508e-07	-4.615154e-09	-6.993527e+00	-3.078119e+02
1.710000e-06	-8.836073e-07	-4.486055e-09	-6.511276e+00	-2.995261e+02
1.720000e-06	-8.180651e-07	-4.353669e-09	-6.028297e+00	-2.910693e+02
1.730000e-06	-7.524527e-07	-4.219727e-09	-5.544802e+00	-2.824352e+02
1.740000e-06	-6.867862e-07	-4.085166e-09	-5.060907e+00	-2.736193e+02
1.750000e-06	-6.210588e-07	-3.946707e-09	-4.576564e+00	-2.646196e+02
1.760000e-06	-5.552732e-07	-3.805514e-09	-4.091791e+00	-2.554356e+02
1.770000e-06	-4.894331e-07	-3.663838e-09	-3.606618e+00	-2.460683e+02
1.780000e-06	-4.235817e-07	-3.518815e-09	-3.121361e+00	-2.365190e+02
1.790000e-06	-3.577467e-07	-3.368804e-09	-2.636224e+00	-2.267888e+02
1.800000e-06	-2.919136e-07	-3.214512e-09	-2.151103e+00	-2.168776e+02
1.810000e-06	-2.260805e-07	-3.058133e-09	-1.665980e+00	-2.067836e+02
1.820000e-06	-1.602408e-07	-2.900314e-09	-1.180810e+00	-1.965031e+02
1.830000e-06	-9.437636e-08	-2.739003e-09	-6.954566e-01	-1.860307e+02
1.840000e-06	-2.849058e-08	-2.572781e-09	-2.099462e-01	-1.753592e+02
1.850000e-06	3.740130e-08	-2.403796e-09	2.756090e-01	-1.644807e+02
1.860000e-06	1.033171e-07	-2.235715e-09	7.613404e-01	-1.533869e+02
1.870000e-06	1.692469e-07	-2.065230e-09	1.247176e+00	-1.420700e+02
1.880000e-06	2.351654e-07	-1.892434e-09	1.732927e+00	-1.305234e+02
1.890000e-06	3.010685e-07	-1.716321e-09	2.218565e+00	-1.187421e+02
1.900000e-06	3.669439e-07	-1.536289e-09	2.703999e+00	-1.067228e+02
1.910000e-06	4.328010e-07	-1.350950e-09	3.189297e+00	-9.446393e+01
1.920000e-06	4.986464e-07	-1.160159e-09	3.674510e+00	-8.196573e+01
1.930000e-06	5.644450e-07	-9.684533e-10	4.159378e+00	-6.922957e+01
1.940000e-06	6.301549e-07	-7.751154e-10	4.643593e+00	-5.625792e+01
1.950000e-06	6.958113e-07	-5.800029e-10	5.127413e+00	-4.305403e+01
1.960000e-06	7.614222e-07	-3.806948e-10	5.610898e+00	-2.962203e+01
1.970000e-06	8.269667e-07	-1.768525e-10	6.093893e+00	-1.596707e+01
1.980000e-06	8.924702e-07	3.244029e-11	6.576587e+00	-2.095816e+00
1.990000e-06	9.579386e-07	2.493363e-10	7.059021e+00	1.198290e+01
2.000000e-06	1.023372e-06	4.714156e-10	7.541196e+00	2.625737e+01
2.010000e-06	1.088717e-06	6.951412e-10	8.022723e+00	4.071232e+01
2.020000e-06	1.153920e-06	9.174680e-10	8.503205e+00	5.532834e+01
2.030000e-06	1.219030e-06	1.136933e-09	8.982994e+00	7.008161e+01
2.040000e-06	1.284075e-06	1.357312e-09	9.462313e+00	8.494398e+01
2.050000e-06	1.348973e-06	1.581194e-09	9.940544e+00	9.988338e+01
2.060000e-06	1.413682e-06	1.804855e-09	1.041738e+01	1.148647e+02
2.070000e-06	1.478249e-06	2.030608e-09	1.089317e+01	1.298508e+02
2.080000e-06	1.542729e-06	2.261237e-09	1.136832e+01	1.448037e+02
2.090000e-06	1.607130e-06	2.492535e-09	1.184289e+01	1.596864e+02
2.100000e-06	1.671405e-06	2.717362e-09	1.231653e+01	1.744632e+02
2.110000e-06	1.735547e-06	2.935798e-09	1.278920e+01	1.891016e+02
2.120000e-06	1.799593e-06	3.152200e-09	1.326115e+01	2.035721e+02
2.130000e-06	1.863547e-06	3.367590e-09	1.373242e+01	2.178493e+02
2.140000e-06	1.927383e-06	3.579500e-09	1.420283e+01	2.319111e+02
2.150000e-06	1.991127e-06	3.787761e-09	1.467256e+01	2.457391e+02
2.160000e-06	2.054749e-06	3.992766e-09	1.514139e+01	2.593171e+02
2.170000e-06	2.118194e-06	4.193792e-09	1.560891e+01	2.726317e+02
2.180000e-06	2.181482e-06	4.390075e-09	1.607528e+01	2.856706e+02
2.190000e-06	2.244624e-06	4.579090e-09	1.654057e+01	2.984229e+02
2.200000e-06	2.307599e-06	4.761894e-09	1.700462e+01	3.108788e+02
2.210000e-06	2.370399e-06	4.941420e-09	1.746740e+01	3.230293e+02
2.220000e-06	2.433044e-06	5.119286e-09	1.792903e+01	3.348667e+02
2.230000e-06	2.495547e-06	5.292990e-09	1.838961e+01	3.463847e+02
2.240000e-06	2.557887e-06	5.461616e-09	1.884900e+01	3.575792e+02
2.250000e-06	2.620014e-06	5.627380e-09	1.930681e+01	3.684481e+02
2.260000e-06	2.681912e-06	5.790359e-09	1.976293e+01	3.789918e+02
2.270000e-06	2.743586e-06	5.947321e-09	2.021740e+01	3.892132e+02
2.280000e-06	2.805010e-06	6.098255e-09	2.067003e+01	3.991174e+02
2.290000e-06	2.866187e-06	6.244119e-09	2.112084e+01	4.087112e+02
2.300000e-06	2.927173e-06	6.386447e-09	2.157025e+01	4.180028e+02
2.310000e-06	2.987940e-06	6.522995e-09	2.201804e+01	4.270008e+02
2.320000e-06	3.048469e-06	6.650483e-09	2.246408e+01	4.357141e+02
2.330000e-06	3.108810e-06	6.774042e-09	2.290873e+01	4.441510e+02
2.340000e-06	3.168928e-06	6.896866e-09	2.335174e+01	4.523195e+02
2.350000e-06	3.228779e-06	7.016744e-09	2.379277e+01	4.602267e+02
2.360000e-06	3.288392e-06	7.128382e-09	2.423207e+01	4.678792e+02
2.370000e-06	3.347822e-06	7.234648e-09	2.467000e+01	4.752835e+02
2.380000e-06	3.407085e-06	7.338194e-09	2.510671e+01	4.824465e+02
2.390000e-06	3.466139e-06	7.440260e-09	2.554187e+01	4.893758e+02
2.400000e-06	3.524918e-06	7.539909e-09	2.597502e+01	4.960800e+02
2.410000e-06	3.583415e-06	7.634269e-09	2.640608e+01	5.025689e+02
2.420000e-06	3.641679e-06	7.729921e-09	2.683542e+01	5.088535e+02
2.430000e-06	3.699723e-06	7.827376e-09	2.726315e+01	5.149455e+02
2.440000e-06	3.757486e-06	7.922725e-09	2.768880e+01	5.208571e+02
2.450000e-06	3.814923e-06	8.010776e-09	2.811205e+01	5.266001e+02
2.460000e-06	3.872049e-06	8.091528e-09	2.853301e+01	5.321855e+02
2.470000e-06	3.928885e-06	8.170372e-09	2.895183e+01	5.376231e+02
2.480000e-06	3.985430e-06	8.248602e-09	2.936852e+01	5.429205e+02
2.490000e-06	4.041722e-06	8.325306e-09	2.978333e+01	5.480838e+02
2.500000e-06	4.097725e-06	8.401469e-09	3.019601e+01	5.531170e+02
2.510000e-06	4.153335e-06	8.478258e-09	3.060580e+01	5.580230e+02
2.520000e-06	4.208560e-06	8.555346e-09	3.101275e+01	5.628036e+02
2.530000e-06	4.263468e-06	8.627950e-09	3.141737e+01	5.674603e+02
2.540000e-06	4.318125e-06	8.694718e-09	3.182013e+01	5.719950e+02
2.550000e-06	4.372506e-06	8.757533e-09	3.222087e+01	5.764105e+02
2.560000e-06	4.426555e-06	8.819673e-09	3.261915e+01	5.807106e+02
2.570000e-06	4.480245e-06	8.880882e-09	3.301480e+01	5.849004e+02
2.580000e-06	4.533593e-06	8.937888e-09	3.340791e+01	5.889856e+02
2.590000e-06	4.586662e-06	8.996029e-09	3.379897e+01	5.929730e+02
2.600000e-06	4.639437e-06	9.056525e-09	3.418787e+01	5.968691e+02
2.610000e-06	4.691823e-06	9.115673e-09	3.457390e+01	6.006798e+02
2.620000e-06	4.743778e-06	9.169095e-09	3.495676e+01	6.044101e+02
2.630000e-06	4.795378e-06	9.219286e-09	3.533700e+01	6.080637e+02
2.640000e-06	4.846664e-06	9.270709e-09	3.571492e+01	6.116426e+02
2.650000e-06	4.897636e-06	9.323467e-09	3.609053e+01	6.151475e+02
2.660000e-06	4.948295e-06	9.374247e-09	3.646384e+01	6.185779e+02
2.670000e-06	4.998596e-06	9.421926e-09	3.683450e+01	6.219331e+02
2.680000e-06	5.048593e-06	9.468283e-09	3.720293e+01	6.252122e+02
2.690000e-06	5.098358e-06	9.512192e-09	3.756965e+01	6.284148e+02
2.700000e-06	5.147758e-06	9.554015e-09	3.793367e+01	6.315418e+02
2.710000e-06	5.196641e-06	9.596108e-09	3.829389e+01	6.345950e+02
2.720000e-06	5.245084e-06	9.640492e-09	3.865087e+01	6.375778e+02
2.730000e-06	5.293184e-06	9.685109e-09	3.900531e+01	6.404941e+02
2.740000e-06	5.340921e-06	9.727895e-09	3.935709e+01	6.433485e+02
2.750000e-06	5.388301e-06	9.767195e-09	3.970623e+01	6.461455e+02
2.760000e-06	5.435288e-06	9.803550e-09	4.005248e+01	6.488887e+02
2.770000e-06	5.481860e-06	9.840219e-09	4.039567e+01	6.515807e+02
2.780000e-06	5.528005e-06	9.877023e-09	4.073570e+01	6.542223e+02
2.790000e-06	5.573626e-06	9.914333e-09	4.107189e+01	6.568130e+02
2.800000e-06	5.618789e-06	9.951919e-09	4.140469e+01	6.593508e+02
2.810000e-06	5.663605e-06	9.988144e-09	4.173494e+01	6.618327e+02
2.820000e-06	5.708055e-06	1.002228e-08	4.206248e+01	6.642558e+02
2.830000e-06	5.752115e-06	1.005455e-08	4.238716e+01	6.666173e+02
2.840000e-06	5.795812e-06	1.008628e-08	4.270916e+01	6.689155e+02
2.850000e-06	5.839169e-06	1.011710e-08	4.302866e+01	6.711506e+02
2.860000e-06	5.882092e-06	1.014690e-08	4.334496e+01	6.733245e+02
2.870000e-06	5.924447e-06	1.017616e-08	4.365707e+01	6.754411e+02
2.880000e-06	5.966339e-06	1.020739e-08	4.396578e+01	6.775056e+02
2.890000e-06	6.007877e-06	1.024130e-08	4.427186e+01	6.795245e+02
2.900000e-06	6.048968e-06	1.027535e-08	4.457467e+01	6.815044e+02
