# Temperatura_=_20.0
# Concentracion g/m^3_=_10000.0
# C_Vs_to_Am_M_A/Vsm_=_65563218390.804596
# pendiente_HvsI_1/m_=_3716.3
# ordenada_HvsI_A/m_=_1297.0
# frecuencia_Hz_=_135403.093350017

Tiempo_(s)	Campo_(V.s)	Magnetizacion_(V.s)	Campo_(kA/m)	Magnetizacion_(A/m)
0.000000e+00	-7.839537e-06	-1.151841e-08	-5.697591e+01	-7.532312e+02
1.000000e-08	-7.839549e-06	-1.151318e-08	-5.697600e+01	-7.532354e+02
2.000000e-08	-7.839022e-06	-1.150927e-08	-5.697217e+01	-7.532108e+02
3.000000e-08	-7.837897e-06	-1.150865e-08	-5.696399e+01	-7.531563e+02
4.000000e-08	-7.836255e-06	-1.151074e-08	-5.695206e+01	-7.530719e+02
5.000000e-08	-7.834187e-06	-1.151337e-08	-5.693703e+01	-7.529593e+02
6.000000e-08	-7.831653e-06	-1.151528e-08	-5.691861e+01	-7.528216e+02
7.000000e-08	-7.828646e-06	-1.151321e-08	-5.689676e+01	-7.526636e+02
8.000000e-08	-7.825160e-06	-1.150238e-08	-5.687142e+01	-7.524912e+02
9.000000e-08	-7.821045e-06	-1.148702e-08	-5.684152e+01	-7.523111e+02
1.000000e-07	-7.816026e-06	-1.149250e-08	-5.680504e+01	-7.521299e+02
1.100000e-07	-7.809793e-06	-1.151645e-08	-5.675974e+01	-7.519536e+02
1.200000e-07	-7.802360e-06	-1.151336e-08	-5.670572e+01	-7.517871e+02
1.300000e-07	-7.794336e-06	-1.146490e-08	-5.664740e+01	-7.516333e+02
1.400000e-07	-7.786340e-06	-1.142539e-08	-5.658929e+01	-7.514928e+02
1.500000e-07	-7.778227e-06	-1.150085e-08	-5.653032e+01	-7.513641e+02
1.600000e-07	-7.769467e-06	-1.151578e-08	-5.646666e+01	-7.512432e+02
1.700000e-07	-7.760216e-06	-1.141151e-08	-5.639942e+01	-7.511245e+02
1.800000e-07	-7.750770e-06	-1.145291e-08	-5.633077e+01	-7.510009e+02
1.900000e-07	-7.740662e-06	-1.150770e-08	-5.625731e+01	-7.508646e+02
2.000000e-07	-7.729757e-06	-1.142243e-08	-5.617806e+01	-7.507082e+02
2.100000e-07	-7.718527e-06	-1.142318e-08	-5.609644e+01	-7.505247e+02
2.200000e-07	-7.706878e-06	-1.148797e-08	-5.601178e+01	-7.503087e+02
2.300000e-07	-7.694525e-06	-1.142693e-08	-5.592200e+01	-7.500562e+02
2.400000e-07	-7.681709e-06	-1.139855e-08	-5.582886e+01	-7.497651e+02
2.500000e-07	-7.668427e-06	-1.149446e-08	-5.573233e+01	-7.494352e+02
2.600000e-07	-7.654406e-06	-1.145531e-08	-5.563043e+01	-7.490673e+02
2.700000e-07	-7.639776e-06	-1.137565e-08	-5.552410e+01	-7.486637e+02
2.800000e-07	-7.624566e-06	-1.142195e-08	-5.541355e+01	-7.482268e+02
2.900000e-07	-7.608775e-06	-1.141984e-08	-5.529879e+01	-7.477591e+02
3.000000e-07	-7.592601e-06	-1.137271e-08	-5.518124e+01	-7.472628e+02
3.100000e-07	-7.575880e-06	-1.139110e-08	-5.505972e+01	-7.467395e+02
3.200000e-07	-7.558479e-06	-1.137261e-08	-5.493325e+01	-7.461898e+02
3.300000e-07	-7.540598e-06	-1.135135e-08	-5.480329e+01	-7.456136e+02
3.400000e-07	-7.522244e-06	-1.139143e-08	-5.466990e+01	-7.450103e+02
3.500000e-07	-7.503286e-06	-1.136444e-08	-5.453212e+01	-7.443791e+02
3.600000e-07	-7.483758e-06	-1.131831e-08	-5.439019e+01	-7.437190e+02
3.700000e-07	-7.463613e-06	-1.133186e-08	-5.424379e+01	-7.430295e+02
3.800000e-07	-7.442734e-06	-1.132849e-08	-5.409204e+01	-7.423107e+02
3.900000e-07	-7.421239e-06	-1.129368e-08	-5.393582e+01	-7.415630e+02
4.000000e-07	-7.399210e-06	-1.129138e-08	-5.377572e+01	-7.407878e+02
4.100000e-07	-7.376617e-06	-1.127684e-08	-5.361152e+01	-7.399867e+02
4.200000e-07	-7.353444e-06	-1.126104e-08	-5.344310e+01	-7.391617e+02
4.300000e-07	-7.329679e-06	-1.126383e-08	-5.327038e+01	-7.383147e+02
4.400000e-07	-7.305390e-06	-1.124920e-08	-5.309386e+01	-7.374471e+02
4.500000e-07	-7.280649e-06	-1.121205e-08	-5.291405e+01	-7.365600e+02
4.600000e-07	-7.255491e-06	-1.120275e-08	-5.273120e+01	-7.356537e+02
4.700000e-07	-7.229910e-06	-1.120260e-08	-5.254529e+01	-7.347276e+02
4.800000e-07	-7.203778e-06	-1.118119e-08	-5.235537e+01	-7.337808e+02
4.900000e-07	-7.177017e-06	-1.116030e-08	-5.216087e+01	-7.328118e+02
5.000000e-07	-7.149702e-06	-1.114678e-08	-5.196236e+01	-7.318188e+02
5.100000e-07	-7.121891e-06	-1.113574e-08	-5.176023e+01	-7.308003e+02
5.200000e-07	-7.093617e-06	-1.112682e-08	-5.155474e+01	-7.297551e+02
5.300000e-07	-7.064835e-06	-1.110217e-08	-5.134556e+01	-7.286825e+02
5.400000e-07	-7.035452e-06	-1.107004e-08	-5.113201e+01	-7.275824e+02
5.500000e-07	-7.005447e-06	-1.106269e-08	-5.091394e+01	-7.264553e+02
5.600000e-07	-6.974822e-06	-1.105423e-08	-5.069136e+01	-7.253021e+02
5.700000e-07	-6.943605e-06	-1.102876e-08	-5.046449e+01	-7.241239e+02
5.800000e-07	-6.911848e-06	-1.100053e-08	-5.023368e+01	-7.229220e+02
5.900000e-07	-6.879612e-06	-1.098280e-08	-4.999940e+01	-7.216969e+02
6.000000e-07	-6.846927e-06	-1.096760e-08	-4.976185e+01	-7.204490e+02
6.100000e-07	-6.813802e-06	-1.094566e-08	-4.952111e+01	-7.191778e+02
6.200000e-07	-6.780235e-06	-1.091647e-08	-4.927716e+01	-7.178825e+02
6.300000e-07	-6.746237e-06	-1.089688e-08	-4.903006e+01	-7.165616e+02
6.400000e-07	-6.711834e-06	-1.088705e-08	-4.878003e+01	-7.152131e+02
6.500000e-07	-6.676998e-06	-1.086983e-08	-4.852685e+01	-7.138355e+02
6.600000e-07	-6.641630e-06	-1.083769e-08	-4.826980e+01	-7.124271e+02
6.700000e-07	-6.605745e-06	-1.080719e-08	-4.800900e+01	-7.109872e+02
6.800000e-07	-6.569383e-06	-1.078614e-08	-4.774473e+01	-7.095155e+02
6.900000e-07	-6.532504e-06	-1.076676e-08	-4.747671e+01	-7.080129e+02
7.000000e-07	-6.495153e-06	-1.074267e-08	-4.720525e+01	-7.064807e+02
7.100000e-07	-6.457374e-06	-1.071462e-08	-4.693067e+01	-7.049213e+02
7.200000e-07	-6.419162e-06	-1.069140e-08	-4.665296e+01	-7.033371e+02
7.300000e-07	-6.380520e-06	-1.067167e-08	-4.637212e+01	-7.017305e+02
7.400000e-07	-6.341444e-06	-1.064543e-08	-4.608812e+01	-7.001036e+02
7.500000e-07	-6.301917e-06	-1.060915e-08	-4.580085e+01	-6.984577e+02
7.600000e-07	-6.261920e-06	-1.057624e-08	-4.551016e+01	-6.967932e+02
7.700000e-07	-6.221429e-06	-1.055218e-08	-4.521588e+01	-6.951092e+02
7.800000e-07	-6.180493e-06	-1.053123e-08	-4.491837e+01	-6.934037e+02
7.900000e-07	-6.139128e-06	-1.050473e-08	-4.461774e+01	-6.916737e+02
8.000000e-07	-6.097285e-06	-1.047639e-08	-4.431363e+01	-6.899155e+02
8.100000e-07	-6.054941e-06	-1.045100e-08	-4.400589e+01	-6.881250e+02
8.200000e-07	-6.012109e-06	-1.042696e-08	-4.369459e+01	-6.862980e+02
8.300000e-07	-5.968834e-06	-1.039594e-08	-4.338008e+01	-6.844310e+02
8.400000e-07	-5.925159e-06	-1.035849e-08	-4.306266e+01	-6.825210e+02
8.500000e-07	-5.881107e-06	-1.032462e-08	-4.274250e+01	-6.805660e+02
8.600000e-07	-5.836699e-06	-1.029571e-08	-4.241976e+01	-6.785654e+02
8.700000e-07	-5.791921e-06	-1.026570e-08	-4.209432e+01	-6.765192e+02
8.800000e-07	-5.746737e-06	-1.023217e-08	-4.176593e+01	-6.744289e+02
8.900000e-07	-5.701085e-06	-1.019833e-08	-4.143414e+01	-6.722964e+02
9.000000e-07	-5.654955e-06	-1.016603e-08	-4.109888e+01	-6.701241e+02
9.100000e-07	-5.608351e-06	-1.013225e-08	-4.076018e+01	-6.679147e+02
9.200000e-07	-5.561291e-06	-1.009297e-08	-4.041815e+01	-6.656705e+02
9.300000e-07	-5.513824e-06	-1.005353e-08	-4.007318e+01	-6.633934e+02
9.400000e-07	-5.465910e-06	-1.001865e-08	-3.972495e+01	-6.610847e+02
9.500000e-07	-5.417564e-06	-9.986117e-09	-3.937358e+01	-6.587448e+02
9.600000e-07	-5.368859e-06	-9.950218e-09	-3.901961e+01	-6.563734e+02
9.700000e-07	-5.319774e-06	-9.911466e-09	-3.866287e+01	-6.539693e+02
9.800000e-07	-5.270273e-06	-9.874143e-09	-3.830311e+01	-6.515308e+02
9.900000e-07	-5.220392e-06	-9.839689e-09	-3.794058e+01	-6.490556e+02
1.000000e-06	-5.170199e-06	-9.803285e-09	-3.757579e+01	-6.465408e+02
1.010000e-06	-5.119725e-06	-9.761100e-09	-3.720896e+01	-6.439837e+02
1.020000e-06	-5.068929e-06	-9.716964e-09	-3.683978e+01	-6.413813e+02
1.030000e-06	-5.017751e-06	-9.675342e-09	-3.646783e+01	-6.387308e+02
1.040000e-06	-4.966196e-06	-9.633913e-09	-3.609315e+01	-6.360295e+02
1.050000e-06	-4.914267e-06	-9.589392e-09	-3.571573e+01	-6.332752e+02
1.060000e-06	-4.861937e-06	-9.544728e-09	-3.533541e+01	-6.304659e+02
1.070000e-06	-4.809213e-06	-9.502379e-09	-3.495223e+01	-6.276001e+02
1.080000e-06	-4.756127e-06	-9.461096e-09	-3.456641e+01	-6.246768e+02
1.090000e-06	-4.702712e-06	-9.416558e-09	-3.417820e+01	-6.216953e+02
1.100000e-06	-4.648973e-06	-9.368620e-09	-3.378764e+01	-6.186554e+02
1.110000e-06	-4.594890e-06	-9.321885e-09	-3.339458e+01	-6.155574e+02
1.120000e-06	-4.540464e-06	-9.276614e-09	-3.299902e+01	-6.124019e+02
1.130000e-06	-4.485736e-06	-9.229378e-09	-3.260128e+01	-6.091896e+02
1.140000e-06	-4.430726e-06	-9.178699e-09	-3.220147e+01	-6.059216e+02
1.150000e-06	-4.375427e-06	-9.126163e-09	-3.179957e+01	-6.025987e+02
1.160000e-06	-4.319781e-06	-9.075153e-09	-3.139516e+01	-5.992218e+02
1.170000e-06	-4.263735e-06	-9.023444e-09	-3.098782e+01	-5.957916e+02
1.180000e-06	-4.207275e-06	-8.968262e-09	-3.057748e+01	-5.923082e+02
1.190000e-06	-4.150463e-06	-8.912281e-09	-3.016459e+01	-5.887717e+02
1.200000e-06	-4.093325e-06	-8.858901e-09	-2.974932e+01	-5.851813e+02
1.210000e-06	-4.035861e-06	-8.807919e-09	-2.933169e+01	-5.815362e+02
1.220000e-06	-3.978089e-06	-8.756008e-09	-2.891182e+01	-5.778350e+02
1.230000e-06	-3.920027e-06	-8.699750e-09	-2.848984e+01	-5.740762e+02
1.240000e-06	-3.861711e-06	-8.639034e-09	-2.806601e+01	-5.702581e+02
1.250000e-06	-3.803150e-06	-8.576195e-09	-2.764040e+01	-5.663791e+02
1.260000e-06	-3.744383e-06	-8.510935e-09	-2.721330e+01	-5.624376e+02
1.270000e-06	-3.685377e-06	-8.447128e-09	-2.678445e+01	-5.584323e+02
1.280000e-06	-3.626111e-06	-8.387905e-09	-2.635372e+01	-5.543621e+02
1.290000e-06	-3.566623e-06	-8.329986e-09	-2.592138e+01	-5.502262e+02
1.300000e-06	-3.506904e-06	-8.270467e-09	-2.548735e+01	-5.460241e+02
1.310000e-06	-3.446943e-06	-8.207317e-09	-2.505157e+01	-5.417554e+02
1.320000e-06	-3.386707e-06	-8.139939e-09	-2.461379e+01	-5.374198e+02
1.330000e-06	-3.326187e-06	-8.069407e-09	-2.417394e+01	-5.330170e+02
1.340000e-06	-3.265407e-06	-7.996711e-09	-2.373221e+01	-5.285465e+02
1.350000e-06	-3.204346e-06	-7.923112e-09	-2.328843e+01	-5.240076e+02
1.360000e-06	-3.143002e-06	-7.850153e-09	-2.284260e+01	-5.193995e+02
1.370000e-06	-3.081478e-06	-7.778971e-09	-2.239546e+01	-5.147209e+02
1.380000e-06	-3.019809e-06	-7.707344e-09	-2.194726e+01	-5.099704e+02
1.390000e-06	-2.957913e-06	-7.634605e-09	-2.149742e+01	-5.051464e+02
1.400000e-06	-2.895761e-06	-7.559019e-09	-2.104571e+01	-5.002471e+02
1.410000e-06	-2.833420e-06	-7.482827e-09	-2.059263e+01	-4.952704e+02
1.420000e-06	-2.770901e-06	-7.407285e-09	-2.013826e+01	-4.902145e+02
1.430000e-06	-2.708187e-06	-7.330332e-09	-1.968247e+01	-4.850771e+02
1.440000e-06	-2.645278e-06	-7.251768e-09	-1.922526e+01	-4.798562e+02
1.450000e-06	-2.582192e-06	-7.170288e-09	-1.876677e+01	-4.745498e+02
1.460000e-06	-2.518914e-06	-7.088288e-09	-1.830687e+01	-4.691556e+02
1.470000e-06	-2.455404e-06	-7.005537e-09	-1.784530e+01	-4.636714e+02
1.480000e-06	-2.391692e-06	-6.920999e-09	-1.738225e+01	-4.580950e+02
1.490000e-06	-2.327802e-06	-6.834973e-09	-1.691792e+01	-4.524238e+02
1.500000e-06	-2.263770e-06	-6.749100e-09	-1.645255e+01	-4.466554e+02
1.510000e-06	-2.199595e-06	-6.663243e-09	-1.598614e+01	-4.407872e+02
1.520000e-06	-2.135296e-06	-6.573878e-09	-1.551883e+01	-4.348166e+02
1.530000e-06	-2.070876e-06	-6.479380e-09	-1.505064e+01	-4.287408e+02
1.540000e-06	-2.006330e-06	-6.380998e-09	-1.458153e+01	-4.225573e+02
1.550000e-06	-1.941670e-06	-6.282731e-09	-1.411160e+01	-4.162632e+02
1.560000e-06	-1.876895e-06	-6.183273e-09	-1.364083e+01	-4.098558e+02
1.570000e-06	-1.811992e-06	-6.082486e-09	-1.316913e+01	-4.033324e+02
1.580000e-06	-1.746916e-06	-5.983131e-09	-1.269617e+01	-3.966899e+02
1.590000e-06	-1.681640e-06	-5.886844e-09	-1.222177e+01	-3.899253e+02
1.600000e-06	-1.616220e-06	-5.787568e-09	-1.174630e+01	-3.830354e+02
1.610000e-06	-1.550688e-06	-5.679747e-09	-1.127004e+01	-3.760165e+02
1.620000e-06	-1.485016e-06	-5.561988e-09	-1.079275e+01	-3.688649e+02
1.630000e-06	-1.419253e-06	-5.441162e-09	-1.031480e+01	-3.615766e+02
1.640000e-06	-1.353409e-06	-5.323860e-09	-9.836256e+00	-3.541476e+02
1.650000e-06	-1.287489e-06	-5.209985e-09	-9.357164e+00	-3.465737e+02
1.660000e-06	-1.221516e-06	-5.096549e-09	-8.877692e+00	-3.388512e+02
1.670000e-06	-1.155477e-06	-4.980049e-09	-8.397733e+00	-3.309764e+02
1.680000e-06	-1.089404e-06	-4.860496e-09	-7.917529e+00	-3.229461e+02
1.690000e-06	-1.023285e-06	-4.735718e-09	-7.436991e+00	-3.147576e+02
1.700000e-06	-9.570771e-07	-4.605154e-09	-6.955811e+00	-3.064088e+02
1.710000e-06	-8.907774e-07	-4.468791e-09	-6.473961e+00	-2.978979e+02
1.720000e-06	-8.243858e-07	-4.332737e-09	-5.991442e+00	-2.892235e+02
1.730000e-06	-7.579408e-07	-4.198078e-09	-5.508535e+00	-2.803842e+02
1.740000e-06	-6.914371e-07	-4.062909e-09	-5.025202e+00	-2.713785e+02
1.750000e-06	-6.248206e-07	-3.923121e-09	-4.541049e+00	-2.622046e+02
1.760000e-06	-5.581681e-07	-3.778934e-09	-4.056634e+00	-2.528600e+02
1.770000e-06	-4.915056e-07	-3.631923e-09	-3.572147e+00	-2.433415e+02
1.780000e-06	-4.248065e-07	-3.482842e-09	-3.087394e+00	-2.336449e+02
1.790000e-06	-3.580975e-07	-3.331234e-09	-2.602568e+00	-2.237652e+02
1.800000e-06	-2.914017e-07	-3.176412e-09	-2.117839e+00	-2.136968e+02
1.810000e-06	-2.247088e-07	-3.018819e-09	-1.633131e+00	-2.034333e+02
1.820000e-06	-1.579804e-07	-2.858688e-09	-1.148165e+00	-1.929681e+02
1.830000e-06	-9.124215e-08	-2.693964e-09	-6.631265e-01	-1.822946e+02
1.840000e-06	-2.448279e-08	-2.523824e-09	-1.779352e-01	-1.714065e+02
1.850000e-06	4.229930e-08	-2.352582e-09	3.074214e-01	-1.602981e+02
1.860000e-06	1.090980e-07	-2.181957e-09	7.928983e-01	-1.489641e+02
1.870000e-06	1.758972e-07	-2.008913e-09	1.278379e+00	-1.374002e+02
1.880000e-06	2.426898e-07	-1.832045e-09	1.763812e+00	-1.256031e+02
1.890000e-06	3.094911e-07	-1.652269e-09	2.249309e+00	-1.135699e+02
1.900000e-06	3.762713e-07	-1.467947e-09	2.734651e+00	-1.012986e+02
1.910000e-06	4.430143e-07	-1.278527e-09	3.219724e+00	-8.878789e+01
1.920000e-06	5.096582e-07	-1.084537e-09	3.704076e+00	-7.603698e+01
1.930000e-06	5.761993e-07	-8.882138e-10	4.187681e+00	-6.304583e+01
1.940000e-06	6.426984e-07	-6.901647e-10	4.670981e+00	-4.981530e+01
1.950000e-06	7.091531e-07	-4.897404e-10	5.153958e+00	-3.634742e+01
1.960000e-06	7.755660e-07	-2.830964e-10	5.636631e+00	-2.264583e+01
1.970000e-06	8.419362e-07	-7.252956e-11	6.118994e+00	-8.716252e+00
1.980000e-06	9.082426e-07	1.407056e-10	6.600894e+00	5.432966e+00
1.990000e-06	9.744856e-07	3.582019e-10	7.082333e+00	1.979039e+01
2.000000e-06	1.040685e-06	5.809731e-10	7.563452e+00	3.434106e+01
2.010000e-06	1.106826e-06	8.065514e-10	8.044153e+00	4.906627e+01
2.020000e-06	1.172889e-06	1.031530e-09	8.524282e+00	6.394345e+01
2.030000e-06	1.238880e-06	1.257031e-09	9.003886e+00	7.894633e+01
2.040000e-06	1.304778e-06	1.484933e-09	9.482822e+00	9.404524e+01
2.050000e-06	1.370582e-06	1.714205e-09	9.961067e+00	1.092077e+02
2.060000e-06	1.436283e-06	1.942785e-09	1.043857e+01	1.243992e+02
2.070000e-06	1.501880e-06	2.172578e-09	1.091531e+01	1.395837e+02
2.080000e-06	1.567348e-06	2.405616e-09	1.139112e+01	1.547249e+02
2.090000e-06	1.632672e-06	2.640100e-09	1.186588e+01	1.697867e+02
2.100000e-06	1.697869e-06	2.867537e-09	1.233971e+01	1.847343e+02
2.110000e-06	1.762956e-06	3.086940e-09	1.281275e+01	1.995345e+02
2.120000e-06	1.827928e-06	3.304440e-09	1.328495e+01	2.141565e+02
2.130000e-06	1.892764e-06	3.520928e-09	1.375617e+01	2.285721e+02
2.140000e-06	1.957486e-06	3.734025e-09	1.422655e+01	2.427561e+02
2.150000e-06	2.022093e-06	3.943853e-09	1.469609e+01	2.566864e+02
2.160000e-06	2.086580e-06	4.152157e-09	1.516477e+01	2.703438e+02
2.170000e-06	2.150924e-06	4.358434e-09	1.563241e+01	2.837122e+02
2.180000e-06	2.215073e-06	4.557538e-09	1.609863e+01	2.967785e+02
2.190000e-06	2.279040e-06	4.746132e-09	1.656353e+01	3.095325e+02
2.200000e-06	2.342827e-06	4.927323e-09	1.702712e+01	3.219666e+02
2.210000e-06	2.406436e-06	5.106255e-09	1.748941e+01	3.340758e+02
2.220000e-06	2.469879e-06	5.282641e-09	1.795050e+01	3.458573e+02
2.230000e-06	2.533144e-06	5.453558e-09	1.841029e+01	3.573107e+02
2.240000e-06	2.596214e-06	5.621283e-09	1.886867e+01	3.684372e+02
2.250000e-06	2.659106e-06	5.788857e-09	1.932576e+01	3.792396e+02
2.260000e-06	2.721875e-06	5.954898e-09	1.978195e+01	3.897219e+02
2.270000e-06	2.784483e-06	6.113219e-09	2.023697e+01	3.998889e+02
2.280000e-06	2.846894e-06	6.260750e-09	2.069056e+01	4.097458e+02
2.290000e-06	2.909070e-06	6.402854e-09	2.114244e+01	4.192983e+02
2.300000e-06	2.971004e-06	6.543224e-09	2.159256e+01	4.285517e+02
2.310000e-06	3.032714e-06	6.679852e-09	2.204105e+01	4.375115e+02
2.320000e-06	3.094176e-06	6.809153e-09	2.248774e+01	4.461832e+02
2.330000e-06	3.155377e-06	6.930530e-09	2.293254e+01	4.545720e+02
2.340000e-06	3.216298e-06	7.050277e-09	2.337529e+01	4.626838e+02
2.350000e-06	3.276974e-06	7.169566e-09	2.381628e+01	4.705245e+02
2.360000e-06	3.337416e-06	7.282684e-09	2.425556e+01	4.781011e+02
2.370000e-06	3.397589e-06	7.388448e-09	2.469288e+01	4.854215e+02
2.380000e-06	3.457530e-06	7.491489e-09	2.512851e+01	4.924948e+02
2.390000e-06	3.517272e-06	7.595144e-09	2.556271e+01	4.993310e+02
2.400000e-06	3.576805e-06	7.695493e-09	2.599538e+01	5.059412e+02
2.410000e-06	3.636116e-06	7.790416e-09	2.642644e+01	5.123375e+02
2.420000e-06	3.695176e-06	7.882509e-09	2.685567e+01	5.185322e+02
2.430000e-06	3.753944e-06	7.974643e-09	2.728278e+01	5.245375e+02
2.440000e-06	3.812431e-06	8.065693e-09	2.770785e+01	5.303654e+02
2.450000e-06	3.870669e-06	8.152846e-09	2.813111e+01	5.360269e+02
2.460000e-06	3.928636e-06	8.235741e-09	2.855241e+01	5.415318e+02
2.470000e-06	3.986261e-06	8.316960e-09	2.897121e+01	5.468886e+02
2.480000e-06	4.043551e-06	8.399195e-09	2.938758e+01	5.521045e+02
2.490000e-06	4.100550e-06	8.477828e-09	2.980183e+01	5.571851e+02
2.500000e-06	4.157249e-06	8.550812e-09	3.021391e+01	5.621351e+02
2.510000e-06	4.213640e-06	8.622332e-09	3.062374e+01	5.669585e+02
2.520000e-06	4.269733e-06	8.693513e-09	3.103142e+01	5.716588e+02
2.530000e-06	4.325499e-06	8.761688e-09	3.143671e+01	5.762394e+02
2.540000e-06	4.380950e-06	8.826809e-09	3.183971e+01	5.807038e+02
2.550000e-06	4.436109e-06	8.890574e-09	3.224059e+01	5.850561e+02
2.560000e-06	4.490899e-06	8.955289e-09	3.263880e+01	5.893005e+02
2.570000e-06	4.545348e-06	9.019552e-09	3.303452e+01	5.934415e+02
2.580000e-06	4.599474e-06	9.081393e-09	3.342789e+01	5.974840e+02
2.590000e-06	4.653232e-06	9.139808e-09	3.381860e+01	6.014323e+02
2.600000e-06	4.706654e-06	9.195183e-09	3.420685e+01	6.052906e+02
2.610000e-06	4.759751e-06	9.251155e-09	3.459275e+01	6.090624e+02
2.620000e-06	4.812504e-06	9.304551e-09	3.497615e+01	6.127505e+02
2.630000e-06	4.864911e-06	9.354069e-09	3.535703e+01	6.163567e+02
2.640000e-06	4.916966e-06	9.402961e-09	3.573535e+01	6.198824e+02
2.650000e-06	4.968673e-06	9.453655e-09	3.611115e+01	6.233283e+02
2.660000e-06	5.020051e-06	9.503099e-09	3.648455e+01	6.266950e+02
2.670000e-06	5.071076e-06	9.549691e-09	3.685539e+01	6.299829e+02
2.680000e-06	5.121712e-06	9.595804e-09	3.722340e+01	6.331930e+02
2.690000e-06	5.172007e-06	9.642326e-09	3.758893e+01	6.363267e+02
2.700000e-06	5.222011e-06	9.687584e-09	3.795235e+01	6.393860e+02
2.710000e-06	5.271661e-06	9.729149e-09	3.831319e+01	6.423735e+02
2.720000e-06	5.320882e-06	9.767935e-09	3.867092e+01	6.452923e+02
2.730000e-06	5.369676e-06	9.806270e-09	3.902554e+01	6.481457e+02
2.740000e-06	5.418050e-06	9.846147e-09	3.937711e+01	6.509370e+02
2.750000e-06	5.466030e-06	9.885372e-09	3.972582e+01	6.536689e+02
2.760000e-06	5.513624e-06	9.922559e-09	4.007172e+01	6.563438e+02
2.770000e-06	5.560826e-06	9.959863e-09	4.041478e+01	6.589633e+02
2.780000e-06	5.607658e-06	9.998639e-09	4.075514e+01	6.615281e+02
2.790000e-06	5.654090e-06	1.003790e-08	4.109260e+01	6.640384e+02
2.800000e-06	5.700092e-06	1.007514e-08	4.142693e+01	6.664939e+02
2.810000e-06	5.745645e-06	1.010899e-08	4.175799e+01	6.688941e+02
2.820000e-06	5.790724e-06	1.014166e-08	4.208562e+01	6.712389e+02
2.830000e-06	5.835354e-06	1.017302e-08	4.240998e+01	6.735287e+02
2.840000e-06	5.879546e-06	1.020318e-08	4.273116e+01	6.757646e+02
2.850000e-06	5.923346e-06	1.023351e-08	4.304949e+01	6.779487e+02
2.860000e-06	5.966779e-06	1.026406e-08	4.336515e+01	6.800840e+02
2.870000e-06	6.009795e-06	1.029396e-08	4.367778e+01	6.821741e+02
2.880000e-06	6.052384e-06	1.032397e-08	4.398730e+01	6.842229e+02
2.890000e-06	6.094488e-06	1.035530e-08	4.429331e+01	6.862343e+02
2.900000e-06	6.136083e-06	1.038706e-08	4.459561e+01	6.882117e+02
