# Temperatura_=_20.0
# Concentracion g/m^3_=_10000.0
# C_Vs_to_Am_M_A/Vsm_=_65563218390.804596
# pendiente_HvsI_1/m_=_3716.3
# ordenada_HvsI_A/m_=_1297.0
# frecuencia_Hz_=_135392.08468556136

Tiempo_(s)	Campo_(V.s)	Magnetizacion_(V.s)	Campo_(kA/m)	Magnetizacion_(A/m)
0.000000e+00	-7.804951e-06	-6.389013e-10	-5.697997e+01	-4.185216e+01
1.000000e-08	-7.804995e-06	-6.353960e-10	-5.698029e+01	-4.189690e+01
2.000000e-08	-7.804534e-06	-6.349082e-10	-5.697692e+01	-4.192863e+01
3.000000e-08	-7.803420e-06	-6.398540e-10	-5.696878e+01	-4.194116e+01
4.000000e-08	-7.801790e-06	-6.448133e-10	-5.695689e+01	-4.193001e+01
5.000000e-08	-7.799757e-06	-6.481964e-10	-5.694204e+01	-4.189340e+01
6.000000e-08	-7.797230e-06	-6.490138e-10	-5.692360e+01	-4.183281e+01
7.000000e-08	-7.794236e-06	-6.499787e-10	-5.690174e+01	-4.175322e+01
8.000000e-08	-7.790786e-06	-6.441484e-10	-5.687655e+01	-4.166273e+01
9.000000e-08	-7.786696e-06	-6.345367e-10	-5.684670e+01	-4.157173e+01
1.000000e-07	-7.781684e-06	-6.468981e-10	-5.681010e+01	-4.149165e+01
1.100000e-07	-7.775436e-06	-6.597997e-10	-5.676449e+01	-4.143346e+01
1.200000e-07	-7.768024e-06	-6.373187e-10	-5.671038e+01	-4.140615e+01
1.300000e-07	-7.760084e-06	-6.014941e-10	-5.665241e+01	-4.141532e+01
1.400000e-07	-7.752209e-06	-6.107850e-10	-5.659492e+01	-4.146223e+01
1.500000e-07	-7.744196e-06	-6.857654e-10	-5.653642e+01	-4.154334e+01
1.600000e-07	-7.735425e-06	-6.508598e-10	-5.647239e+01	-4.165048e+01
1.700000e-07	-7.726161e-06	-5.590505e-10	-5.640476e+01	-4.177165e+01
1.800000e-07	-7.716785e-06	-6.548011e-10	-5.633631e+01	-4.189236e+01
1.900000e-07	-7.706692e-06	-6.844346e-10	-5.626262e+01	-4.199735e+01
2.000000e-07	-7.695801e-06	-5.766402e-10	-5.618312e+01	-4.207240e+01
2.100000e-07	-7.684654e-06	-6.362095e-10	-5.610173e+01	-4.210606e+01
2.200000e-07	-7.673044e-06	-6.903773e-10	-5.601698e+01	-4.209111e+01
2.300000e-07	-7.660691e-06	-5.817917e-10	-5.592679e+01	-4.202535e+01
2.400000e-07	-7.647942e-06	-5.974963e-10	-5.583372e+01	-4.191185e+01
2.500000e-07	-7.634772e-06	-6.698804e-10	-5.573758e+01	-4.175848e+01
2.600000e-07	-7.620811e-06	-5.863654e-10	-5.563565e+01	-4.157687e+01
2.700000e-07	-7.606254e-06	-5.550361e-10	-5.552938e+01	-4.138081e+01
2.800000e-07	-7.591179e-06	-6.309197e-10	-5.541932e+01	-4.118453e+01
2.900000e-07	-7.575476e-06	-5.982374e-10	-5.530468e+01	-4.100091e+01
3.000000e-07	-7.559386e-06	-5.615663e-10	-5.518722e+01	-4.083992e+01
3.100000e-07	-7.542779e-06	-6.094558e-10	-5.506598e+01	-4.070755e+01
3.200000e-07	-7.525411e-06	-5.758387e-10	-5.493918e+01	-4.060526e+01
3.300000e-07	-7.507593e-06	-5.760864e-10	-5.480910e+01	-4.053012e+01
3.400000e-07	-7.489372e-06	-6.240370e-10	-5.467608e+01	-4.047543e+01
3.500000e-07	-7.470510e-06	-5.853862e-10	-5.453838e+01	-4.043193e+01
3.600000e-07	-7.451090e-06	-5.643940e-10	-5.439660e+01	-4.038920e+01
3.700000e-07	-7.431101e-06	-6.030862e-10	-5.425068e+01	-4.033715e+01
3.800000e-07	-7.410385e-06	-5.930513e-10	-5.409944e+01	-4.026737e+01
3.900000e-07	-7.389032e-06	-5.853053e-10	-5.394355e+01	-4.017417e+01
4.000000e-07	-7.367082e-06	-5.945986e-10	-5.378331e+01	-4.005506e+01
4.100000e-07	-7.344542e-06	-5.788759e-10	-5.361875e+01	-3.991085e+01
4.200000e-07	-7.321476e-06	-5.842028e-10	-5.345036e+01	-3.974520e+01
4.300000e-07	-7.297824e-06	-5.874609e-10	-5.327769e+01	-3.956376e+01
4.400000e-07	-7.273627e-06	-5.637786e-10	-5.310104e+01	-3.937314e+01
4.500000e-07	-7.249007e-06	-5.563063e-10	-5.292130e+01	-3.917979e+01
4.600000e-07	-7.223950e-06	-5.711390e-10	-5.273837e+01	-3.898901e+01
4.700000e-07	-7.198445e-06	-5.740634e-10	-5.255218e+01	-3.880424e+01
4.800000e-07	-7.172457e-06	-5.702204e-10	-5.236245e+01	-3.862669e+01
4.900000e-07	-7.145876e-06	-5.619618e-10	-5.216839e+01	-3.845543e+01
5.000000e-07	-7.118703e-06	-5.585610e-10	-5.197002e+01	-3.828779e+01
5.100000e-07	-7.091026e-06	-5.585868e-10	-5.176796e+01	-3.812004e+01
5.200000e-07	-7.062898e-06	-5.596318e-10	-5.156261e+01	-3.794828e+01
5.300000e-07	-7.034256e-06	-5.460514e-10	-5.135351e+01	-3.776920e+01
5.400000e-07	-7.005009e-06	-5.425580e-10	-5.114000e+01	-3.758079e+01
5.500000e-07	-6.975126e-06	-5.540266e-10	-5.092184e+01	-3.738275e+01
5.600000e-07	-6.944637e-06	-5.540573e-10	-5.069925e+01	-3.717656e+01
5.700000e-07	-6.913577e-06	-5.397778e-10	-5.047249e+01	-3.696523e+01
5.800000e-07	-6.882016e-06	-5.298897e-10	-5.024209e+01	-3.675277e+01
5.900000e-07	-6.849998e-06	-5.286209e-10	-5.000834e+01	-3.654347e+01
6.000000e-07	-6.817487e-06	-5.302308e-10	-4.977100e+01	-3.634116e+01
6.100000e-07	-6.784521e-06	-5.221909e-10	-4.953032e+01	-3.614849e+01
6.200000e-07	-6.751126e-06	-5.134215e-10	-4.928652e+01	-3.596645e+01
6.300000e-07	-6.717288e-06	-5.175510e-10	-4.903949e+01	-3.579415e+01
6.400000e-07	-6.683030e-06	-5.244954e-10	-4.878939e+01	-3.562895e+01
6.500000e-07	-6.648323e-06	-5.253563e-10	-4.853601e+01	-3.546686e+01
6.600000e-07	-6.613107e-06	-5.152489e-10	-4.827892e+01	-3.530316e+01
6.700000e-07	-6.577392e-06	-5.092054e-10	-4.801818e+01	-3.513319e+01
6.800000e-07	-6.541198e-06	-5.077723e-10	-4.775395e+01	-3.495307e+01
6.900000e-07	-6.504494e-06	-5.068780e-10	-4.748599e+01	-3.476037e+01
7.000000e-07	-6.467292e-06	-4.998485e-10	-4.721440e+01	-3.455451e+01
7.100000e-07	-6.429652e-06	-4.924235e-10	-4.693961e+01	-3.433684e+01
7.200000e-07	-6.391602e-06	-4.944846e-10	-4.666182e+01	-3.411049e+01
7.300000e-07	-6.353170e-06	-5.005870e-10	-4.638125e+01	-3.387984e+01
7.400000e-07	-6.314325e-06	-4.941058e-10	-4.609767e+01	-3.364986e+01
7.500000e-07	-6.275013e-06	-4.815654e-10	-4.581067e+01	-3.342534e+01
7.600000e-07	-6.235207e-06	-4.726316e-10	-4.552006e+01	-3.321013e+01
7.700000e-07	-6.194900e-06	-4.691584e-10	-4.522581e+01	-3.300651e+01
7.800000e-07	-6.154130e-06	-4.660929e-10	-4.492816e+01	-3.281487e+01
7.900000e-07	-6.112948e-06	-4.611978e-10	-4.462751e+01	-3.263360e+01
8.000000e-07	-6.071319e-06	-4.592770e-10	-4.432360e+01	-3.245928e+01
8.100000e-07	-6.029199e-06	-4.628598e-10	-4.401610e+01	-3.228719e+01
8.200000e-07	-5.986630e-06	-4.664306e-10	-4.370533e+01	-3.211199e+01
8.300000e-07	-5.943626e-06	-4.639274e-10	-4.339138e+01	-3.192838e+01
8.400000e-07	-5.900172e-06	-4.594456e-10	-4.307415e+01	-3.173189e+01
8.500000e-07	-5.856295e-06	-4.568123e-10	-4.275382e+01	-3.151942e+01
8.600000e-07	-5.812028e-06	-4.553571e-10	-4.243065e+01	-3.128960e+01
8.700000e-07	-5.767425e-06	-4.490481e-10	-4.210502e+01	-3.104293e+01
8.800000e-07	-5.722463e-06	-4.397313e-10	-4.177678e+01	-3.078158e+01
8.900000e-07	-5.677045e-06	-4.314859e-10	-4.144521e+01	-3.050904e+01
9.000000e-07	-5.631140e-06	-4.274976e-10	-4.111008e+01	-3.022959e+01
9.100000e-07	-5.584764e-06	-4.230075e-10	-4.077151e+01	-2.994765e+01
9.200000e-07	-5.537936e-06	-4.175204e-10	-4.042964e+01	-2.966723e+01
9.300000e-07	-5.490665e-06	-4.119752e-10	-4.008454e+01	-2.939142e+01
9.400000e-07	-5.442984e-06	-4.091796e-10	-3.973645e+01	-2.912210e+01
9.500000e-07	-5.394921e-06	-4.081320e-10	-3.938557e+01	-2.885980e+01
9.600000e-07	-5.346471e-06	-4.058305e-10	-3.903186e+01	-2.860380e+01
9.700000e-07	-5.297625e-06	-4.013923e-10	-3.867526e+01	-2.835238e+01
9.800000e-07	-5.248377e-06	-3.975656e-10	-3.831572e+01	-2.810320e+01
9.900000e-07	-5.198744e-06	-3.950017e-10	-3.795338e+01	-2.785372e+01
1.000000e-06	-5.148795e-06	-3.905875e-10	-3.758873e+01	-2.760160e+01
1.010000e-06	-5.098533e-06	-3.835737e-10	-3.722178e+01	-2.734502e+01
1.020000e-06	-5.047927e-06	-3.793877e-10	-3.685234e+01	-2.708288e+01
1.030000e-06	-4.996974e-06	-3.799986e-10	-3.648036e+01	-2.681485e+01
1.040000e-06	-4.945651e-06	-3.770525e-10	-3.610568e+01	-2.654130e+01
1.050000e-06	-4.893945e-06	-3.694774e-10	-3.572819e+01	-2.626314e+01
1.060000e-06	-4.841857e-06	-3.613589e-10	-3.534793e+01	-2.598152e+01
1.070000e-06	-4.789392e-06	-3.552234e-10	-3.496490e+01	-2.569763e+01
1.080000e-06	-4.736544e-06	-3.500019e-10	-3.457909e+01	-2.541245e+01
1.090000e-06	-4.683353e-06	-3.447697e-10	-3.419077e+01	-2.512658e+01
1.100000e-06	-4.629871e-06	-3.405453e-10	-3.380033e+01	-2.484019e+01
1.110000e-06	-4.576085e-06	-3.396949e-10	-3.340766e+01	-2.455301e+01
1.120000e-06	-4.521979e-06	-3.420705e-10	-3.301266e+01	-2.426447e+01
1.130000e-06	-4.467565e-06	-3.403765e-10	-3.261541e+01	-2.397378e+01
1.140000e-06	-4.412824e-06	-3.353973e-10	-3.221578e+01	-2.368013e+01
1.150000e-06	-4.357750e-06	-3.322131e-10	-3.181371e+01	-2.338284e+01
1.160000e-06	-4.302366e-06	-3.278393e-10	-3.140938e+01	-2.308145e+01
1.170000e-06	-4.246638e-06	-3.197339e-10	-3.100254e+01	-2.277580e+01
1.180000e-06	-4.190550e-06	-3.076708e-10	-3.059306e+01	-2.246599e+01
1.190000e-06	-4.134093e-06	-3.004289e-10	-3.018090e+01	-2.215239e+01
1.200000e-06	-4.077257e-06	-2.996889e-10	-2.976598e+01	-2.183552e+01
1.210000e-06	-4.020061e-06	-3.006924e-10	-2.934841e+01	-2.151599e+01
1.220000e-06	-3.962552e-06	-2.998679e-10	-2.892857e+01	-2.119447e+01
1.230000e-06	-3.904777e-06	-2.979680e-10	-2.850678e+01	-2.087160e+01
1.240000e-06	-3.846729e-06	-2.939423e-10	-2.808301e+01	-2.054803e+01
1.250000e-06	-3.788417e-06	-2.858853e-10	-2.765730e+01	-2.022442e+01
1.260000e-06	-3.729873e-06	-2.759865e-10	-2.722990e+01	-1.990152e+01
1.270000e-06	-3.671089e-06	-2.678046e-10	-2.680075e+01	-1.958017e+01
1.280000e-06	-3.612059e-06	-2.652410e-10	-2.636980e+01	-1.926132e+01
1.290000e-06	-3.552819e-06	-2.680825e-10	-2.593732e+01	-1.894602e+01
1.300000e-06	-3.493364e-06	-2.690771e-10	-2.550327e+01	-1.863529e+01
1.310000e-06	-3.433693e-06	-2.671223e-10	-2.506764e+01	-1.833007e+01
1.320000e-06	-3.373735e-06	-2.665047e-10	-2.462992e+01	-1.803098e+01
1.330000e-06	-3.313496e-06	-2.617450e-10	-2.419015e+01	-1.773822e+01
1.340000e-06	-3.253026e-06	-2.541510e-10	-2.374868e+01	-1.745142e+01
1.350000e-06	-3.192304e-06	-2.446689e-10	-2.330538e+01	-1.716956e+01
1.360000e-06	-3.131318e-06	-2.350481e-10	-2.286015e+01	-1.689095e+01
1.370000e-06	-3.070099e-06	-2.279198e-10	-2.241322e+01	-1.661338e+01
1.380000e-06	-3.008680e-06	-2.224137e-10	-2.196484e+01	-1.633425e+01
1.390000e-06	-2.947081e-06	-2.185641e-10	-2.151513e+01	-1.605084e+01
1.400000e-06	-2.885264e-06	-2.165052e-10	-2.106384e+01	-1.576063e+01
1.410000e-06	-2.823203e-06	-2.175175e-10	-2.061076e+01	-1.546158e+01
1.420000e-06	-2.760954e-06	-2.189803e-10	-2.015632e+01	-1.515241e+01
1.430000e-06	-2.698544e-06	-2.159071e-10	-1.970069e+01	-1.483272e+01
1.440000e-06	-2.635961e-06	-2.106084e-10	-1.924381e+01	-1.450313e+01
1.450000e-06	-2.573153e-06	-2.058952e-10	-1.878528e+01	-1.416516e+01
1.460000e-06	-2.510091e-06	-1.984409e-10	-1.832489e+01	-1.382106e+01
1.470000e-06	-2.446814e-06	-1.896253e-10	-1.786294e+01	-1.347356e+01
1.480000e-06	-2.383378e-06	-1.828565e-10	-1.739983e+01	-1.312552e+01
1.490000e-06	-2.319781e-06	-1.803617e-10	-1.693554e+01	-1.277959e+01
1.500000e-06	-2.256056e-06	-1.799802e-10	-1.647032e+01	-1.243791e+01
1.510000e-06	-2.192207e-06	-1.769459e-10	-1.600418e+01	-1.210190e+01
1.520000e-06	-2.128234e-06	-1.709483e-10	-1.553715e+01	-1.177212e+01
1.530000e-06	-2.064143e-06	-1.636108e-10	-1.506926e+01	-1.144829e+01
1.540000e-06	-1.999924e-06	-1.587801e-10	-1.460042e+01	-1.112944e+01
1.550000e-06	-1.935551e-06	-1.541981e-10	-1.413047e+01	-1.081403e+01
1.560000e-06	-1.871015e-06	-1.475362e-10	-1.365932e+01	-1.050031e+01
1.570000e-06	-1.806363e-06	-1.410922e-10	-1.318734e+01	-1.018650e+01
1.580000e-06	-1.741569e-06	-1.387737e-10	-1.271431e+01	-9.871075e+00
1.590000e-06	-1.676598e-06	-1.380766e-10	-1.223999e+01	-9.552896e+00
1.600000e-06	-1.611485e-06	-1.380903e-10	-1.176463e+01	-9.231301e+00
1.610000e-06	-1.546265e-06	-1.363704e-10	-1.128849e+01	-8.906083e+00
1.620000e-06	-1.480941e-06	-1.308713e-10	-1.081160e+01	-8.577396e+00
1.630000e-06	-1.415515e-06	-1.229012e-10	-1.033395e+01	-8.245614e+00
1.640000e-06	-1.350003e-06	-1.123721e-10	-9.855684e+00	-7.911169e+00
1.650000e-06	-1.284416e-06	-1.041603e-10	-9.376867e+00	-7.574408e+00
1.660000e-06	-1.218758e-06	-9.635739e-11	-8.897533e+00	-7.235500e+00
1.670000e-06	-1.153043e-06	-9.113182e-11	-8.417777e+00	-6.894405e+00
1.680000e-06	-1.087262e-06	-8.652148e-11	-7.937546e+00	-6.550915e+00
1.690000e-06	-1.021400e-06	-8.266258e-11	-7.456723e+00	-6.204756e+00
1.700000e-06	-9.554305e-07	-8.043298e-11	-6.975110e+00	-5.855716e+00
1.710000e-06	-8.893455e-07	-7.986516e-11	-6.492658e+00	-5.503783e+00
1.720000e-06	-8.231814e-07	-7.829257e-11	-6.009627e+00	-5.149240e+00
1.730000e-06	-7.569711e-07	-7.345530e-11	-5.526260e+00	-4.792709e+00
1.740000e-06	-6.906697e-07	-6.916945e-11	-5.042227e+00	-4.435117e+00
1.750000e-06	-6.243121e-07	-6.444053e-11	-4.557784e+00	-4.077578e+00
1.760000e-06	-5.579356e-07	-5.697332e-11	-4.073203e+00	-3.721220e+00
1.770000e-06	-4.915150e-07	-4.902081e-11	-3.588300e+00	-3.366971e+00
1.780000e-06	-4.250681e-07	-4.412186e-11	-3.103205e+00	-3.015356e+00
1.790000e-06	-3.586025e-07	-4.040777e-11	-2.617974e+00	-2.666338e+00
1.800000e-06	-2.921359e-07	-3.883937e-11	-2.132735e+00	-2.319235e+00
1.810000e-06	-2.256702e-07	-3.560834e-11	-1.647503e+00	-1.972746e+00
1.820000e-06	-1.592055e-07	-3.320519e-11	-1.162278e+00	-1.625082e+00
1.830000e-06	-9.273440e-08	-2.519170e-11	-6.770066e-01	-1.274200e+00
1.840000e-06	-2.624647e-08	-1.138746e-11	-1.916121e-01	-9.180897e-01
1.850000e-06	4.024839e-08	-1.239391e-12	2.938329e-01	-5.550882e-01
1.860000e-06	1.067427e-07	5.432183e-12	7.792739e-01	-1.841592e-01
1.870000e-06	1.732535e-07	6.752260e-12	1.264835e+00	1.949074e-01
1.880000e-06	2.397833e-07	6.310521e-12	1.750536e+00	5.814135e-01
1.890000e-06	3.062991e-07	4.492312e-12	2.236133e+00	9.738062e-01
1.900000e-06	3.727860e-07	5.419085e-12	2.721521e+00	1.369866e+00
1.910000e-06	4.392359e-07	1.188689e-11	3.206637e+00	1.766999e+00
1.920000e-06	5.056237e-07	1.989218e-11	3.691301e+00	2.162601e+00
1.930000e-06	5.719633e-07	2.838051e-11	4.175612e+00	2.554417e+00
1.940000e-06	6.382111e-07	3.564320e-11	4.659253e+00	2.940855e+00
1.950000e-06	7.043706e-07	3.950397e-11	5.142250e+00	3.321199e+00
1.960000e-06	7.704983e-07	4.405931e-11	5.625015e+00	3.695674e+00
1.970000e-06	8.365841e-07	4.761567e-11	6.107474e+00	4.065359e+00
1.980000e-06	9.026196e-07	5.412809e-11	6.589565e+00	4.431962e+00
1.990000e-06	9.686043e-07	6.315515e-11	7.071286e+00	4.797486e+00
2.000000e-06	1.034536e-06	7.151037e-11	7.552616e+00	5.163835e+00
2.010000e-06	1.100376e-06	7.834288e-11	8.033286e+00	5.532448e+00
2.020000e-06	1.166112e-06	8.016574e-11	8.513190e+00	5.903993e+00
2.030000e-06	1.231757e-06	7.878279e-11	8.992430e+00	6.278195e+00
2.040000e-06	1.297313e-06	7.662864e-11	9.471019e+00	6.653823e+00
2.050000e-06	1.362758e-06	7.844127e-11	9.948801e+00	7.028844e+00
2.060000e-06	1.428086e-06	8.193962e-11	1.042573e+01	7.400711e+00
2.070000e-06	1.493310e-06	8.944518e-11	1.090189e+01	7.766768e+00
2.080000e-06	1.558450e-06	1.010425e-10	1.137745e+01	8.124672e+00
2.090000e-06	1.623488e-06	1.118880e-10	1.185226e+01	8.472794e+00
2.100000e-06	1.688428e-06	1.167351e-10	1.232635e+01	8.810523e+00
2.110000e-06	1.753255e-06	1.160734e-10	1.279962e+01	9.138412e+00
2.120000e-06	1.817928e-06	1.149940e-10	1.327176e+01	9.458163e+00
2.130000e-06	1.882482e-06	1.170061e-10	1.374304e+01	9.772432e+00
2.140000e-06	1.946923e-06	1.226013e-10	1.421349e+01	1.008449e+01
2.150000e-06	2.011238e-06	1.305332e-10	1.468302e+01	1.039781e+01
2.160000e-06	2.075398e-06	1.397704e-10	1.515142e+01	1.071559e+01
2.170000e-06	2.139399e-06	1.485803e-10	1.561866e+01	1.104037e+01
2.180000e-06	2.203245e-06	1.556967e-10	1.608477e+01	1.137373e+01
2.190000e-06	2.266944e-06	1.587287e-10	1.654980e+01	1.171615e+01
2.200000e-06	2.330478e-06	1.593356e-10	1.701363e+01	1.206701e+01
2.210000e-06	2.393808e-06	1.599588e-10	1.747597e+01	1.242481e+01
2.220000e-06	2.456958e-06	1.620672e-10	1.793700e+01	1.278747e+01
2.230000e-06	2.519933e-06	1.643400e-10	1.839675e+01	1.315271e+01
2.240000e-06	2.582732e-06	1.695824e-10	1.885521e+01	1.351844e+01
2.250000e-06	2.645379e-06	1.807321e-10	1.931256e+01	1.388308e+01
2.260000e-06	2.707854e-06	1.934423e-10	1.976866e+01	1.424579e+01
2.270000e-06	2.770149e-06	2.024815e-10	2.022345e+01	1.460650e+01
2.280000e-06	2.832243e-06	2.092699e-10	2.067676e+01	1.496587e+01
2.290000e-06	2.894128e-06	2.160921e-10	2.112855e+01	1.532504e+01
2.300000e-06	2.955809e-06	2.216332e-10	2.157885e+01	1.568529e+01
2.310000e-06	3.017213e-06	2.238213e-10	2.202713e+01	1.604777e+01
2.320000e-06	3.078335e-06	2.222772e-10	2.247335e+01	1.641314e+01
2.330000e-06	3.139220e-06	2.238837e-10	2.291784e+01	1.678135e+01
2.340000e-06	3.199886e-06	2.301735e-10	2.336073e+01	1.715156e+01
2.350000e-06	3.260303e-06	2.380827e-10	2.380181e+01	1.752223e+01
2.360000e-06	3.320482e-06	2.445373e-10	2.424115e+01	1.789126e+01
2.370000e-06	3.380427e-06	2.504446e-10	2.467877e+01	1.825633e+01
2.380000e-06	3.440111e-06	2.561821e-10	2.511449e+01	1.861523e+01
2.390000e-06	3.499577e-06	2.619309e-10	2.554863e+01	1.896625e+01
2.400000e-06	3.558836e-06	2.671087e-10	2.598125e+01	1.930838e+01
2.410000e-06	3.617883e-06	2.673569e-10	2.641232e+01	1.964151e+01
2.420000e-06	3.676729e-06	2.691202e-10	2.684192e+01	1.996642e+01
2.430000e-06	3.735324e-06	2.755464e-10	2.726969e+01	2.028463e+01
2.440000e-06	3.793581e-06	2.851785e-10	2.769500e+01	2.059811e+01
2.450000e-06	3.851517e-06	2.949375e-10	2.811796e+01	2.090894e+01
2.460000e-06	3.909194e-06	3.027859e-10	2.853903e+01	2.121894e+01
2.470000e-06	3.966570e-06	3.103592e-10	2.895790e+01	2.152935e+01
2.480000e-06	4.023610e-06	3.172607e-10	2.937433e+01	2.184058e+01
2.490000e-06	4.080354e-06	3.210081e-10	2.978858e+01	2.215217e+01
2.500000e-06	4.136813e-06	3.213582e-10	3.020076e+01	2.246286e+01
2.510000e-06	4.192927e-06	3.206060e-10	3.061042e+01	2.277081e+01
2.520000e-06	4.248736e-06	3.231165e-10	3.101785e+01	2.307395e+01
2.530000e-06	4.304282e-06	3.281232e-10	3.142337e+01	2.337040e+01
2.540000e-06	4.359525e-06	3.329690e-10	3.182667e+01	2.365878e+01
2.550000e-06	4.414427e-06	3.380746e-10	3.222748e+01	2.393855e+01
2.560000e-06	4.468993e-06	3.450789e-10	3.262583e+01	2.421015e+01
2.570000e-06	4.523231e-06	3.537820e-10	3.302180e+01	2.447499e+01
2.580000e-06	4.577098e-06	3.586660e-10	3.341506e+01	2.473531e+01
2.590000e-06	4.630615e-06	3.599621e-10	3.380576e+01	2.499380e+01
2.600000e-06	4.683809e-06	3.606078e-10	3.419410e+01	2.525330e+01
2.610000e-06	4.736651e-06	3.638437e-10	3.457987e+01	2.551629e+01
2.620000e-06	4.789130e-06	3.659340e-10	3.496299e+01	2.578459e+01
2.630000e-06	4.841322e-06	3.663991e-10	3.534402e+01	2.605907e+01
2.640000e-06	4.893191e-06	3.683625e-10	3.572269e+01	2.633954e+01
2.650000e-06	4.944660e-06	3.738711e-10	3.609844e+01	2.662485e+01
2.660000e-06	4.995770e-06	3.807427e-10	3.647156e+01	2.691311e+01
2.670000e-06	5.046549e-06	3.844382e-10	3.684228e+01	2.720201e+01
2.680000e-06	5.096982e-06	3.879861e-10	3.721046e+01	2.748928e+01
2.690000e-06	5.147084e-06	3.914577e-10	3.757624e+01	2.777303e+01
2.700000e-06	5.196877e-06	3.957740e-10	3.793975e+01	2.805214e+01
2.710000e-06	5.246295e-06	4.006732e-10	3.830053e+01	2.832637e+01
2.720000e-06	5.295306e-06	4.041484e-10	3.865833e+01	2.859645e+01
2.730000e-06	5.343921e-06	4.074991e-10	3.901324e+01	2.886384e+01
2.740000e-06	5.392110e-06	4.106061e-10	3.936505e+01	2.913052e+01
2.750000e-06	5.439887e-06	4.144885e-10	3.971384e+01	2.939851e+01
2.760000e-06	5.487270e-06	4.184742e-10	4.005976e+01	2.966952e+01
2.770000e-06	5.534257e-06	4.237927e-10	4.040279e+01	2.994456e+01
2.780000e-06	5.580849e-06	4.314371e-10	4.074293e+01	3.022368e+01
2.790000e-06	5.627003e-06	4.381367e-10	4.107988e+01	3.050588e+01
2.800000e-06	5.672720e-06	4.417581e-10	4.141363e+01	3.078920e+01
2.810000e-06	5.717997e-06	4.432121e-10	4.174418e+01	3.107099e+01
2.820000e-06	5.762864e-06	4.456789e-10	4.207173e+01	3.134826e+01
2.830000e-06	5.807335e-06	4.484593e-10	4.239639e+01	3.161817e+01
2.840000e-06	5.851377e-06	4.499149e-10	4.271792e+01	3.187842e+01
2.850000e-06	5.895037e-06	4.516176e-10	4.303666e+01	3.212761e+01
2.860000e-06	5.938280e-06	4.563015e-10	4.335235e+01	3.236544e+01
2.870000e-06	5.981073e-06	4.632510e-10	4.366476e+01	3.259273e+01
2.880000e-06	6.023406e-06	4.702750e-10	4.397381e+01	3.281125e+01
2.890000e-06	6.065282e-06	4.769498e-10	4.427952e+01	3.302340e+01
2.900000e-06	6.106733e-06	4.843926e-10	4.458214e+01	3.323177e+01
2.910000e-06	6.147730e-06	4.898875e-10	4.488144e+01	3.343869e+01
