# Temperatura_=_20.0
# Concentracion g/m^3_=_10000.0
# C_Vs_to_Am_M_A/Vsm_=_65563218390.804596
# pendiente_HvsI_1/m_=_3716.3
# ordenada_HvsI_A/m_=_1297.0
# frecuencia_Hz_=_135399.85162263553

Tiempo_(s)	Campo_(V.s)	Magnetizacion_(V.s)	Campo_(kA/m)	Magnetizacion_(A/m)
0.000000e+00	-7.777911e-06	-1.151135e-08	-5.697716e+01	-7.500836e+02
1.000000e-08	-7.777659e-06	-1.151083e-08	-5.697532e+01	-7.501008e+02
2.000000e-08	-7.776824e-06	-1.151017e-08	-5.696920e+01	-7.500772e+02
3.000000e-08	-7.775394e-06	-1.151464e-08	-5.695872e+01	-7.500090e+02
4.000000e-08	-7.773525e-06	-1.151869e-08	-5.694503e+01	-7.498963e+02
5.000000e-08	-7.771210e-06	-1.151659e-08	-5.692807e+01	-7.497435e+02
6.000000e-08	-7.768380e-06	-1.151235e-08	-5.690734e+01	-7.495594e+02
7.000000e-08	-7.765100e-06	-1.150931e-08	-5.688331e+01	-7.493560e+02
8.000000e-08	-7.761329e-06	-1.150108e-08	-5.685569e+01	-7.491476e+02
9.000000e-08	-7.756734e-06	-1.147570e-08	-5.682203e+01	-7.489489e+02
1.000000e-07	-7.751016e-06	-1.149290e-08	-5.678014e+01	-7.487727e+02
1.100000e-07	-7.744062e-06	-1.150590e-08	-5.672920e+01	-7.486280e+02
1.200000e-07	-7.736270e-06	-1.150442e-08	-5.667212e+01	-7.485185e+02
1.300000e-07	-7.728308e-06	-1.143704e-08	-5.661380e+01	-7.484418e+02
1.400000e-07	-7.720366e-06	-1.142447e-08	-5.655562e+01	-7.483887e+02
1.500000e-07	-7.711947e-06	-1.155031e-08	-5.649394e+01	-7.483444e+02
1.600000e-07	-7.702806e-06	-1.149115e-08	-5.642698e+01	-7.482895e+02
1.700000e-07	-7.693427e-06	-1.136907e-08	-5.635827e+01	-7.482027e+02
1.800000e-07	-7.683677e-06	-1.148059e-08	-5.628685e+01	-7.480632e+02
1.900000e-07	-7.673088e-06	-1.151610e-08	-5.620928e+01	-7.478529e+02
2.000000e-07	-7.662023e-06	-1.135570e-08	-5.612822e+01	-7.475592e+02
2.100000e-07	-7.650656e-06	-1.141614e-08	-5.604495e+01	-7.471762e+02
2.200000e-07	-7.638617e-06	-1.153355e-08	-5.595676e+01	-7.467059e+02
2.300000e-07	-7.626012e-06	-1.132399e-08	-5.586442e+01	-7.461576e+02
2.400000e-07	-7.613060e-06	-1.134545e-08	-5.576954e+01	-7.455473e+02
2.500000e-07	-7.599447e-06	-1.144681e-08	-5.566982e+01	-7.448949e+02
2.600000e-07	-7.585107e-06	-1.128271e-08	-5.556478e+01	-7.442225e+02
2.700000e-07	-7.570246e-06	-1.125115e-08	-5.545591e+01	-7.435514e+02
2.800000e-07	-7.554775e-06	-1.136770e-08	-5.534258e+01	-7.428994e+02
2.900000e-07	-7.538810e-06	-1.129647e-08	-5.522562e+01	-7.422788e+02
3.000000e-07	-7.522461e-06	-1.125363e-08	-5.510586e+01	-7.416951e+02
3.100000e-07	-7.505446e-06	-1.132160e-08	-5.498121e+01	-7.411466e+02
3.200000e-07	-7.487817e-06	-1.124511e-08	-5.485207e+01	-7.406252e+02
3.300000e-07	-7.469815e-06	-1.125991e-08	-5.472020e+01	-7.401173e+02
3.400000e-07	-7.451270e-06	-1.129799e-08	-5.458435e+01	-7.396064e+02
3.500000e-07	-7.432127e-06	-1.122492e-08	-5.444412e+01	-7.390750e+02
3.600000e-07	-7.412442e-06	-1.120310e-08	-5.429991e+01	-7.385071e+02
3.700000e-07	-7.392054e-06	-1.124634e-08	-5.415056e+01	-7.378902e+02
3.800000e-07	-7.370971e-06	-1.119458e-08	-5.399611e+01	-7.372168e+02
3.900000e-07	-7.349302e-06	-1.120204e-08	-5.383738e+01	-7.364849e+02
4.000000e-07	-7.327045e-06	-1.118347e-08	-5.367434e+01	-7.356976e+02
4.100000e-07	-7.304250e-06	-1.114395e-08	-5.350735e+01	-7.348626e+02
4.200000e-07	-7.280895e-06	-1.116261e-08	-5.333626e+01	-7.339903e+02
4.300000e-07	-7.256960e-06	-1.115778e-08	-5.316093e+01	-7.330924e+02
4.400000e-07	-7.232553e-06	-1.111209e-08	-5.298213e+01	-7.321797e+02
4.500000e-07	-7.207709e-06	-1.110777e-08	-5.280014e+01	-7.312604e+02
4.600000e-07	-7.182427e-06	-1.111580e-08	-5.261493e+01	-7.303396e+02
4.700000e-07	-7.156712e-06	-1.109522e-08	-5.242656e+01	-7.294180e+02
4.800000e-07	-7.130394e-06	-1.108064e-08	-5.223377e+01	-7.284926e+02
4.900000e-07	-7.103457e-06	-1.105456e-08	-5.203644e+01	-7.275573e+02
5.000000e-07	-7.076020e-06	-1.103974e-08	-5.183545e+01	-7.266039e+02
5.100000e-07	-7.048119e-06	-1.103181e-08	-5.163106e+01	-7.256239e+02
5.200000e-07	-7.019737e-06	-1.102170e-08	-5.142315e+01	-7.246094e+02
5.300000e-07	-6.990844e-06	-1.098215e-08	-5.121150e+01	-7.235548e+02
5.400000e-07	-6.961365e-06	-1.097498e-08	-5.099555e+01	-7.224572e+02
5.500000e-07	-6.931239e-06	-1.098042e-08	-5.077486e+01	-7.213170e+02
5.600000e-07	-6.900559e-06	-1.096453e-08	-5.055011e+01	-7.201374e+02
5.700000e-07	-6.869364e-06	-1.093330e-08	-5.032159e+01	-7.189238e+02
5.800000e-07	-6.837641e-06	-1.090855e-08	-5.008920e+01	-7.176829e+02
5.900000e-07	-6.805426e-06	-1.089062e-08	-4.985321e+01	-7.164213e+02
6.000000e-07	-6.772742e-06	-1.087583e-08	-4.961379e+01	-7.151446e+02
6.100000e-07	-6.739591e-06	-1.084667e-08	-4.937093e+01	-7.138564e+02
6.200000e-07	-6.705976e-06	-1.082183e-08	-4.912469e+01	-7.125579e+02
6.300000e-07	-6.671941e-06	-1.081542e-08	-4.887537e+01	-7.112478e+02
6.400000e-07	-6.637520e-06	-1.080548e-08	-4.862321e+01	-7.099225e+02
6.500000e-07	-6.602652e-06	-1.078025e-08	-4.836779e+01	-7.085772e+02
6.600000e-07	-6.567277e-06	-1.074421e-08	-4.810865e+01	-7.072061e+02
6.700000e-07	-6.531352e-06	-1.072099e-08	-4.784548e+01	-7.058041e+02
6.800000e-07	-6.494901e-06	-1.070591e-08	-4.757846e+01	-7.043674e+02
6.900000e-07	-6.457976e-06	-1.068739e-08	-4.730797e+01	-7.028938e+02
7.000000e-07	-6.420621e-06	-1.065640e-08	-4.703432e+01	-7.013834e+02
7.100000e-07	-6.382833e-06	-1.062997e-08	-4.675750e+01	-6.998384e+02
7.200000e-07	-6.344624e-06	-1.061342e-08	-4.647760e+01	-6.982624e+02
7.300000e-07	-6.306050e-06	-1.059489e-08	-4.619503e+01	-6.966601e+02
7.400000e-07	-6.267044e-06	-1.056306e-08	-4.590929e+01	-6.950360e+02
7.500000e-07	-6.227536e-06	-1.053146e-08	-4.561987e+01	-6.933942e+02
7.600000e-07	-6.187549e-06	-1.050660e-08	-4.532695e+01	-6.917369e+02
7.700000e-07	-6.147112e-06	-1.048331e-08	-4.503073e+01	-6.900646e+02
7.800000e-07	-6.106250e-06	-1.045354e-08	-4.473139e+01	-6.883757e+02
7.900000e-07	-6.064936e-06	-1.042088e-08	-4.442875e+01	-6.866668e+02
8.000000e-07	-6.023143e-06	-1.039392e-08	-4.412259e+01	-6.849327e+02
8.100000e-07	-5.980907e-06	-1.037303e-08	-4.381319e+01	-6.831676e+02
8.200000e-07	-5.938189e-06	-1.034888e-08	-4.350026e+01	-6.813655e+02
8.300000e-07	-5.894985e-06	-1.031461e-08	-4.318377e+01	-6.795209e+02
8.400000e-07	-5.851375e-06	-1.028171e-08	-4.286430e+01	-6.776295e+02
8.500000e-07	-5.807423e-06	-1.025456e-08	-4.254233e+01	-6.756882e+02
8.600000e-07	-5.763144e-06	-1.022557e-08	-4.221797e+01	-6.736957e+02
8.700000e-07	-5.718492e-06	-1.018902e-08	-4.189087e+01	-6.716521e+02
8.800000e-07	-5.673430e-06	-1.015010e-08	-4.156077e+01	-6.695586e+02
8.900000e-07	-5.627914e-06	-1.011595e-08	-4.122734e+01	-6.674170e+02
9.000000e-07	-5.581898e-06	-1.008407e-08	-4.089024e+01	-6.652297e+02
9.100000e-07	-5.535368e-06	-1.004708e-08	-4.054939e+01	-6.629988e+02
9.200000e-07	-5.488345e-06	-1.000691e-08	-4.020492e+01	-6.607261e+02
9.300000e-07	-5.440934e-06	-9.971059e-09	-3.985761e+01	-6.584130e+02
9.400000e-07	-5.393162e-06	-9.938456e-09	-3.950766e+01	-6.560603e+02
9.500000e-07	-5.344982e-06	-9.903056e-09	-3.915471e+01	-6.536684e+02
9.600000e-07	-5.296442e-06	-9.862077e-09	-3.879914e+01	-6.512377e+02
9.700000e-07	-5.247549e-06	-9.820618e-09	-3.844097e+01	-6.487685e+02
9.800000e-07	-5.198227e-06	-9.782752e-09	-3.807966e+01	-6.462612e+02
9.900000e-07	-5.148502e-06	-9.743631e-09	-3.771540e+01	-6.437164e+02
1.000000e-06	-5.098469e-06	-9.701479e-09	-3.734888e+01	-6.411348e+02
1.010000e-06	-5.048137e-06	-9.660403e-09	-3.698018e+01	-6.385168e+02
1.020000e-06	-4.997475e-06	-9.621912e-09	-3.660905e+01	-6.358627e+02
1.030000e-06	-4.946475e-06	-9.582319e-09	-3.623545e+01	-6.331721e+02
1.040000e-06	-4.895128e-06	-9.538915e-09	-3.585930e+01	-6.304437e+02
1.050000e-06	-4.843384e-06	-9.495520e-09	-3.548025e+01	-6.276752e+02
1.060000e-06	-4.791249e-06	-9.453579e-09	-3.509834e+01	-6.248635e+02
1.070000e-06	-4.738708e-06	-9.410203e-09	-3.471345e+01	-6.220051e+02
1.080000e-06	-4.685782e-06	-9.363744e-09	-3.432574e+01	-6.190957e+02
1.090000e-06	-4.632577e-06	-9.316867e-09	-3.393598e+01	-6.161315e+02
1.100000e-06	-4.579096e-06	-9.272235e-09	-3.354421e+01	-6.131092e+02
1.110000e-06	-4.525282e-06	-9.228748e-09	-3.314999e+01	-6.100266e+02
1.120000e-06	-4.471129e-06	-9.184339e-09	-3.275330e+01	-6.068828e+02
1.130000e-06	-4.416692e-06	-9.137423e-09	-3.235452e+01	-6.036782e+02
1.140000e-06	-4.361982e-06	-9.091263e-09	-3.195374e+01	-6.004147e+02
1.150000e-06	-4.306962e-06	-9.044407e-09	-3.155069e+01	-5.970950e+02
1.160000e-06	-4.251585e-06	-8.991797e-09	-3.114503e+01	-5.937222e+02
1.170000e-06	-4.195835e-06	-8.934308e-09	-3.073663e+01	-5.902994e+02
1.180000e-06	-4.139721e-06	-8.878042e-09	-3.032556e+01	-5.868290e+02
1.190000e-06	-4.083235e-06	-8.825397e-09	-2.991178e+01	-5.833121e+02
1.200000e-06	-4.026416e-06	-8.773987e-09	-2.949555e+01	-5.797486e+02
1.210000e-06	-3.969247e-06	-8.719306e-09	-2.907675e+01	-5.761364e+02
1.220000e-06	-3.911720e-06	-8.660826e-09	-2.865534e+01	-5.724726e+02
1.230000e-06	-3.853900e-06	-8.604349e-09	-2.823178e+01	-5.687529e+02
1.240000e-06	-3.795827e-06	-8.550059e-09	-2.780636e+01	-5.649729e+02
1.250000e-06	-3.737488e-06	-8.491887e-09	-2.737900e+01	-5.611282e+02
1.260000e-06	-3.678916e-06	-8.429106e-09	-2.694993e+01	-5.572153e+02
1.270000e-06	-3.620140e-06	-8.365105e-09	-2.651937e+01	-5.532321e+02
1.280000e-06	-3.561133e-06	-8.304993e-09	-2.608711e+01	-5.491777e+02
1.290000e-06	-3.501918e-06	-8.242509e-09	-2.565333e+01	-5.450529e+02
1.300000e-06	-3.442505e-06	-8.178515e-09	-2.521810e+01	-5.408596e+02
1.310000e-06	-3.382852e-06	-8.115033e-09	-2.478111e+01	-5.366003e+02
1.320000e-06	-3.322945e-06	-8.050583e-09	-2.434226e+01	-5.322775e+02
1.330000e-06	-3.262776e-06	-7.986047e-09	-2.390150e+01	-5.278931e+02
1.340000e-06	-3.202345e-06	-7.916226e-09	-2.345881e+01	-5.234478e+02
1.350000e-06	-3.141675e-06	-7.842834e-09	-2.301437e+01	-5.189407e+02
1.360000e-06	-3.080778e-06	-7.768706e-09	-2.256827e+01	-5.143690e+02
1.370000e-06	-3.019696e-06	-7.695731e-09	-2.212081e+01	-5.097283e+02
1.380000e-06	-2.958450e-06	-7.625077e-09	-2.167216e+01	-5.050132e+02
1.390000e-06	-2.896992e-06	-7.550503e-09	-2.122194e+01	-5.002173e+02
1.400000e-06	-2.835280e-06	-7.473626e-09	-2.076987e+01	-4.953346e+02
1.410000e-06	-2.773360e-06	-7.398359e-09	-2.031628e+01	-4.903598e+02
1.420000e-06	-2.711240e-06	-7.319404e-09	-1.986121e+01	-4.852890e+02
1.430000e-06	-2.648852e-06	-7.237688e-09	-1.940419e+01	-4.801203e+02
1.440000e-06	-2.586238e-06	-7.155182e-09	-1.894551e+01	-4.748534e+02
1.450000e-06	-2.523448e-06	-7.076261e-09	-1.848554e+01	-4.694899e+02
1.460000e-06	-2.460493e-06	-6.998269e-09	-1.802436e+01	-4.640325e+02
1.470000e-06	-2.397367e-06	-6.916739e-09	-1.756193e+01	-4.584848e+02
1.480000e-06	-2.334055e-06	-6.828422e-09	-1.709814e+01	-4.528498e+02
1.490000e-06	-2.270548e-06	-6.736935e-09	-1.663292e+01	-4.471298e+02
1.500000e-06	-2.206881e-06	-6.645808e-09	-1.616653e+01	-4.413257e+02
1.510000e-06	-2.143115e-06	-6.552825e-09	-1.569941e+01	-4.354362e+02
1.520000e-06	-2.079216e-06	-6.459080e-09	-1.523132e+01	-4.294583e+02
1.530000e-06	-2.015206e-06	-6.366522e-09	-1.476241e+01	-4.233871e+02
1.540000e-06	-1.951108e-06	-6.276914e-09	-1.429286e+01	-4.172163e+02
1.550000e-06	-1.886864e-06	-6.187103e-09	-1.382224e+01	-4.109389e+02
1.560000e-06	-1.822473e-06	-6.092282e-09	-1.335054e+01	-4.045480e+02
1.570000e-06	-1.757968e-06	-5.992452e-09	-1.287801e+01	-3.980371e+02
1.580000e-06	-1.693319e-06	-5.888191e-09	-1.240443e+01	-3.914011e+02
1.590000e-06	-1.628548e-06	-5.784333e-09	-1.192994e+01	-3.846359e+02
1.600000e-06	-1.563667e-06	-5.678915e-09	-1.145466e+01	-3.777393e+02
1.610000e-06	-1.498633e-06	-5.566807e-09	-1.097825e+01	-3.707100e+02
1.620000e-06	-1.433460e-06	-5.453875e-09	-1.050082e+01	-3.635478e+02
1.630000e-06	-1.368166e-06	-5.343284e-09	-1.002252e+01	-3.562526e+02
1.640000e-06	-1.302789e-06	-5.233277e-09	-9.543591e+00	-3.488242e+02
1.650000e-06	-1.237309e-06	-5.118427e-09	-9.063919e+00	-3.412614e+02
1.660000e-06	-1.171746e-06	-4.999641e-09	-8.583634e+00	-3.335620e+02
1.670000e-06	-1.106152e-06	-4.878138e-09	-8.103126e+00	-3.257227e+02
1.680000e-06	-1.040485e-06	-4.750601e-09	-7.622082e+00	-3.177389e+02
1.690000e-06	-9.747428e-07	-4.619741e-09	-7.140487e+00	-3.096049e+02
1.700000e-06	-9.089341e-07	-4.490561e-09	-6.658406e+00	-3.013149e+02
1.710000e-06	-8.430295e-07	-4.363822e-09	-6.175621e+00	-2.928629e+02
1.720000e-06	-7.770473e-07	-4.237150e-09	-5.692267e+00	-2.842435e+02
1.730000e-06	-7.110188e-07	-4.105641e-09	-5.208575e+00	-2.754522e+02
1.740000e-06	-6.449197e-07	-3.969859e-09	-4.724365e+00	-2.664854e+02
1.750000e-06	-5.787551e-07	-3.826809e-09	-4.239676e+00	-2.573407e+02
1.760000e-06	-5.125777e-07	-3.678665e-09	-3.754893e+00	-2.480163e+02
1.770000e-06	-4.464179e-07	-3.529436e-09	-3.270238e+00	-2.385109e+02
1.780000e-06	-3.802636e-07	-3.379368e-09	-2.785625e+00	-2.288230e+02
1.790000e-06	-3.140891e-07	-3.235739e-09	-2.300863e+00	-2.189508e+02
1.800000e-06	-2.479295e-07	-3.090826e-09	-1.816210e+00	-2.088912e+02
1.810000e-06	-1.817611e-07	-2.942020e-09	-1.331493e+00	-1.986402e+02
1.820000e-06	-1.155493e-07	-2.781069e-09	-8.464572e-01	-1.881923e+02
1.830000e-06	-4.930933e-08	-2.610212e-09	-3.612160e-01	-1.775410e+02
1.840000e-06	1.694741e-08	-2.431390e-09	1.241484e-01	-1.666791e+02
1.850000e-06	8.319473e-08	-2.250222e-09	6.094438e-01	-1.555993e+02
1.860000e-06	1.494372e-07	-2.070895e-09	1.094704e+00	-1.442945e+02
1.870000e-06	2.157029e-07	-1.898759e-09	1.580133e+00	-1.327584e+02
1.880000e-06	2.819776e-07	-1.735663e-09	2.065629e+00	-1.209864e+02
1.890000e-06	3.482106e-07	-1.569459e-09	2.550820e+00	-1.089752e+02
1.900000e-06	4.143960e-07	-1.391726e-09	3.035662e+00	-9.672344e+01
1.910000e-06	4.805266e-07	-1.194411e-09	3.520102e+00	-8.423161e+01
1.920000e-06	5.466219e-07	-9.898164e-10	4.004284e+00	-7.150163e+01
1.930000e-06	6.126876e-07	-7.807615e-10	4.488249e+00	-5.853681e+01
1.940000e-06	6.787048e-07	-5.793039e-10	4.971859e+00	-4.534155e+01
1.950000e-06	7.446842e-07	-3.825544e-10	5.455191e+00	-3.192123e+01
1.960000e-06	8.106019e-07	-1.907145e-10	5.938072e+00	-1.828219e+01
1.970000e-06	8.764762e-07	3.947779e-12	6.420635e+00	-4.431916e+00
1.980000e-06	9.423155e-07	2.113797e-10	6.902941e+00	9.620612e+00
1.990000e-06	1.008082e-06	4.332398e-10	7.384712e+00	2.386440e+01
2.000000e-06	1.073803e-06	6.639184e-10	7.866153e+00	3.828591e+01
2.010000e-06	1.139469e-06	8.949445e-10	8.347191e+00	5.286845e+01
2.020000e-06	1.205041e-06	1.122052e-09	8.827537e+00	6.759182e+01
2.030000e-06	1.270514e-06	1.345297e-09	9.307165e+00	8.243199e+01
2.040000e-06	1.335851e-06	1.568241e-09	9.785787e+00	9.736120e+01
2.050000e-06	1.401062e-06	1.786628e-09	1.026349e+01	1.123483e+02
2.060000e-06	1.466122e-06	2.007926e-09	1.074009e+01	1.273591e+02
2.070000e-06	1.531023e-06	2.233629e-09	1.121553e+01	1.423579e+02
2.080000e-06	1.595813e-06	2.463786e-09	1.169014e+01	1.573078e+02
2.090000e-06	1.660482e-06	2.692445e-09	1.216388e+01	1.721721e+02
2.100000e-06	1.725045e-06	2.917153e-09	1.263684e+01	1.869155e+02
2.110000e-06	1.789536e-06	3.138475e-09	1.310926e+01	2.015051e+02
2.120000e-06	1.853955e-06	3.356219e-09	1.358116e+01	2.159106e+02
2.130000e-06	1.918259e-06	3.567727e-09	1.405223e+01	2.301056e+02
2.140000e-06	1.982427e-06	3.776456e-09	1.452229e+01	2.440672e+02
2.150000e-06	2.046455e-06	3.982833e-09	1.499133e+01	2.577761e+02
2.160000e-06	2.110335e-06	4.184705e-09	1.545928e+01	2.712164e+02
2.170000e-06	2.174054e-06	4.382170e-09	1.592606e+01	2.843754e+02
2.180000e-06	2.237588e-06	4.575637e-09	1.639147e+01	2.972429e+02
2.190000e-06	2.300924e-06	4.764999e-09	1.685544e+01	3.098106e+02
2.200000e-06	2.364093e-06	4.948547e-09	1.731818e+01	3.220724e+02
2.210000e-06	2.427127e-06	5.127282e-09	1.777994e+01	3.340233e+02
2.220000e-06	2.490012e-06	5.302461e-09	1.824061e+01	3.456599e+02
2.230000e-06	2.552746e-06	5.472800e-09	1.870016e+01	3.569797e+02
2.240000e-06	2.615348e-06	5.638271e-09	1.915876e+01	3.679817e+02
2.250000e-06	2.677781e-06	5.800509e-09	1.961611e+01	3.786659e+02
2.260000e-06	2.739974e-06	5.958146e-09	2.007170e+01	3.890336e+02
2.270000e-06	2.801901e-06	6.109903e-09	2.052536e+01	3.990872e+02
2.280000e-06	2.863611e-06	6.257738e-09	2.097741e+01	4.088303e+02
2.290000e-06	2.925080e-06	6.402561e-09	2.142770e+01	4.182675e+02
2.300000e-06	2.986308e-06	6.543518e-09	2.187622e+01	4.274042e+02
2.310000e-06	3.047320e-06	6.678747e-09	2.232317e+01	4.362465e+02
2.320000e-06	3.108094e-06	6.806302e-09	2.276837e+01	4.448011e+02
2.330000e-06	3.168638e-06	6.927191e-09	2.321188e+01	4.530751e+02
2.340000e-06	3.228914e-06	7.042740e-09	2.365344e+01	4.610762e+02
2.350000e-06	3.288934e-06	7.153840e-09	2.409312e+01	4.688122e+02
2.360000e-06	3.348731e-06	7.260263e-09	2.453116e+01	4.762918e+02
2.370000e-06	3.408304e-06	7.362929e-09	2.496756e+01	4.835238e+02
2.380000e-06	3.467685e-06	7.466630e-09	2.540256e+01	4.905179e+02
2.390000e-06	3.526872e-06	7.572686e-09	2.583613e+01	4.972843e+02
2.400000e-06	3.585841e-06	7.673538e-09	2.626811e+01	5.038336e+02
2.410000e-06	3.644563e-06	7.768451e-09	2.669828e+01	5.101769e+02
2.420000e-06	3.703025e-06	7.859215e-09	2.712654e+01	5.163251e+02
2.430000e-06	3.761212e-06	7.946960e-09	2.755280e+01	5.222892e+02
2.440000e-06	3.819060e-06	8.031163e-09	2.797656e+01	5.280795e+02
2.450000e-06	3.876564e-06	8.113967e-09	2.839781e+01	5.337054e+02
2.460000e-06	3.933780e-06	8.198334e-09	2.881694e+01	5.391755e+02
2.470000e-06	3.990729e-06	8.283539e-09	2.923412e+01	5.444970e+02
2.480000e-06	4.047392e-06	8.368015e-09	2.964921e+01	5.496761e+02
2.490000e-06	4.103779e-06	8.446895e-09	3.006227e+01	5.547178e+02
2.500000e-06	4.159870e-06	8.522621e-09	3.047317e+01	5.596266e+02
2.510000e-06	4.215629e-06	8.595900e-09	3.088163e+01	5.644063e+02
2.520000e-06	4.271033e-06	8.661626e-09	3.128750e+01	5.690607e+02
2.530000e-06	4.326119e-06	8.722965e-09	3.169102e+01	5.735937e+02
2.540000e-06	4.380907e-06	8.783366e-09	3.209237e+01	5.780098e+02
2.550000e-06	4.435387e-06	8.846092e-09	3.249147e+01	5.823136e+02
2.560000e-06	4.489547e-06	8.911782e-09	3.288822e+01	5.865105e+02
2.570000e-06	4.543333e-06	8.975929e-09	3.328223e+01	5.906059e+02
2.580000e-06	4.596790e-06	9.036864e-09	3.367383e+01	5.946052e+02
2.590000e-06	4.649939e-06	9.096458e-09	3.406317e+01	5.985135e+02
2.600000e-06	4.702758e-06	9.155055e-09	3.445010e+01	6.023353e+02
2.610000e-06	4.755205e-06	9.205677e-09	3.483430e+01	6.060743e+02
2.620000e-06	4.807264e-06	9.249549e-09	3.521566e+01	6.097329e+02
2.630000e-06	4.858992e-06	9.297908e-09	3.559459e+01	6.133129e+02
2.640000e-06	4.910386e-06	9.351791e-09	3.597108e+01	6.168153e+02
2.650000e-06	4.961441e-06	9.405159e-09	3.634508e+01	6.202404e+02
2.660000e-06	5.012155e-06	9.453699e-09	3.671659e+01	6.235886e+02
2.670000e-06	5.062549e-06	9.499587e-09	3.708575e+01	6.268606e+02
2.680000e-06	5.112647e-06	9.546956e-09	3.745274e+01	6.300575e+02
2.690000e-06	5.162423e-06	9.591549e-09	3.781738e+01	6.331813e+02
2.700000e-06	5.211816e-06	9.631275e-09	3.817921e+01	6.362347e+02
2.710000e-06	5.260780e-06	9.670337e-09	3.853789e+01	6.392212e+02
2.720000e-06	5.309344e-06	9.713106e-09	3.889365e+01	6.421447e+02
2.730000e-06	5.357517e-06	9.758854e-09	3.924654e+01	6.450089e+02
2.740000e-06	5.405291e-06	9.801106e-09	3.959651e+01	6.478173e+02
2.750000e-06	5.452672e-06	9.837791e-09	3.994360e+01	6.505727e+02
2.760000e-06	5.499666e-06	9.875311e-09	4.028785e+01	6.532768e+02
2.770000e-06	5.546278e-06	9.914655e-09	4.062931e+01	6.559301e+02
2.780000e-06	5.592460e-06	9.951903e-09	4.096762e+01	6.585321e+02
2.790000e-06	5.638145e-06	9.987693e-09	4.130229e+01	6.610813e+02
2.800000e-06	5.683386e-06	1.002529e-08	4.163370e+01	6.635760e+02
2.810000e-06	5.728260e-06	1.006353e-08	4.196243e+01	6.660143e+02
2.820000e-06	5.772738e-06	1.009544e-08	4.228825e+01	6.683949e+02
2.830000e-06	5.816790e-06	1.012061e-08	4.261095e+01	6.707173e+02
2.840000e-06	5.860457e-06	1.014698e-08	4.293083e+01	6.729821e+02
2.850000e-06	5.903742e-06	1.017918e-08	4.324792e+01	6.751909e+02
2.860000e-06	5.946590e-06	1.021336e-08	4.356180e+01	6.773466e+02
2.870000e-06	5.988967e-06	1.024438e-08	4.387223e+01	6.794525e+02
2.880000e-06	6.030872e-06	1.027400e-08	4.417921e+01	6.815121e+02
2.890000e-06	6.072319e-06	1.030713e-08	4.448283e+01	6.835289e+02
2.900000e-06	6.113307e-06	1.034108e-08	4.478309e+01	6.855051e+02
