# Temperatura_=_20.0
# Concentracion g/m^3_=_10000.0
# C_Vs_to_Am_M_A/Vsm_=_65563218390.804596
# pendiente_HvsI_1/m_=_3716.3
# ordenada_HvsI_A/m_=_1297.0
# frecuencia_Hz_=_135408.74391166255

Tiempo_(s)	Campo_(V.s)	Magnetizacion_(V.s)	Campo_(kA/m)	Magnetizacion_(A/m)
0.000000e+00	-7.861957e-06	-1.158935e-08	-5.696747e+01	-7.560538e+02
1.000000e-08	-7.861659e-06	-1.158362e-08	-5.696531e+01	-7.560524e+02
2.000000e-08	-7.860759e-06	-1.158372e-08	-5.695879e+01	-7.560290e+02
3.000000e-08	-7.859286e-06	-1.158955e-08	-5.694811e+01	-7.559839e+02
4.000000e-08	-7.857348e-06	-1.159219e-08	-5.693408e+01	-7.559175e+02
5.000000e-08	-7.854905e-06	-1.159234e-08	-5.691637e+01	-7.558298e+02
6.000000e-08	-7.851981e-06	-1.159385e-08	-5.689518e+01	-7.557204e+02
7.000000e-08	-7.848631e-06	-1.158878e-08	-5.687091e+01	-7.555882e+02
8.000000e-08	-7.844727e-06	-1.156674e-08	-5.684263e+01	-7.554320e+02
9.000000e-08	-7.840007e-06	-1.155764e-08	-5.680842e+01	-7.552505e+02
1.000000e-07	-7.834172e-06	-1.159315e-08	-5.676614e+01	-7.550428e+02
1.100000e-07	-7.827071e-06	-1.160575e-08	-5.671469e+01	-7.548083e+02
1.200000e-07	-7.819145e-06	-1.156781e-08	-5.665726e+01	-7.545479e+02
1.300000e-07	-7.811105e-06	-1.149008e-08	-5.659900e+01	-7.542631e+02
1.400000e-07	-7.803101e-06	-1.154589e-08	-5.654100e+01	-7.539573e+02
1.500000e-07	-7.794553e-06	-1.163142e-08	-5.647907e+01	-7.536344e+02
1.600000e-07	-7.785297e-06	-1.149278e-08	-5.641200e+01	-7.532996e+02
1.700000e-07	-7.775910e-06	-1.146187e-08	-5.634398e+01	-7.529582e+02
1.800000e-07	-7.766096e-06	-1.160070e-08	-5.627287e+01	-7.526153e+02
1.900000e-07	-7.755314e-06	-1.153270e-08	-5.619474e+01	-7.522751e+02
2.000000e-07	-7.744117e-06	-1.142574e-08	-5.611360e+01	-7.519405e+02
2.100000e-07	-7.732662e-06	-1.154711e-08	-5.603061e+01	-7.516123e+02
2.200000e-07	-7.720432e-06	-1.155057e-08	-5.594199e+01	-7.512891e+02
2.300000e-07	-7.707655e-06	-1.140502e-08	-5.584941e+01	-7.509675e+02
2.400000e-07	-7.694537e-06	-1.150068e-08	-5.575435e+01	-7.506421e+02
2.500000e-07	-7.680695e-06	-1.150338e-08	-5.565405e+01	-7.503058e+02
2.600000e-07	-7.666171e-06	-1.136785e-08	-5.554881e+01	-7.499512e+02
2.700000e-07	-7.651128e-06	-1.141394e-08	-5.543981e+01	-7.495704e+02
2.800000e-07	-7.635468e-06	-1.145167e-08	-5.532634e+01	-7.491565e+02
2.900000e-07	-7.619353e-06	-1.137324e-08	-5.520957e+01	-7.487040e+02
3.000000e-07	-7.602825e-06	-1.139553e-08	-5.508981e+01	-7.482093e+02
3.100000e-07	-7.585568e-06	-1.139258e-08	-5.496477e+01	-7.476710e+02
3.200000e-07	-7.567705e-06	-1.133711e-08	-5.483533e+01	-7.470901e+02
3.300000e-07	-7.549455e-06	-1.140246e-08	-5.470309e+01	-7.464692e+02
3.400000e-07	-7.530632e-06	-1.138383e-08	-5.456670e+01	-7.458126e+02
3.500000e-07	-7.511181e-06	-1.131541e-08	-5.442576e+01	-7.451255e+02
3.600000e-07	-7.491161e-06	-1.134341e-08	-5.428069e+01	-7.444130e+02
3.700000e-07	-7.470446e-06	-1.133532e-08	-5.413059e+01	-7.436799e+02
3.800000e-07	-7.449051e-06	-1.128278e-08	-5.397557e+01	-7.429296e+02
3.900000e-07	-7.427142e-06	-1.131371e-08	-5.381681e+01	-7.421646e+02
4.000000e-07	-7.404688e-06	-1.127766e-08	-5.365412e+01	-7.413852e+02
4.100000e-07	-7.381645e-06	-1.123938e-08	-5.348715e+01	-7.405907e+02
4.200000e-07	-7.358005e-06	-1.126771e-08	-5.331585e+01	-7.397789e+02
4.300000e-07	-7.333780e-06	-1.125251e-08	-5.314032e+01	-7.389470e+02
4.400000e-07	-7.309101e-06	-1.120426e-08	-5.296150e+01	-7.380918e+02
4.500000e-07	-7.284029e-06	-1.120567e-08	-5.277983e+01	-7.372104e+02
4.600000e-07	-7.258517e-06	-1.120601e-08	-5.259496e+01	-7.363005e+02
4.700000e-07	-7.232436e-06	-1.118838e-08	-5.240598e+01	-7.353607e+02
4.800000e-07	-7.205763e-06	-1.117285e-08	-5.221271e+01	-7.343909e+02
4.900000e-07	-7.178553e-06	-1.114548e-08	-5.201555e+01	-7.333917e+02
5.000000e-07	-7.150833e-06	-1.112280e-08	-5.181469e+01	-7.323646e+02
5.100000e-07	-7.122668e-06	-1.111979e-08	-5.161061e+01	-7.313116e+02
5.200000e-07	-7.093994e-06	-1.110407e-08	-5.140284e+01	-7.302347e+02
5.300000e-07	-7.064697e-06	-1.106662e-08	-5.119055e+01	-7.291356e+02
5.400000e-07	-7.034760e-06	-1.106334e-08	-5.097363e+01	-7.280156e+02
5.500000e-07	-7.004236e-06	-1.106944e-08	-5.075245e+01	-7.268750e+02
5.600000e-07	-6.973153e-06	-1.105786e-08	-5.052723e+01	-7.257134e+02
5.700000e-07	-6.941522e-06	-1.102485e-08	-5.029803e+01	-7.245298e+02
5.800000e-07	-6.909373e-06	-1.098754e-08	-5.006508e+01	-7.233225e+02
5.900000e-07	-6.876759e-06	-1.096526e-08	-4.982876e+01	-7.220896e+02
6.000000e-07	-6.843705e-06	-1.094981e-08	-4.958925e+01	-7.208294e+02
6.100000e-07	-6.810233e-06	-1.092073e-08	-4.934672e+01	-7.195403e+02
6.200000e-07	-6.776308e-06	-1.090178e-08	-4.910090e+01	-7.182215e+02
6.300000e-07	-6.741899e-06	-1.089570e-08	-4.885157e+01	-7.168726e+02
6.400000e-07	-6.707077e-06	-1.088945e-08	-4.859925e+01	-7.154941e+02
6.500000e-07	-6.671710e-06	-1.086651e-08	-4.834298e+01	-7.140869e+02
6.600000e-07	-6.635743e-06	-1.083090e-08	-4.808237e+01	-7.126525e+02
6.700000e-07	-6.599334e-06	-1.079889e-08	-4.781855e+01	-7.111924e+02
6.800000e-07	-6.562439e-06	-1.077909e-08	-4.755121e+01	-7.097080e+02
6.900000e-07	-6.525094e-06	-1.076199e-08	-4.728061e+01	-7.082008e+02
7.000000e-07	-6.487350e-06	-1.072976e-08	-4.700711e+01	-7.066715e+02
7.100000e-07	-6.449173e-06	-1.069837e-08	-4.673048e+01	-7.051205e+02
7.200000e-07	-6.410527e-06	-1.068295e-08	-4.645046e+01	-7.035479e+02
7.300000e-07	-6.371400e-06	-1.066998e-08	-4.616695e+01	-7.019533e+02
7.400000e-07	-6.331884e-06	-1.064236e-08	-4.588061e+01	-7.003357e+02
7.500000e-07	-6.291969e-06	-1.060723e-08	-4.559139e+01	-6.986945e+02
7.600000e-07	-6.251538e-06	-1.057976e-08	-4.529843e+01	-6.970283e+02
7.700000e-07	-6.210631e-06	-1.056079e-08	-4.500202e+01	-6.953361e+02
7.800000e-07	-6.169330e-06	-1.053280e-08	-4.470275e+01	-6.936166e+02
7.900000e-07	-6.127532e-06	-1.049434e-08	-4.439989e+01	-6.918683e+02
8.000000e-07	-6.085197e-06	-1.045948e-08	-4.409313e+01	-6.900895e+02
8.100000e-07	-6.042435e-06	-1.043946e-08	-4.378328e+01	-6.882782e+02
8.200000e-07	-5.999292e-06	-1.042034e-08	-4.347067e+01	-6.864321e+02
8.300000e-07	-5.955660e-06	-1.038773e-08	-4.315451e+01	-6.845485e+02
8.400000e-07	-5.911579e-06	-1.035348e-08	-4.283510e+01	-6.826245e+02
8.500000e-07	-5.867168e-06	-1.032889e-08	-4.251330e+01	-6.806571e+02
8.600000e-07	-5.822414e-06	-1.030308e-08	-4.218902e+01	-6.786438e+02
8.700000e-07	-5.777179e-06	-1.026473e-08	-4.186124e+01	-6.765822e+02
8.800000e-07	-5.731473e-06	-1.021954e-08	-4.153006e+01	-6.744712e+02
8.900000e-07	-5.685401e-06	-1.018228e-08	-4.119622e+01	-6.723104e+02
9.000000e-07	-5.638861e-06	-1.014732e-08	-4.085899e+01	-6.701008e+02
9.100000e-07	-5.591798e-06	-1.011040e-08	-4.051797e+01	-6.678447e+02
9.200000e-07	-5.544297e-06	-1.006810e-08	-4.017379e+01	-6.655454e+02
9.300000e-07	-5.496419e-06	-1.003164e-08	-3.982686e+01	-6.632069e+02
9.400000e-07	-5.448060e-06	-1.000820e-08	-3.947646e+01	-6.608336e+02
9.500000e-07	-5.399240e-06	-9.981521e-09	-3.912271e+01	-6.584296e+02
9.600000e-07	-5.350108e-06	-9.943968e-09	-3.876670e+01	-6.559983e+02
9.700000e-07	-5.300609e-06	-9.898460e-09	-3.840803e+01	-6.535419e+02
9.800000e-07	-5.250679e-06	-9.856602e-09	-3.804624e+01	-6.510607e+02
9.900000e-07	-5.200402e-06	-9.814335e-09	-3.768194e+01	-6.485532e+02
1.000000e-06	-5.149832e-06	-9.766339e-09	-3.731551e+01	-6.460160e+02
1.010000e-06	-5.099011e-06	-9.720043e-09	-3.694726e+01	-6.434441e+02
1.020000e-06	-5.047839e-06	-9.685464e-09	-3.657647e+01	-6.408312e+02
1.030000e-06	-4.996199e-06	-9.662326e-09	-3.620228e+01	-6.381703e+02
1.040000e-06	-4.944171e-06	-9.634710e-09	-3.582529e+01	-6.354544e+02
1.050000e-06	-4.891831e-06	-9.590360e-09	-3.544604e+01	-6.326774e+02
1.060000e-06	-4.839145e-06	-9.539576e-09	-3.506428e+01	-6.298342e+02
1.070000e-06	-4.786027e-06	-9.487873e-09	-3.467939e+01	-6.269217e+02
1.080000e-06	-4.732510e-06	-9.437097e-09	-3.429161e+01	-6.239385e+02
1.090000e-06	-4.678712e-06	-9.384029e-09	-3.390179e+01	-6.208853e+02
1.100000e-06	-4.624655e-06	-9.335031e-09	-3.351009e+01	-6.177645e+02
1.110000e-06	-4.570247e-06	-9.295106e-09	-3.311586e+01	-6.145797e+02
1.120000e-06	-4.515444e-06	-9.258852e-09	-3.271875e+01	-6.113353e+02
1.130000e-06	-4.460276e-06	-9.216822e-09	-3.231901e+01	-6.080359e+02
1.140000e-06	-4.404824e-06	-9.164717e-09	-3.191720e+01	-6.046853e+02
1.150000e-06	-4.349108e-06	-9.110943e-09	-3.151349e+01	-6.012868e+02
1.160000e-06	-4.293098e-06	-9.056666e-09	-3.110764e+01	-5.978419e+02
1.170000e-06	-4.236692e-06	-8.997802e-09	-3.069893e+01	-5.943512e+02
1.180000e-06	-4.179797e-06	-8.934641e-09	-3.028666e+01	-5.908134e+02
1.190000e-06	-4.122506e-06	-8.874615e-09	-2.987154e+01	-5.872266e+02
1.200000e-06	-4.064905e-06	-8.822173e-09	-2.945416e+01	-5.835878e+02
1.210000e-06	-4.007015e-06	-8.776696e-09	-2.903469e+01	-5.798937e+02
1.220000e-06	-3.948844e-06	-8.725232e-09	-2.861319e+01	-5.761415e+02
1.230000e-06	-3.890425e-06	-8.665386e-09	-2.818988e+01	-5.723283e+02
1.240000e-06	-3.831748e-06	-8.604758e-09	-2.776471e+01	-5.684526e+02
1.250000e-06	-3.772817e-06	-8.545456e-09	-2.733770e+01	-5.645134e+02
1.260000e-06	-3.713695e-06	-8.480061e-09	-2.690931e+01	-5.605106e+02
1.270000e-06	-3.654348e-06	-8.409709e-09	-2.647928e+01	-5.564447e+02
1.280000e-06	-3.594780e-06	-8.341340e-09	-2.604765e+01	-5.523166e+02
1.290000e-06	-3.534985e-06	-8.279304e-09	-2.561438e+01	-5.481271e+02
1.300000e-06	-3.474948e-06	-8.221694e-09	-2.517936e+01	-5.438767e+02
1.310000e-06	-3.414682e-06	-8.159041e-09	-2.474267e+01	-5.395653e+02
1.320000e-06	-3.354150e-06	-8.091499e-09	-2.430406e+01	-5.351919e+02
1.330000e-06	-3.293291e-06	-8.023064e-09	-2.386308e+01	-5.307547e+02
1.340000e-06	-3.232100e-06	-7.952147e-09	-2.341969e+01	-5.262509e+02
1.350000e-06	-3.170620e-06	-7.874706e-09	-2.297420e+01	-5.216774e+02
1.360000e-06	-3.108943e-06	-7.794984e-09	-2.252730e+01	-5.170304e+02
1.370000e-06	-3.047088e-06	-7.718518e-09	-2.207909e+01	-5.123062e+02
1.380000e-06	-2.985045e-06	-7.647680e-09	-2.162954e+01	-5.075014e+02
1.390000e-06	-2.922842e-06	-7.575202e-09	-2.117881e+01	-5.026128e+02
1.400000e-06	-2.860433e-06	-7.498311e-09	-2.072660e+01	-4.976383e+02
1.410000e-06	-2.797804e-06	-7.420422e-09	-2.027279e+01	-4.925761e+02
1.420000e-06	-2.734981e-06	-7.343205e-09	-1.981758e+01	-4.874251e+02
1.430000e-06	-2.671942e-06	-7.265775e-09	-1.936080e+01	-4.821849e+02
1.440000e-06	-2.608712e-06	-7.183516e-09	-1.890264e+01	-4.768552e+02
1.450000e-06	-2.545313e-06	-7.096194e-09	-1.844325e+01	-4.714357e+02
1.460000e-06	-2.481723e-06	-7.009987e-09	-1.798248e+01	-4.659261e+02
1.470000e-06	-2.417951e-06	-6.927604e-09	-1.752039e+01	-4.603253e+02
1.480000e-06	-2.353987e-06	-6.844197e-09	-1.705691e+01	-4.546321e+02
1.490000e-06	-2.289789e-06	-6.758852e-09	-1.659173e+01	-4.488444e+02
1.500000e-06	-2.225417e-06	-6.672429e-09	-1.612529e+01	-4.429596e+02
1.510000e-06	-2.160981e-06	-6.583035e-09	-1.565839e+01	-4.369745e+02
1.520000e-06	-2.096408e-06	-6.488138e-09	-1.519050e+01	-4.308856e+02
1.530000e-06	-2.031665e-06	-6.388631e-09	-1.472137e+01	-4.246891e+02
1.540000e-06	-1.966808e-06	-6.288228e-09	-1.425142e+01	-4.183814e+02
1.550000e-06	-1.901846e-06	-6.191005e-09	-1.378071e+01	-4.119588e+02
1.560000e-06	-1.836744e-06	-6.092455e-09	-1.330899e+01	-4.054175e+02
1.570000e-06	-1.771510e-06	-5.990845e-09	-1.283630e+01	-3.987544e+02
1.580000e-06	-1.706166e-06	-5.885602e-09	-1.236282e+01	-3.919661e+02
1.590000e-06	-1.640680e-06	-5.782298e-09	-1.188831e+01	-3.850498e+02
1.600000e-06	-1.575041e-06	-5.679502e-09	-1.141269e+01	-3.780024e+02
1.610000e-06	-1.509269e-06	-5.568954e-09	-1.093611e+01	-3.708211e+02
1.620000e-06	-1.443366e-06	-5.452510e-09	-1.045858e+01	-3.635029e+02
1.630000e-06	-1.377323e-06	-5.331851e-09	-9.980032e+00	-3.560450e+02
1.640000e-06	-1.311181e-06	-5.216488e-09	-9.500775e+00	-3.484444e+02
1.650000e-06	-1.245004e-06	-5.101902e-09	-9.021254e+00	-3.406981e+02
1.660000e-06	-1.178811e-06	-4.980987e-09	-8.541626e+00	-3.328034e+02
1.670000e-06	-1.112539e-06	-4.855141e-09	-8.061421e+00	-3.247576e+02
1.680000e-06	-1.046174e-06	-4.725429e-09	-7.580544e+00	-3.165582e+02
1.690000e-06	-9.797568e-07	-4.598219e-09	-7.099284e+00	-3.082031e+02
1.700000e-06	-9.132432e-07	-4.468455e-09	-6.617329e+00	-2.996902e+02
1.710000e-06	-8.466389e-07	-4.331366e-09	-6.134717e+00	-2.910177e+02
1.720000e-06	-7.799852e-07	-4.196124e-09	-5.651746e+00	-2.821837e+02
1.730000e-06	-7.132731e-07	-4.058539e-09	-5.168352e+00	-2.731862e+02
1.740000e-06	-6.464967e-07	-3.916822e-09	-4.684493e+00	-2.640231e+02
1.750000e-06	-5.796602e-07	-3.770681e-09	-4.200198e+00	-2.546918e+02
1.760000e-06	-5.127841e-07	-3.622207e-09	-3.715616e+00	-2.451892e+02
1.770000e-06	-4.458896e-07	-3.479375e-09	-3.230901e+00	-2.355115e+02
1.780000e-06	-3.789736e-07	-3.333394e-09	-2.746030e+00	-2.256542e+02
1.790000e-06	-3.120383e-07	-3.185252e-09	-2.261019e+00	-2.156125e+02
1.800000e-06	-2.451169e-07	-3.027055e-09	-1.776108e+00	-2.053805e+02
1.810000e-06	-1.782255e-07	-2.863513e-09	-1.291416e+00	-1.949521e+02
1.820000e-06	-1.113597e-07	-2.695411e-09	-8.069087e-01	-1.843208e+02
1.830000e-06	-4.445928e-08	-2.519013e-09	-3.221504e-01	-1.734799e+02
1.840000e-06	2.248398e-08	-2.347341e-09	1.629182e-01	-1.624225e+02
1.850000e-06	8.941955e-08	-2.182247e-09	6.479310e-01	-1.511420e+02
1.860000e-06	1.563708e-07	-2.017116e-09	1.133058e+00	-1.396319e+02
1.870000e-06	2.233320e-07	-1.847212e-09	1.618256e+00	-1.278861e+02
1.880000e-06	2.903003e-07	-1.666822e-09	2.103506e+00	-1.158992e+02
1.890000e-06	3.572533e-07	-1.477681e-09	2.588645e+00	-1.036663e+02
1.900000e-06	4.241457e-07	-1.285945e-09	3.073345e+00	-9.118347e+01
1.910000e-06	4.909907e-07	-1.086097e-09	3.557702e+00	-7.844795e+01
1.920000e-06	5.577931e-07	-8.871380e-10	4.041749e+00	-6.545829e+01
1.930000e-06	6.245603e-07	-6.874146e-10	4.525542e+00	-5.221479e+01
1.940000e-06	6.912524e-07	-4.921896e-10	5.008791e+00	-3.871974e+01
1.950000e-06	7.578725e-07	-2.929459e-10	5.491518e+00	-2.497786e+01
1.960000e-06	8.244616e-07	-8.524847e-11	5.974021e+00	-1.099657e+01
1.970000e-06	8.910176e-07	1.281208e-10	6.456283e+00	3.213669e+00
1.980000e-06	9.575057e-07	3.509686e-10	6.938054e+00	1.763909e+01
1.990000e-06	1.023935e-06	5.801825e-10	7.419395e+00	3.226250e+01
2.000000e-06	1.090310e-06	8.151771e-10	7.900352e+00	4.706323e+01
2.010000e-06	1.156647e-06	1.048057e-09	8.381025e+00	6.201722e+01
2.020000e-06	1.222876e-06	1.274567e-09	8.860920e+00	7.709723e+01
2.030000e-06	1.288964e-06	1.500858e-09	9.339789e+00	9.227320e+01
2.040000e-06	1.354989e-06	1.728436e-09	9.818206e+00	1.075127e+02
2.050000e-06	1.420911e-06	1.954029e-09	1.029587e+01	1.227816e+02
2.060000e-06	1.486667e-06	2.180770e-09	1.077234e+01	1.380445e+02
2.070000e-06	1.552277e-06	2.409159e-09	1.124775e+01	1.532655e+02
2.080000e-06	1.617815e-06	2.644332e-09	1.172263e+01	1.684088e+02
2.090000e-06	1.683236e-06	2.877893e-09	1.219667e+01	1.834397e+02
2.100000e-06	1.748522e-06	3.106929e-09	1.266973e+01	1.983246e+02
2.110000e-06	1.813710e-06	3.330198e-09	1.314208e+01	2.130322e+02
2.120000e-06	1.878816e-06	3.549404e-09	1.361384e+01	2.275333e+02
2.130000e-06	1.943835e-06	3.763538e-09	1.408496e+01	2.418018e+02
2.140000e-06	2.008737e-06	3.972185e-09	1.455524e+01	2.558146e+02
2.150000e-06	2.073518e-06	4.175331e-09	1.502464e+01	2.695518e+02
2.160000e-06	2.138142e-06	4.372768e-09	1.549290e+01	2.829969e+02
2.170000e-06	2.202607e-06	4.568599e-09	1.596001e+01	2.961367e+02
2.180000e-06	2.266864e-06	4.761125e-09	1.642562e+01	3.089613e+02
2.190000e-06	2.330900e-06	4.950727e-09	1.688962e+01	3.214635e+02
2.200000e-06	2.394750e-06	5.136298e-09	1.735227e+01	3.336392e+02
2.210000e-06	2.458378e-06	5.318954e-09	1.781332e+01	3.454864e+02
2.220000e-06	2.521848e-06	5.494528e-09	1.827323e+01	3.570052e+02
2.230000e-06	2.585188e-06	5.659964e-09	1.873219e+01	3.681975e+02
2.240000e-06	2.648340e-06	5.818120e-09	1.918978e+01	3.790662e+02
2.250000e-06	2.711356e-06	5.974592e-09	1.964639e+01	3.896152e+02
2.260000e-06	2.774202e-06	6.130309e-09	2.010178e+01	3.998487e+02
2.270000e-06	2.836771e-06	6.281260e-09	2.055515e+01	4.097716e+02
2.280000e-06	2.899117e-06	6.428002e-09	2.100690e+01	4.193885e+02
2.290000e-06	2.961263e-06	6.572794e-09	2.145721e+01	4.287045e+02
2.300000e-06	3.023222e-06	6.714773e-09	2.190616e+01	4.377243e+02
2.310000e-06	3.084973e-06	6.848587e-09	2.235361e+01	4.464531e+02
2.320000e-06	3.146457e-06	6.971322e-09	2.279912e+01	4.548963e+02
2.330000e-06	3.207665e-06	7.087861e-09	2.324263e+01	4.630596e+02
2.340000e-06	3.268617e-06	7.200137e-09	2.368429e+01	4.709495e+02
2.350000e-06	3.329324e-06	7.311117e-09	2.412417e+01	4.785734e+02
2.360000e-06	3.389750e-06	7.417317e-09	2.456202e+01	4.859396e+02
2.370000e-06	3.449959e-06	7.518108e-09	2.499829e+01	4.930574e+02
2.380000e-06	3.509964e-06	7.620711e-09	2.543308e+01	4.999370e+02
2.390000e-06	3.569734e-06	7.724474e-09	2.586617e+01	5.065896e+02
2.400000e-06	3.629253e-06	7.825796e-09	2.629744e+01	5.130269e+02
2.410000e-06	3.688514e-06	7.921874e-09	2.672685e+01	5.192609e+02
2.420000e-06	3.747539e-06	8.012803e-09	2.715454e+01	5.253036e+02
2.430000e-06	3.806316e-06	8.101030e-09	2.758044e+01	5.311669e+02
2.440000e-06	3.864814e-06	8.183918e-09	2.800431e+01	5.368616e+02
2.450000e-06	3.923034e-06	8.263428e-09	2.842617e+01	5.423977e+02
2.460000e-06	3.980931e-06	8.344416e-09	2.884569e+01	5.477841e+02
2.470000e-06	4.038513e-06	8.426256e-09	2.926293e+01	5.530282e+02
2.480000e-06	4.095823e-06	8.506690e-09	2.967819e+01	5.581362e+02
2.490000e-06	4.152822e-06	8.583695e-09	3.009121e+01	5.631130e+02
2.500000e-06	4.209523e-06	8.657262e-09	3.050206e+01	5.679625e+02
2.510000e-06	4.265881e-06	8.728325e-09	3.091043e+01	5.726876e+02
2.520000e-06	4.321889e-06	8.797536e-09	3.131626e+01	5.772912e+02
2.530000e-06	4.377586e-06	8.863356e-09	3.171984e+01	5.817755e+02
2.540000e-06	4.433006e-06	8.923991e-09	3.212141e+01	5.861432e+02
2.550000e-06	4.488124e-06	8.983001e-09	3.252079e+01	5.903973e+02
2.560000e-06	4.542854e-06	9.042491e-09	3.291737e+01	5.945414e+02
2.570000e-06	4.597201e-06	9.101632e-09	3.331116e+01	5.985796e+02
2.580000e-06	4.651200e-06	9.161221e-09	3.370244e+01	6.025168e+02
2.590000e-06	4.704893e-06	9.219334e-09	3.409149e+01	6.063581e+02
2.600000e-06	4.758233e-06	9.279301e-09	3.447799e+01	6.101090e+02
2.610000e-06	4.811197e-06	9.336936e-09	3.486177e+01	6.137751e+02
2.620000e-06	4.863814e-06	9.388310e-09	3.524303e+01	6.173614e+02
2.630000e-06	4.916113e-06	9.436491e-09	3.562199e+01	6.208727e+02
2.640000e-06	4.968086e-06	9.482286e-09	3.599858e+01	6.243127e+02
2.650000e-06	5.019717e-06	9.526171e-09	3.637270e+01	6.276845e+02
2.660000e-06	5.070973e-06	9.570638e-09	3.674410e+01	6.309899e+02
2.670000e-06	5.121837e-06	9.616576e-09	3.711265e+01	6.342301e+02
2.680000e-06	5.172386e-06	9.664174e-09	3.747893e+01	6.374052e+02
2.690000e-06	5.222609e-06	9.712782e-09	3.784285e+01	6.405149e+02
2.700000e-06	5.272487e-06	9.760844e-09	3.820426e+01	6.435586e+02
2.710000e-06	5.322034e-06	9.806901e-09	3.856328e+01	6.465355e+02
2.720000e-06	5.371187e-06	9.848664e-09	3.891944e+01	6.494452e+02
2.730000e-06	5.419876e-06	9.887989e-09	3.927223e+01	6.522875e+02
2.740000e-06	5.468105e-06	9.922772e-09	3.962170e+01	6.550631e+02
2.750000e-06	5.515945e-06	9.952064e-09	3.996835e+01	6.577732e+02
2.760000e-06	5.563430e-06	9.984319e-09	4.031242e+01	6.604196e+02
2.770000e-06	5.610496e-06	1.002492e-08	4.065346e+01	6.630048e+02
2.780000e-06	5.657123e-06	1.006781e-08	4.099132e+01	6.655315e+02
2.790000e-06	5.703305e-06	1.010938e-08	4.132596e+01	6.680026e+02
2.800000e-06	5.749058e-06	1.014756e-08	4.165748e+01	6.704212e+02
2.810000e-06	5.794395e-06	1.018142e-08	4.198599e+01	6.727897e+02
2.820000e-06	5.839311e-06	1.021067e-08	4.231144e+01	6.751106e+02
2.830000e-06	5.883781e-06	1.023548e-08	4.263367e+01	6.773857e+02
2.840000e-06	5.927805e-06	1.026116e-08	4.295267e+01	6.796163e+02
2.850000e-06	5.971469e-06	1.029107e-08	4.326906e+01	6.818034e+02
2.860000e-06	6.014752e-06	1.032431e-08	4.358269e+01	6.839475e+02
2.870000e-06	6.057570e-06	1.035845e-08	4.389295e+01	6.860492e+02
2.880000e-06	6.099945e-06	1.039173e-08	4.419999e+01	6.881087e+02
2.890000e-06	6.141873e-06	1.042538e-08	4.450380e+01	6.901263e+02
2.900000e-06	6.183315e-06	1.045980e-08	4.480409e+01	6.921026e+02
