# Temperatura_=_20.0
# Concentracion g/m^3_=_10000.0
# C_Vs_to_Am_M_A/Vsm_=_65563218390.804596
# pendiente_HvsI_1/m_=_3716.3
# ordenada_HvsI_A/m_=_1297.0
# frecuencia_Hz_=_81121.61901724963

Tiempo_(s)	Campo_(V.s)	Magnetizacion_(V.s)	Campo_(kA/m)	Magnetizacion_(A/m)
0.000000e+00	-8.322331e-07	-3.233700e-11	-6.866963e+00	2.028455e-01
1.000000e-08	-8.322064e-07	-4.213150e-11	-6.866743e+00	1.731811e-01
2.000000e-08	-8.321609e-07	-5.992132e-11	-6.866368e+00	1.438574e-01
3.000000e-08	-8.321226e-07	-7.497744e-11	-6.866051e+00	1.153514e-01
4.000000e-08	-8.320606e-07	-8.097785e-11	-6.865540e+00	8.813525e-02
5.000000e-08	-8.319840e-07	-7.424181e-11	-6.864908e+00	6.265963e-02
6.000000e-08	-8.319111e-07	-6.420087e-11	-6.864306e+00	3.933935e-02
7.000000e-08	-8.318205e-07	-6.631967e-11	-6.863559e+00	1.853987e-02
8.000000e-08	-8.317099e-07	-6.851485e-11	-6.862646e+00	5.660144e-04
9.000000e-08	-8.315906e-07	-5.690856e-11	-6.861662e+00	-1.434671e-02
1.000000e-07	-8.314483e-07	-4.482503e-11	-6.860487e+00	-2.603809e-02
1.100000e-07	-8.312772e-07	-5.093884e-11	-6.859076e+00	-3.442627e-02
1.200000e-07	-8.310854e-07	-6.408090e-11	-6.857493e+00	-3.950786e-02
1.300000e-07	-8.308681e-07	-7.506237e-11	-6.855700e+00	-4.135532e-02
1.400000e-07	-8.306223e-07	-9.002501e-11	-6.853673e+00	-4.011160e-02
1.500000e-07	-8.303500e-07	-1.033415e-10	-6.851425e+00	-3.598271e-02
1.600000e-07	-8.300362e-07	-1.064266e-10	-6.848836e+00	-2.922833e-02
1.700000e-07	-8.296876e-07	-9.819979e-11	-6.845960e+00	-2.015109e-02
1.800000e-07	-8.293230e-07	-8.695468e-11	-6.842951e+00	-9.084947e-03
1.900000e-07	-8.289307e-07	-8.104726e-11	-6.839714e+00	3.616677e-03
2.000000e-07	-8.284991e-07	-8.101302e-11	-6.836153e+00	1.759271e-02
2.100000e-07	-8.280406e-07	-8.846748e-11	-6.832370e+00	3.248553e-02
2.200000e-07	-8.275683e-07	-1.011765e-10	-6.828473e+00	4.795105e-02
2.300000e-07	-8.270839e-07	-1.093259e-10	-6.824476e+00	6.366738e-02
2.400000e-07	-8.265807e-07	-1.112165e-10	-6.820324e+00	7.934182e-02
2.500000e-07	-8.260644e-07	-1.058034e-10	-6.816063e+00	9.471607e-02
2.600000e-07	-8.255399e-07	-9.864822e-11	-6.811736e+00	1.095695e-01
2.700000e-07	-8.249989e-07	-8.973490e-11	-6.807272e+00	1.237204e-01
2.800000e-07	-8.244321e-07	-8.224055e-11	-6.802596e+00	1.370259e-01
2.900000e-07	-8.238456e-07	-9.034881e-11	-6.797756e+00	1.493795e-01
3.000000e-07	-8.232497e-07	-1.038535e-10	-6.792839e+00	1.607078e-01
3.100000e-07	-8.226388e-07	-1.098699e-10	-6.787798e+00	1.709664e-01
3.200000e-07	-8.220003e-07	-1.040533e-10	-6.782530e+00	1.801341e-01
3.300000e-07	-8.213328e-07	-9.327920e-11	-6.777022e+00	1.882075e-01
3.400000e-07	-8.206466e-07	-9.040699e-11	-6.771360e+00	1.951952e-01
3.500000e-07	-8.199386e-07	-9.081758e-11	-6.765518e+00	2.011123e-01
3.600000e-07	-8.192094e-07	-9.050554e-11	-6.759502e+00	2.059754e-01
3.700000e-07	-8.184626e-07	-8.858978e-11	-6.753339e+00	2.097981e-01
3.800000e-07	-8.176881e-07	-8.450835e-11	-6.746949e+00	2.125879e-01
3.900000e-07	-8.168838e-07	-7.942844e-11	-6.740313e+00	2.143437e-01
4.000000e-07	-8.160534e-07	-7.631197e-11	-6.733461e+00	2.150547e-01
4.100000e-07	-8.152020e-07	-7.700322e-11	-6.726435e+00	2.147005e-01
4.200000e-07	-8.143367e-07	-7.423951e-11	-6.719296e+00	2.132520e-01
4.300000e-07	-8.134485e-07	-7.137465e-11	-6.711967e+00	2.106735e-01
4.400000e-07	-8.125393e-07	-7.270477e-11	-6.704465e+00	2.069253e-01
4.500000e-07	-8.116199e-07	-7.461854e-11	-6.696879e+00	2.019677e-01
4.600000e-07	-8.106905e-07	-7.056381e-11	-6.689210e+00	1.957645e-01
4.700000e-07	-8.097551e-07	-6.158656e-11	-6.681491e+00	1.882873e-01
4.800000e-07	-8.088076e-07	-5.705170e-11	-6.673673e+00	1.795197e-01
4.900000e-07	-8.078377e-07	-5.722322e-11	-6.665670e+00	1.694613e-01
5.000000e-07	-8.068315e-07	-5.939454e-11	-6.657368e+00	1.581310e-01
5.100000e-07	-8.057920e-07	-5.850108e-11	-6.648791e+00	1.455700e-01
5.200000e-07	-8.047303e-07	-5.523620e-11	-6.640031e+00	1.318440e-01
5.300000e-07	-8.036393e-07	-5.428529e-11	-6.631029e+00	1.170442e-01
5.400000e-07	-8.025054e-07	-5.412154e-11	-6.621673e+00	1.012880e-01
5.500000e-07	-8.013247e-07	-5.222469e-11	-6.611930e+00	8.471779e-02
5.600000e-07	-8.001093e-07	-4.674536e-11	-6.601902e+00	6.749982e-02
5.700000e-07	-7.988781e-07	-3.950685e-11	-6.591743e+00	4.982111e-02
5.800000e-07	-7.976275e-07	-3.501445e-11	-6.581424e+00	3.188612e-02
5.900000e-07	-7.963380e-07	-3.471746e-11	-6.570784e+00	1.391240e-02
6.000000e-07	-7.950215e-07	-3.762461e-11	-6.559921e+00	-3.874329e-03
6.100000e-07	-7.936967e-07	-4.215633e-11	-6.548990e+00	-2.124566e-02
6.200000e-07	-7.923578e-07	-5.074034e-11	-6.537942e+00	-3.797620e-02
6.300000e-07	-7.910033e-07	-6.052366e-11	-6.526766e+00	-5.384946e-02
6.400000e-07	-7.896316e-07	-6.193810e-11	-6.515448e+00	-6.866365e-02
6.500000e-07	-7.882411e-07	-5.558375e-11	-6.503975e+00	-8.223720e-02
6.600000e-07	-7.868321e-07	-5.049413e-11	-6.492348e+00	-9.441391e-02
6.700000e-07	-7.853928e-07	-5.004172e-11	-6.480472e+00	-1.050673e-01
6.800000e-07	-7.839245e-07	-4.878067e-11	-6.468357e+00	-1.141045e-01
6.900000e-07	-7.824368e-07	-4.625299e-11	-6.456081e+00	-1.214686e-01
7.000000e-07	-7.809354e-07	-4.734591e-11	-6.443693e+00	-1.271407e-01
7.100000e-07	-7.794127e-07	-5.228634e-11	-6.431129e+00	-1.311405e-01
7.200000e-07	-7.778679e-07	-5.743733e-11	-6.418382e+00	-1.335254e-01
7.300000e-07	-7.763074e-07	-5.894121e-11	-6.405506e+00	-1.343889e-01
7.400000e-07	-7.747206e-07	-5.736604e-11	-6.392413e+00	-1.338575e-01
7.500000e-07	-7.730988e-07	-5.701397e-11	-6.379032e+00	-1.320869e-01
7.600000e-07	-7.714493e-07	-5.970942e-11	-6.365421e+00	-1.292568e-01
7.700000e-07	-7.697708e-07	-5.987478e-11	-6.351571e+00	-1.255651e-01
7.800000e-07	-7.680446e-07	-5.552830e-11	-6.337328e+00	-1.212213e-01
7.900000e-07	-7.662883e-07	-5.166280e-11	-6.322836e+00	-1.164396e-01
8.000000e-07	-7.645173e-07	-5.356148e-11	-6.308223e+00	-1.114319e-01
8.100000e-07	-7.627312e-07	-6.070138e-11	-6.293486e+00	-1.064008e-01
8.200000e-07	-7.609269e-07	-6.569762e-11	-6.278598e+00	-1.015325e-01
8.300000e-07	-7.591175e-07	-6.957559e-11	-6.263668e+00	-9.699131e-02
8.400000e-07	-7.572982e-07	-7.290694e-11	-6.248657e+00	-9.291383e-02
8.500000e-07	-7.554517e-07	-7.263743e-11	-6.233421e+00	-8.940528e-02
8.600000e-07	-7.535990e-07	-6.964727e-11	-6.218133e+00	-8.653645e-02
8.700000e-07	-7.517262e-07	-6.360320e-11	-6.202681e+00	-8.434240e-02
8.800000e-07	-7.498240e-07	-5.770716e-11	-6.186986e+00	-8.282260e-02
8.900000e-07	-7.479049e-07	-5.717322e-11	-6.171150e+00	-8.194267e-02
9.000000e-07	-7.459742e-07	-6.074170e-11	-6.155219e+00	-8.163773e-02
9.100000e-07	-7.440305e-07	-6.359494e-11	-6.139182e+00	-8.181714e-02
9.200000e-07	-7.420602e-07	-6.559167e-11	-6.122924e+00	-8.237054e-02
9.300000e-07	-7.400584e-07	-6.619253e-11	-6.106407e+00	-8.317495e-02
9.400000e-07	-7.380404e-07	-6.440497e-11	-6.089756e+00	-8.410266e-02
9.500000e-07	-7.360125e-07	-6.320625e-11	-6.073023e+00	-8.502951e-02
9.600000e-07	-7.339560e-07	-6.071645e-11	-6.056055e+00	-8.584319e-02
9.700000e-07	-7.318778e-07	-5.561292e-11	-6.038907e+00	-8.645129e-02
9.800000e-07	-7.297899e-07	-5.129743e-11	-6.021679e+00	-8.678852e-02
9.900000e-07	-7.276873e-07	-4.893161e-11	-6.004330e+00	-8.682289e-02
1.000000e-06	-7.255783e-07	-4.739498e-11	-5.986927e+00	-8.656037e-02
1.010000e-06	-7.234664e-07	-4.625707e-11	-5.969502e+00	-8.604784e-02
1.020000e-06	-7.213436e-07	-4.774374e-11	-5.951986e+00	-8.537408e-02
1.030000e-06	-7.192131e-07	-5.190140e-11	-5.934407e+00	-8.466866e-02
1.040000e-06	-7.170689e-07	-5.346262e-11	-5.916714e+00	-8.409867e-02
1.050000e-06	-7.149031e-07	-5.008031e-11	-5.898844e+00	-8.386340e-02
1.060000e-06	-7.127256e-07	-4.478126e-11	-5.880877e+00	-8.418705e-02
1.070000e-06	-7.105248e-07	-3.937205e-11	-5.862718e+00	-8.530983e-02
1.080000e-06	-7.082958e-07	-3.292811e-11	-5.844326e+00	-8.747772e-02
1.090000e-06	-7.060523e-07	-2.747391e-11	-5.825814e+00	-9.093137e-02
1.100000e-06	-7.037889e-07	-2.399007e-11	-5.807138e+00	-9.589450e-02
1.110000e-06	-7.015004e-07	-2.467842e-11	-5.788255e+00	-1.025626e-01
1.120000e-06	-6.991922e-07	-2.952161e-11	-5.769209e+00	-1.110921e-01
1.130000e-06	-6.968681e-07	-3.157030e-11	-5.750033e+00	-1.215909e-01
1.140000e-06	-6.945312e-07	-2.819384e-11	-5.730751e+00	-1.341104e-01
1.150000e-06	-6.921808e-07	-2.572038e-11	-5.711357e+00	-1.486400e-01
1.160000e-06	-6.898129e-07	-2.546262e-11	-5.691819e+00	-1.651036e-01
1.170000e-06	-6.874295e-07	-2.299638e-11	-5.672152e+00	-1.833589e-01
1.180000e-06	-6.850252e-07	-1.998437e-11	-5.652314e+00	-2.032001e-01
1.190000e-06	-6.825914e-07	-1.887856e-11	-5.632232e+00	-2.243625e-01
1.200000e-06	-6.801389e-07	-2.056990e-11	-5.611996e+00	-2.465306e-01
1.210000e-06	-6.776710e-07	-2.187190e-11	-5.591633e+00	-2.693479e-01
1.220000e-06	-6.751823e-07	-2.215066e-11	-5.571098e+00	-2.924292e-01
1.230000e-06	-6.726820e-07	-2.528414e-11	-5.550467e+00	-3.153744e-01
1.240000e-06	-6.701787e-07	-3.181413e-11	-5.529812e+00	-3.377826e-01
1.250000e-06	-6.676663e-07	-3.755458e-11	-5.509081e+00	-3.592674e-01
1.260000e-06	-6.651377e-07	-3.971292e-11	-5.488218e+00	-3.794709e-01
1.270000e-06	-6.625935e-07	-3.735868e-11	-5.467225e+00	-3.980777e-01
1.280000e-06	-6.600366e-07	-3.172190e-11	-5.446127e+00	-4.148256e-01
1.290000e-06	-6.574585e-07	-2.625365e-11	-5.424855e+00	-4.295160e-01
1.300000e-06	-6.548562e-07	-2.318958e-11	-5.403382e+00	-4.420199e-01
1.310000e-06	-6.522336e-07	-2.344617e-11	-5.381742e+00	-4.522819e-01
1.320000e-06	-6.495812e-07	-3.006305e-11	-5.359857e+00	-4.603202e-01
1.330000e-06	-6.469078e-07	-4.145462e-11	-5.337798e+00	-4.662240e-01
1.340000e-06	-6.442191e-07	-4.836662e-11	-5.315613e+00	-4.701471e-01
1.350000e-06	-6.414961e-07	-4.895241e-11	-5.293144e+00	-4.722987e-01
1.360000e-06	-6.387342e-07	-4.801150e-11	-5.270355e+00	-4.729322e-01
1.370000e-06	-6.359422e-07	-4.942715e-11	-5.247318e+00	-4.723312e-01
1.380000e-06	-6.331273e-07	-5.096646e-11	-5.224091e+00	-4.707945e-01
1.390000e-06	-6.302918e-07	-4.708061e-11	-5.200695e+00	-4.686210e-01
1.400000e-06	-6.274361e-07	-4.275373e-11	-5.177132e+00	-4.660940e-01
1.410000e-06	-6.245627e-07	-4.423195e-11	-5.153423e+00	-4.634671e-01
1.420000e-06	-6.216743e-07	-4.945300e-11	-5.129590e+00	-4.609510e-01
1.430000e-06	-6.187757e-07	-5.354740e-11	-5.105673e+00	-4.587032e-01
1.440000e-06	-6.158675e-07	-5.269114e-11	-5.081677e+00	-4.568206e-01
1.450000e-06	-6.129565e-07	-5.089467e-11	-5.057657e+00	-4.553347e-01
1.460000e-06	-6.100463e-07	-5.209915e-11	-5.033644e+00	-4.542112e-01
1.470000e-06	-6.071265e-07	-5.144816e-11	-5.009553e+00	-4.533524e-01
1.480000e-06	-6.041921e-07	-4.445625e-11	-4.985340e+00	-4.526035e-01
1.490000e-06	-6.012414e-07	-3.816615e-11	-4.960993e+00	-4.517621e-01
1.500000e-06	-5.982736e-07	-3.900156e-11	-4.936505e+00	-4.505907e-01
1.510000e-06	-5.952873e-07	-4.329803e-11	-4.911864e+00	-4.488303e-01
1.520000e-06	-5.922915e-07	-4.688316e-11	-4.887146e+00	-4.462172e-01
1.530000e-06	-5.892845e-07	-5.045592e-11	-4.862334e+00	-4.424988e-01
1.540000e-06	-5.862612e-07	-5.811811e-11	-4.837388e+00	-4.374504e-01
1.550000e-06	-5.832287e-07	-6.548942e-11	-4.812365e+00	-4.308907e-01
1.560000e-06	-5.801817e-07	-6.412043e-11	-4.787225e+00	-4.226952e-01
1.570000e-06	-5.771160e-07	-5.548206e-11	-4.761929e+00	-4.128071e-01
1.580000e-06	-5.740325e-07	-5.017618e-11	-4.736486e+00	-4.012461e-01
1.590000e-06	-5.709334e-07	-5.095277e-11	-4.710914e+00	-3.881120e-01
1.600000e-06	-5.678249e-07	-5.032678e-11	-4.685265e+00	-3.735855e-01
1.610000e-06	-5.647086e-07	-4.795599e-11	-4.659552e+00	-3.579252e-01
1.620000e-06	-5.615708e-07	-4.800911e-11	-4.633661e+00	-3.414598e-01
1.630000e-06	-5.584213e-07	-5.147702e-11	-4.607674e+00	-3.245773e-01
1.640000e-06	-5.552712e-07	-5.584708e-11	-4.581682e+00	-3.077115e-01
1.650000e-06	-5.521027e-07	-5.503500e-11	-4.555537e+00	-2.913247e-01
1.660000e-06	-5.489176e-07	-5.279263e-11	-4.529256e+00	-2.758900e-01
1.670000e-06	-5.457240e-07	-5.332562e-11	-4.502905e+00	-2.618722e-01
1.680000e-06	-5.425180e-07	-5.467018e-11	-4.476452e+00	-2.497079e-01
1.690000e-06	-5.392963e-07	-5.314268e-11	-4.449869e+00	-2.397878e-01
1.700000e-06	-5.360642e-07	-4.832342e-11	-4.423200e+00	-2.324398e-01
1.710000e-06	-5.328231e-07	-4.507660e-11	-4.396456e+00	-2.279150e-01
1.720000e-06	-5.295654e-07	-4.542863e-11	-4.369576e+00	-2.263767e-01
1.730000e-06	-5.262951e-07	-4.733499e-11	-4.342593e+00	-2.278928e-01
1.740000e-06	-5.230134e-07	-4.305481e-11	-4.315514e+00	-2.324332e-01
1.750000e-06	-5.197174e-07	-3.740392e-11	-4.288318e+00	-2.398704e-01
1.760000e-06	-5.164121e-07	-3.394853e-11	-4.261045e+00	-2.499843e-01
1.770000e-06	-5.131025e-07	-3.007585e-11	-4.233737e+00	-2.624717e-01
1.780000e-06	-5.097806e-07	-2.494072e-11	-4.206327e+00	-2.769582e-01
1.790000e-06	-5.064531e-07	-1.848425e-11	-4.178871e+00	-2.930135e-01
1.800000e-06	-5.031191e-07	-1.828501e-11	-4.151362e+00	-3.101690e-01
1.810000e-06	-4.997690e-07	-2.483677e-11	-4.123719e+00	-3.279360e-01
1.820000e-06	-4.964060e-07	-3.157858e-11	-4.095970e+00	-3.458249e-01
1.830000e-06	-4.930357e-07	-3.247437e-11	-4.068161e+00	-3.633641e-01
1.840000e-06	-4.896548e-07	-3.073042e-11	-4.040264e+00	-3.801167e-01
1.850000e-06	-4.862509e-07	-3.205190e-11	-4.012177e+00	-3.956962e-01
1.860000e-06	-4.828291e-07	-3.299023e-11	-3.983944e+00	-4.097785e-01
1.870000e-06	-4.793860e-07	-3.066256e-11	-3.955533e+00	-4.221115e-01
1.880000e-06	-4.759241e-07	-2.629598e-11	-3.926968e+00	-4.325203e-01
1.890000e-06	-4.724539e-07	-2.601037e-11	-3.898336e+00	-4.409089e-01
1.900000e-06	-4.689685e-07	-2.896526e-11	-3.869577e+00	-4.472585e-01
1.910000e-06	-4.654571e-07	-2.974674e-11	-3.840603e+00	-4.516216e-01
1.920000e-06	-4.619239e-07	-2.998852e-11	-3.811450e+00	-4.541133e-01
1.930000e-06	-4.583609e-07	-3.314562e-11	-3.782050e+00	-4.549000e-01
1.940000e-06	-4.547659e-07	-3.894580e-11	-3.752387e+00	-4.541858e-01
1.950000e-06	-4.511612e-07	-4.278234e-11	-3.722644e+00	-4.521981e-01
1.960000e-06	-4.475530e-07	-4.474991e-11	-3.692872e+00	-4.491722e-01
1.970000e-06	-4.439310e-07	-4.531358e-11	-3.662985e+00	-4.453369e-01
1.980000e-06	-4.402876e-07	-4.356773e-11	-3.632923e+00	-4.409005e-01
1.990000e-06	-4.366222e-07	-4.156166e-11	-3.602679e+00	-4.360390e-01
2.000000e-06	-4.329512e-07	-3.841583e-11	-3.572389e+00	-4.308871e-01
2.010000e-06	-4.292812e-07	-3.674277e-11	-3.542106e+00	-4.255308e-01
2.020000e-06	-4.255968e-07	-3.834499e-11	-3.511705e+00	-4.200045e-01
2.030000e-06	-4.218985e-07	-4.264396e-11	-3.481190e+00	-4.142905e-01
2.040000e-06	-4.181949e-07	-4.783633e-11	-3.450631e+00	-4.083218e-01
2.050000e-06	-4.144919e-07	-5.216747e-11	-3.420076e+00	-4.019881e-01
2.060000e-06	-4.107865e-07	-5.697530e-11	-3.389502e+00	-3.951445e-01
2.070000e-06	-4.070696e-07	-5.925929e-11	-3.358833e+00	-3.876216e-01
2.080000e-06	-4.033386e-07	-5.791678e-11	-3.328047e+00	-3.792381e-01
2.090000e-06	-3.996051e-07	-5.364853e-11	-3.297242e+00	-3.698133e-01
2.100000e-06	-3.958762e-07	-5.110660e-11	-3.266474e+00	-3.591802e-01
2.110000e-06	-3.921454e-07	-5.394166e-11	-3.235690e+00	-3.471981e-01
2.120000e-06	-3.884007e-07	-6.133157e-11	-3.204791e+00	-3.337635e-01
2.130000e-06	-3.846409e-07	-7.077436e-11	-3.173768e+00	-3.188193e-01
2.140000e-06	-3.808836e-07	-7.609131e-11	-3.142766e+00	-3.023621e-01
2.150000e-06	-3.771311e-07	-7.847245e-11	-3.111803e+00	-2.844462e-01
2.160000e-06	-3.733620e-07	-8.030609e-11	-3.080703e+00	-2.651849e-01
2.170000e-06	-3.695662e-07	-7.967274e-11	-3.049383e+00	-2.447491e-01
2.180000e-06	-3.657586e-07	-7.711217e-11	-3.017966e+00	-2.233629e-01
2.190000e-06	-3.619479e-07	-7.495302e-11	-2.986523e+00	-2.012961e-01
2.200000e-06	-3.581358e-07	-7.544827e-11	-2.955068e+00	-1.788554e-01
2.210000e-06	-3.543165e-07	-7.568812e-11	-2.923554e+00	-1.563730e-01
2.220000e-06	-3.504788e-07	-7.432629e-11	-2.891888e+00	-1.341944e-01
2.230000e-06	-3.466260e-07	-7.546272e-11	-2.860098e+00	-1.126656e-01
2.240000e-06	-3.427669e-07	-8.011351e-11	-2.828255e+00	-9.212034e-02
2.250000e-06	-3.389017e-07	-8.268065e-11	-2.796363e+00	-7.286769e-02
2.260000e-06	-3.350299e-07	-8.036722e-11	-2.764416e+00	-5.518141e-02
2.270000e-06	-3.311462e-07	-7.566645e-11	-2.732370e+00	-3.929058e-02
2.280000e-06	-3.272514e-07	-7.198470e-11	-2.700233e+00	-2.537256e-02
2.290000e-06	-3.233505e-07	-6.943944e-11	-2.668046e+00	-1.354826e-02
2.300000e-06	-3.194381e-07	-6.612087e-11	-2.635764e+00	-3.880009e-03
2.310000e-06	-3.155192e-07	-6.314810e-11	-2.603427e+00	3.628152e-03
2.320000e-06	-3.115893e-07	-6.274306e-11	-2.571001e+00	9.027615e-03
2.330000e-06	-3.076458e-07	-6.602906e-11	-2.538462e+00	1.242024e-02
2.340000e-06	-3.036999e-07	-6.866703e-11	-2.505904e+00	1.395152e-02
2.350000e-06	-2.997546e-07	-6.413797e-11	-2.473350e+00	1.380226e-02
2.360000e-06	-2.958045e-07	-5.677218e-11	-2.440757e+00	1.217941e-02
2.370000e-06	-2.918465e-07	-5.308018e-11	-2.408099e+00	9.306284e-03
2.380000e-06	-2.878869e-07	-4.705230e-11	-2.375427e+00	5.413016e-03
2.390000e-06	-2.839257e-07	-3.433627e-11	-2.342742e+00	7.273876e-04
2.400000e-06	-2.799464e-07	-2.328901e-11	-2.309908e+00	-4.533277e-03
2.410000e-06	-2.759516e-07	-2.232213e-11	-2.276945e+00	-1.016895e-02
2.420000e-06	-2.719541e-07	-2.792844e-11	-2.243961e+00	-1.600211e-02
2.430000e-06	-2.679416e-07	-2.904123e-11	-2.210853e+00	-2.188129e-02
2.440000e-06	-2.639150e-07	-2.470870e-11	-2.177629e+00	-2.768270e-02
2.450000e-06	-2.598882e-07	-2.340263e-11	-2.144402e+00	-3.331018e-02
2.460000e-06	-2.558550e-07	-2.375010e-11	-2.111124e+00	-3.869352e-02
2.470000e-06	-2.518181e-07	-1.822901e-11	-2.077814e+00	-4.378536e-02
2.480000e-06	-2.477811e-07	-6.623098e-12	-2.044504e+00	-4.855703e-02
2.490000e-06	-2.437311e-07	4.563874e-12	-2.011086e+00	-5.299366e-02
2.500000e-06	-2.396700e-07	7.102879e-12	-1.977577e+00	-5.708890e-02
2.510000e-06	-2.356043e-07	4.286226e-12	-1.944030e+00	-6.083966e-02
2.520000e-06	-2.315265e-07	6.036221e-12	-1.910383e+00	-6.424119e-02
2.530000e-06	-2.274407e-07	8.701209e-12	-1.876670e+00	-6.728289e-02
2.540000e-06	-2.233611e-07	4.527158e-12	-1.843008e+00	-6.994500e-02
2.550000e-06	-2.192841e-07	-1.327139e-12	-1.809368e+00	-7.219646e-02
2.560000e-06	-2.152016e-07	1.782213e-14	-1.775682e+00	-7.399397e-02
2.570000e-06	-2.111133e-07	7.786269e-12	-1.741949e+00	-7.528229e-02
2.580000e-06	-2.070209e-07	1.418312e-11	-1.708181e+00	-7.599576e-02
2.590000e-06	-2.029231e-07	1.547866e-11	-1.674369e+00	-7.606085e-02
2.600000e-06	-1.988202e-07	1.883627e-11	-1.640515e+00	-7.539954e-02
2.610000e-06	-1.947167e-07	2.246713e-11	-1.606656e+00	-7.393338e-02
2.620000e-06	-1.906092e-07	1.863841e-11	-1.572764e+00	-7.158776e-02
2.630000e-06	-1.864957e-07	9.152858e-12	-1.538822e+00	-6.829626e-02
2.640000e-06	-1.823859e-07	2.459678e-12	-1.504911e+00	-6.400476e-02
2.650000e-06	-1.782731e-07	2.723287e-12	-1.470976e+00	-5.867495e-02
2.660000e-06	-1.741529e-07	3.441343e-12	-1.436979e+00	-5.228715e-02
2.670000e-06	-1.700348e-07	8.639130e-13	-1.403000e+00	-4.484221e-02
2.680000e-06	-1.659152e-07	2.832073e-14	-1.369008e+00	-3.636233e-02
2.690000e-06	-1.617912e-07	4.633819e-12	-1.334979e+00	-2.689093e-02
2.700000e-06	-1.576675e-07	8.349697e-12	-1.300954e+00	-1.649145e-02
2.710000e-06	-1.535452e-07	5.734822e-12	-1.266940e+00	-5.245259e-03
2.720000e-06	-1.494209e-07	9.436029e-13	-1.232909e+00	6.751145e-03
2.730000e-06	-1.452911e-07	-6.969789e-13	-1.198833e+00	1.938947e-02
2.740000e-06	-1.411550e-07	-1.130937e-12	-1.164705e+00	3.255323e-02
2.750000e-06	-1.370137e-07	-6.483117e-12	-1.130535e+00	4.612139e-02
2.760000e-06	-1.328746e-07	-1.570971e-11	-1.096382e+00	5.997176e-02
2.770000e-06	-1.287407e-07	-1.943088e-11	-1.062272e+00	7.398393e-02
2.780000e-06	-1.246035e-07	-1.333631e-11	-1.028134e+00	8.804159e-02
2.790000e-06	-1.204619e-07	-6.764043e-12	-9.939614e-01	1.020340e-01
2.800000e-06	-1.163202e-07	-6.317989e-12	-9.597872e-01	1.158568e-01
2.810000e-06	-1.121737e-07	-9.091115e-12	-9.255728e-01	1.294114e-01
2.820000e-06	-1.080189e-07	-1.242184e-11	-8.912910e-01	1.426044e-01
2.830000e-06	-1.038675e-07	-1.467265e-11	-8.570370e-01	1.553460e-01
2.840000e-06	-9.972363e-08	-1.635721e-11	-8.228446e-01	1.675471e-01
2.850000e-06	-9.557982e-08	-1.733191e-11	-7.886530e-01	1.791177e-01
2.860000e-06	-9.143405e-08	-1.700727e-11	-7.544452e-01	1.899642e-01
