# Temperatura_=_20.0
# Concentracion g/m^3_=_10000.0
# C_Vs_to_Am_M_A/Vsm_=_65563218390.804596
# pendiente_HvsI_1/m_=_3716.3
# ordenada_HvsI_A/m_=_1297.0
# frecuencia_Hz_=_81114.5421191048

Tiempo_(s)	Campo_(V.s)	Magnetizacion_(V.s)	Campo_(kA/m)	Magnetizacion_(A/m)
0.000000e+00	-8.323705e-07	-1.250819e-09	-6.869580e+00	-8.189556e+01
1.000000e-08	-8.323609e-07	-1.260196e-09	-6.869501e+00	-8.193393e+01
2.000000e-08	-8.323456e-07	-1.264471e-09	-6.869375e+00	-8.199350e+01
3.000000e-08	-8.323216e-07	-1.264466e-09	-6.869176e+00	-8.207356e+01
4.000000e-08	-8.322735e-07	-1.261887e-09	-6.868779e+00	-8.217312e+01
5.000000e-08	-8.322064e-07	-1.256488e-09	-6.868226e+00	-8.229099e+01
6.000000e-08	-8.321266e-07	-1.251191e-09	-6.867567e+00	-8.242583e+01
7.000000e-08	-8.320267e-07	-1.258148e-09	-6.866743e+00	-8.257618e+01
8.000000e-08	-8.319098e-07	-1.264396e-09	-6.865778e+00	-8.274048e+01
9.000000e-08	-8.317801e-07	-1.262650e-09	-6.864707e+00	-8.291714e+01
1.000000e-07	-8.316311e-07	-1.264759e-09	-6.863478e+00	-8.310457e+01
1.100000e-07	-8.314646e-07	-1.266206e-09	-6.862103e+00	-8.330118e+01
1.200000e-07	-8.312801e-07	-1.270003e-09	-6.860581e+00	-8.350544e+01
1.300000e-07	-8.310588e-07	-1.282942e-09	-6.858755e+00	-8.371583e+01
1.400000e-07	-8.308066e-07	-1.299552e-09	-6.856673e+00	-8.393094e+01
1.500000e-07	-8.305326e-07	-1.311871e-09	-6.854412e+00	-8.414936e+01
1.600000e-07	-8.302231e-07	-1.307415e-09	-6.851857e+00	-8.436977e+01
1.700000e-07	-8.298849e-07	-1.290149e-09	-6.849066e+00	-8.459086e+01
1.800000e-07	-8.295170e-07	-1.267426e-09	-6.846030e+00	-8.481136e+01
1.900000e-07	-8.291120e-07	-1.254186e-09	-6.842687e+00	-8.503000e+01
2.000000e-07	-8.286731e-07	-1.263246e-09	-6.839065e+00	-8.524551e+01
2.100000e-07	-8.282040e-07	-1.285820e-09	-6.835193e+00	-8.545659e+01
2.200000e-07	-8.277123e-07	-1.322982e-09	-6.831136e+00	-8.566189e+01
2.300000e-07	-8.272087e-07	-1.347393e-09	-6.826980e+00	-8.586003e+01
2.400000e-07	-8.266971e-07	-1.353973e-09	-6.822757e+00	-8.604958e+01
2.500000e-07	-8.261736e-07	-1.339545e-09	-6.818436e+00	-8.622903e+01
2.600000e-07	-8.256410e-07	-1.312457e-09	-6.814041e+00	-8.639685e+01
2.700000e-07	-8.251046e-07	-1.301558e-09	-6.809614e+00	-8.655146e+01
2.800000e-07	-8.245486e-07	-1.292671e-09	-6.805026e+00	-8.669127e+01
2.900000e-07	-8.239724e-07	-1.304138e-09	-6.800270e+00	-8.681468e+01
3.000000e-07	-8.233781e-07	-1.324080e-09	-6.795365e+00	-8.692015e+01
3.100000e-07	-8.227543e-07	-1.332237e-09	-6.790217e+00	-8.700617e+01
3.200000e-07	-8.221061e-07	-1.340752e-09	-6.784867e+00	-8.707134e+01
3.300000e-07	-8.214369e-07	-1.336604e-09	-6.779345e+00	-8.711440e+01
3.400000e-07	-8.207588e-07	-1.328461e-09	-6.773748e+00	-8.713424e+01
3.500000e-07	-8.200573e-07	-1.321686e-09	-6.767959e+00	-8.712994e+01
3.600000e-07	-8.193204e-07	-1.320736e-09	-6.761877e+00	-8.710082e+01
3.700000e-07	-8.185675e-07	-1.326393e-09	-6.755663e+00	-8.704643e+01
3.800000e-07	-8.177992e-07	-1.331270e-09	-6.749323e+00	-8.696660e+01
3.900000e-07	-8.170053e-07	-1.332618e-09	-6.742770e+00	-8.686144e+01
4.000000e-07	-8.161792e-07	-1.320187e-09	-6.735953e+00	-8.673135e+01
4.100000e-07	-8.153391e-07	-1.309509e-09	-6.729019e+00	-8.657701e+01
4.200000e-07	-8.144849e-07	-1.298556e-09	-6.721969e+00	-8.639937e+01
4.300000e-07	-8.136005e-07	-1.300537e-09	-6.714671e+00	-8.619966e+01
4.400000e-07	-8.126982e-07	-1.312378e-09	-6.707223e+00	-8.597938e+01
4.500000e-07	-8.117873e-07	-1.317698e-09	-6.699706e+00	-8.574020e+01
4.600000e-07	-8.108697e-07	-1.315311e-09	-6.692133e+00	-8.548404e+01
4.700000e-07	-8.099398e-07	-1.296667e-09	-6.684459e+00	-8.521295e+01
4.800000e-07	-8.089933e-07	-1.281839e-09	-6.676648e+00	-8.492911e+01
4.900000e-07	-8.080190e-07	-1.271616e-09	-6.668606e+00	-8.463480e+01
5.000000e-07	-8.070193e-07	-1.268386e-09	-6.660356e+00	-8.433236e+01
5.100000e-07	-8.059942e-07	-1.268954e-09	-6.651896e+00	-8.402415e+01
5.200000e-07	-8.049422e-07	-1.267693e-09	-6.643214e+00	-8.371251e+01
5.300000e-07	-8.038686e-07	-1.273666e-09	-6.634353e+00	-8.339974e+01
5.400000e-07	-8.027595e-07	-1.273631e-09	-6.625200e+00	-8.308808e+01
5.500000e-07	-8.016119e-07	-1.265808e-09	-6.615728e+00	-8.277966e+01
5.600000e-07	-8.004211e-07	-1.250664e-09	-6.605901e+00	-8.247649e+01
5.700000e-07	-7.991978e-07	-1.237509e-09	-6.595804e+00	-8.218044e+01
5.800000e-07	-7.979461e-07	-1.234194e-09	-6.585474e+00	-8.189324e+01
5.900000e-07	-7.966677e-07	-1.231513e-09	-6.574924e+00	-8.161645e+01
6.000000e-07	-7.953728e-07	-1.229284e-09	-6.564237e+00	-8.135145e+01
6.100000e-07	-7.940546e-07	-1.227170e-09	-6.553358e+00	-8.109943e+01
6.200000e-07	-7.927238e-07	-1.232637e-09	-6.542374e+00	-8.086140e+01
6.300000e-07	-7.913842e-07	-1.238916e-09	-6.531319e+00	-8.063820e+01
6.400000e-07	-7.900170e-07	-1.238658e-09	-6.520035e+00	-8.043046e+01
6.500000e-07	-7.886233e-07	-1.234182e-09	-6.508533e+00	-8.023862e+01
6.600000e-07	-7.872213e-07	-1.228483e-09	-6.496962e+00	-8.006294e+01
6.700000e-07	-7.858047e-07	-1.227338e-09	-6.485271e+00	-7.990351e+01
6.800000e-07	-7.843564e-07	-1.222426e-09	-6.473318e+00	-7.976021e+01
6.900000e-07	-7.828819e-07	-1.217739e-09	-6.461149e+00	-7.963279e+01
7.000000e-07	-7.813761e-07	-1.217193e-09	-6.448721e+00	-7.952078e+01
7.100000e-07	-7.798502e-07	-1.222273e-09	-6.436129e+00	-7.942360e+01
7.200000e-07	-7.783080e-07	-1.229339e-09	-6.423401e+00	-7.934049e+01
7.300000e-07	-7.767417e-07	-1.227418e-09	-6.410473e+00	-7.927057e+01
7.400000e-07	-7.751639e-07	-1.221910e-09	-6.397452e+00	-7.921282e+01
7.500000e-07	-7.735536e-07	-1.216498e-09	-6.384162e+00	-7.916609e+01
7.600000e-07	-7.719028e-07	-1.215067e-09	-6.370538e+00	-7.912915e+01
7.700000e-07	-7.702325e-07	-1.213239e-09	-6.356753e+00	-7.910066e+01
7.800000e-07	-7.685300e-07	-1.209145e-09	-6.342702e+00	-7.907921e+01
7.900000e-07	-7.667924e-07	-1.207372e-09	-6.328362e+00	-7.906334e+01
8.000000e-07	-7.650356e-07	-1.207579e-09	-6.313863e+00	-7.905152e+01
8.100000e-07	-7.632518e-07	-1.212174e-09	-6.299141e+00	-7.904218e+01
8.200000e-07	-7.614394e-07	-1.215789e-09	-6.284183e+00	-7.903376e+01
8.300000e-07	-7.596111e-07	-1.220351e-09	-6.269095e+00	-7.902467e+01
8.400000e-07	-7.577685e-07	-1.224790e-09	-6.253887e+00	-7.901330e+01
8.500000e-07	-7.559161e-07	-1.226372e-09	-6.238599e+00	-7.899811e+01
8.600000e-07	-7.540575e-07	-1.223652e-09	-6.223260e+00	-7.897752e+01
8.700000e-07	-7.521858e-07	-1.214601e-09	-6.207813e+00	-7.895003e+01
8.800000e-07	-7.502920e-07	-1.208567e-09	-6.192184e+00	-7.891415e+01
8.900000e-07	-7.483778e-07	-1.204505e-09	-6.176385e+00	-7.886845e+01
9.000000e-07	-7.464441e-07	-1.202167e-09	-6.160427e+00	-7.881154e+01
9.100000e-07	-7.444824e-07	-1.201529e-09	-6.144237e+00	-7.874210e+01
9.200000e-07	-7.424988e-07	-1.202790e-09	-6.127866e+00	-7.865887e+01
9.300000e-07	-7.404925e-07	-1.206247e-09	-6.111308e+00	-7.856069e+01
9.400000e-07	-7.384623e-07	-1.204021e-09	-6.094553e+00	-7.844644e+01
9.500000e-07	-7.364203e-07	-1.200649e-09	-6.077700e+00	-7.831512e+01
9.600000e-07	-7.343673e-07	-1.195872e-09	-6.060756e+00	-7.816585e+01
9.700000e-07	-7.322972e-07	-1.189159e-09	-6.043672e+00	-7.799783e+01
9.800000e-07	-7.302099e-07	-1.183934e-09	-6.026445e+00	-7.781043e+01
9.900000e-07	-7.281042e-07	-1.179406e-09	-6.009067e+00	-7.760313e+01
1.000000e-06	-7.259911e-07	-1.177777e-09	-5.991627e+00	-7.737561e+01
1.010000e-06	-7.238675e-07	-1.177314e-09	-5.974102e+00	-7.712770e+01
1.020000e-06	-7.217307e-07	-1.178154e-09	-5.956466e+00	-7.685941e+01
1.030000e-06	-7.195850e-07	-1.177231e-09	-5.938758e+00	-7.657097e+01
1.040000e-06	-7.174299e-07	-1.171502e-09	-5.920971e+00	-7.626283e+01
1.050000e-06	-7.152634e-07	-1.163621e-09	-5.903091e+00	-7.593561e+01
1.060000e-06	-7.130720e-07	-1.155431e-09	-5.885006e+00	-7.559020e+01
1.070000e-06	-7.108633e-07	-1.148473e-09	-5.866777e+00	-7.522767e+01
1.080000e-06	-7.086450e-07	-1.139787e-09	-5.848469e+00	-7.484931e+01
1.090000e-06	-7.064042e-07	-1.131409e-09	-5.829976e+00	-7.445660e+01
1.100000e-06	-7.041469e-07	-1.124741e-09	-5.811347e+00	-7.405119e+01
1.110000e-06	-7.018653e-07	-1.120555e-09	-5.792516e+00	-7.363488e+01
1.120000e-06	-6.995517e-07	-1.118764e-09	-5.773422e+00	-7.320961e+01
1.130000e-06	-6.972268e-07	-1.113490e-09	-5.754235e+00	-7.277737e+01
1.140000e-06	-6.948901e-07	-1.105085e-09	-5.734950e+00	-7.234024e+01
1.150000e-06	-6.925360e-07	-1.097817e-09	-5.715522e+00	-7.190031e+01
1.160000e-06	-6.901716e-07	-1.093117e-09	-5.696008e+00	-7.145961e+01
1.170000e-06	-6.877953e-07	-1.085758e-09	-5.676396e+00	-7.102016e+01
1.180000e-06	-6.853978e-07	-1.078196e-09	-5.656609e+00	-7.058384e+01
1.190000e-06	-6.829802e-07	-1.072926e-09	-5.636657e+00	-7.015243e+01
1.200000e-06	-6.805433e-07	-1.066837e-09	-5.616545e+00	-6.972755e+01
1.210000e-06	-6.780862e-07	-1.059257e-09	-5.596267e+00	-6.931062e+01
1.220000e-06	-6.756090e-07	-1.052212e-09	-5.575822e+00	-6.890289e+01
1.230000e-06	-6.731147e-07	-1.049084e-09	-5.555237e+00	-6.850540e+01
1.240000e-06	-6.706037e-07	-1.047556e-09	-5.534513e+00	-6.811901e+01
1.250000e-06	-6.680770e-07	-1.044596e-09	-5.513661e+00	-6.774434e+01
1.260000e-06	-6.655449e-07	-1.039264e-09	-5.492763e+00	-6.738188e+01
1.270000e-06	-6.630132e-07	-1.033175e-09	-5.471868e+00	-6.703193e+01
1.280000e-06	-6.604723e-07	-1.025821e-09	-5.450899e+00	-6.669467e+01
1.290000e-06	-6.579094e-07	-1.016648e-09	-5.429747e+00	-6.637016e+01
1.300000e-06	-6.553217e-07	-1.010932e-09	-5.408391e+00	-6.605839e+01
1.310000e-06	-6.527120e-07	-1.008042e-09	-5.386853e+00	-6.575930e+01
1.320000e-06	-6.500924e-07	-1.007736e-09	-5.365233e+00	-6.547280e+01
1.330000e-06	-6.474528e-07	-1.009635e-09	-5.343449e+00	-6.519882e+01
1.340000e-06	-6.447854e-07	-1.009357e-09	-5.321434e+00	-6.493731e+01
1.350000e-06	-6.420878e-07	-1.006540e-09	-5.299170e+00	-6.468825e+01
1.360000e-06	-6.393465e-07	-1.003212e-09	-5.276547e+00	-6.445169e+01
1.370000e-06	-6.365732e-07	-1.000824e-09	-5.253659e+00	-6.422770e+01
1.380000e-06	-6.337845e-07	-9.950552e-10	-5.230643e+00	-6.401644e+01
1.390000e-06	-6.309786e-07	-9.852917e-10	-5.207486e+00	-6.381804e+01
1.400000e-06	-6.281458e-07	-9.775846e-10	-5.184107e+00	-6.363269e+01
1.410000e-06	-6.252827e-07	-9.745457e-10	-5.160478e+00	-6.346053e+01
1.420000e-06	-6.224028e-07	-9.743048e-10	-5.136710e+00	-6.330165e+01
1.430000e-06	-6.195148e-07	-9.735860e-10	-5.112875e+00	-6.315607e+01
1.440000e-06	-6.166162e-07	-9.737290e-10	-5.088953e+00	-6.302369e+01
1.450000e-06	-6.137055e-07	-9.747214e-10	-5.064931e+00	-6.290424e+01
1.460000e-06	-6.107838e-07	-9.741162e-10	-5.040818e+00	-6.279727e+01
1.470000e-06	-6.078514e-07	-9.699240e-10	-5.016617e+00	-6.270211e+01
1.480000e-06	-6.049087e-07	-9.615391e-10	-4.992330e+00	-6.261785e+01
1.490000e-06	-6.019577e-07	-9.545823e-10	-4.967976e+00	-6.254334e+01
1.500000e-06	-5.989962e-07	-9.513022e-10	-4.943534e+00	-6.247715e+01
1.510000e-06	-5.960199e-07	-9.499430e-10	-4.918971e+00	-6.241760e+01
1.520000e-06	-5.930227e-07	-9.494619e-10	-4.894235e+00	-6.236278e+01
1.530000e-06	-5.900132e-07	-9.514616e-10	-4.869397e+00	-6.231053e+01
1.540000e-06	-5.869939e-07	-9.558275e-10	-4.844479e+00	-6.225850e+01
1.550000e-06	-5.839591e-07	-9.567008e-10	-4.819433e+00	-6.220421e+01
1.560000e-06	-5.809127e-07	-9.520453e-10	-4.794291e+00	-6.214505e+01
1.570000e-06	-5.778560e-07	-9.452820e-10	-4.769064e+00	-6.207835e+01
1.580000e-06	-5.747831e-07	-9.400149e-10	-4.743703e+00	-6.200143e+01
1.590000e-06	-5.716883e-07	-9.362658e-10	-4.718162e+00	-6.191168e+01
1.600000e-06	-5.685800e-07	-9.321443e-10	-4.692509e+00	-6.180658e+01
1.610000e-06	-5.654610e-07	-9.299296e-10	-4.666767e+00	-6.168378e+01
1.620000e-06	-5.623273e-07	-9.293481e-10	-4.640905e+00	-6.154113e+01
1.630000e-06	-5.591792e-07	-9.292747e-10	-4.614923e+00	-6.137672e+01
1.640000e-06	-5.560177e-07	-9.305221e-10	-4.588832e+00	-6.118896e+01
1.650000e-06	-5.528462e-07	-9.277918e-10	-4.562657e+00	-6.097657e+01
1.660000e-06	-5.496686e-07	-9.223262e-10	-4.536432e+00	-6.073859e+01
1.670000e-06	-5.464862e-07	-9.167785e-10	-4.510168e+00	-6.047445e+01
1.680000e-06	-5.432888e-07	-9.105151e-10	-4.483780e+00	-6.018391e+01
1.690000e-06	-5.400747e-07	-9.024785e-10	-4.457253e+00	-5.986709e+01
1.700000e-06	-5.368485e-07	-8.936187e-10	-4.430628e+00	-5.952446e+01
1.710000e-06	-5.336008e-07	-8.877843e-10	-4.403824e+00	-5.915682e+01
1.720000e-06	-5.303383e-07	-8.842376e-10	-4.376898e+00	-5.876525e+01
1.730000e-06	-5.270674e-07	-8.823082e-10	-4.349904e+00	-5.835111e+01
1.740000e-06	-5.237821e-07	-8.776956e-10	-4.322790e+00	-5.791601e+01
1.750000e-06	-5.204805e-07	-8.726995e-10	-4.295542e+00	-5.746174e+01
1.760000e-06	-5.171645e-07	-8.676623e-10	-4.268175e+00	-5.699027e+01
1.770000e-06	-5.138435e-07	-8.577834e-10	-4.240767e+00	-5.650372e+01
1.780000e-06	-5.105200e-07	-8.445527e-10	-4.213338e+00	-5.600427e+01
1.790000e-06	-5.071922e-07	-8.314690e-10	-4.185873e+00	-5.549420e+01
1.800000e-06	-5.038571e-07	-8.230852e-10	-4.158348e+00	-5.497580e+01
1.810000e-06	-5.005095e-07	-8.174094e-10	-4.130721e+00	-5.445136e+01
1.820000e-06	-4.971508e-07	-8.127561e-10	-4.103001e+00	-5.392318e+01
1.830000e-06	-4.937790e-07	-8.083613e-10	-4.075173e+00	-5.339349e+01
1.840000e-06	-4.903975e-07	-8.027065e-10	-4.047266e+00	-5.286447e+01
1.850000e-06	-4.870117e-07	-7.961668e-10	-4.019323e+00	-5.233821e+01
1.860000e-06	-4.836077e-07	-7.854729e-10	-3.991229e+00	-5.181671e+01
1.870000e-06	-4.801761e-07	-7.731144e-10	-3.962908e+00	-5.130186e+01
1.880000e-06	-4.767237e-07	-7.631278e-10	-3.934415e+00	-5.079544e+01
1.890000e-06	-4.732635e-07	-7.573976e-10	-3.905859e+00	-5.029909e+01
1.900000e-06	-4.697978e-07	-7.536076e-10	-3.877256e+00	-4.981432e+01
1.910000e-06	-4.663096e-07	-7.470546e-10	-3.848468e+00	-4.934249e+01
1.920000e-06	-4.627866e-07	-7.407939e-10	-3.819392e+00	-4.888480e+01
1.930000e-06	-4.592401e-07	-7.377769e-10	-3.790123e+00	-4.844232e+01
1.940000e-06	-4.556821e-07	-7.356851e-10	-3.760759e+00	-4.801595e+01
1.950000e-06	-4.520973e-07	-7.296761e-10	-3.731173e+00	-4.760640e+01
1.960000e-06	-4.484750e-07	-7.230626e-10	-3.701279e+00	-4.721426e+01
1.970000e-06	-4.448510e-07	-7.203165e-10	-3.671369e+00	-4.683991e+01
1.980000e-06	-4.412207e-07	-7.164419e-10	-3.641408e+00	-4.648360e+01
1.990000e-06	-4.375625e-07	-7.093417e-10	-3.611217e+00	-4.614540e+01
2.000000e-06	-4.338884e-07	-7.018573e-10	-3.580894e+00	-4.582521e+01
2.010000e-06	-4.301989e-07	-6.967838e-10	-3.550445e+00	-4.552278e+01
2.020000e-06	-4.265012e-07	-6.926345e-10	-3.519928e+00	-4.523772e+01
2.030000e-06	-4.227988e-07	-6.886076e-10	-3.489372e+00	-4.496948e+01
2.040000e-06	-4.190934e-07	-6.869532e-10	-3.458791e+00	-4.471736e+01
2.050000e-06	-4.153830e-07	-6.890723e-10	-3.428169e+00	-4.448056e+01
2.060000e-06	-4.116644e-07	-6.932699e-10	-3.397479e+00	-4.425812e+01
2.070000e-06	-4.079394e-07	-6.907147e-10	-3.366736e+00	-4.404896e+01
2.080000e-06	-4.042079e-07	-6.823434e-10	-3.335940e+00	-4.385193e+01
2.090000e-06	-4.004705e-07	-6.745941e-10	-3.305096e+00	-4.366571e+01
2.100000e-06	-3.967290e-07	-6.674593e-10	-3.274217e+00	-4.348893e+01
2.110000e-06	-3.929829e-07	-6.617245e-10	-3.243300e+00	-4.332009e+01
2.120000e-06	-3.892322e-07	-6.594307e-10	-3.212346e+00	-4.315760e+01
2.130000e-06	-3.854783e-07	-6.611013e-10	-3.181364e+00	-4.299981e+01
2.140000e-06	-3.817160e-07	-6.629804e-10	-3.150314e+00	-4.284494e+01
2.150000e-06	-3.779409e-07	-6.632992e-10	-3.119158e+00	-4.269118e+01
2.160000e-06	-3.741547e-07	-6.620457e-10	-3.087911e+00	-4.253660e+01
2.170000e-06	-3.703702e-07	-6.601322e-10	-3.056677e+00	-4.237924e+01
2.180000e-06	-3.665814e-07	-6.571093e-10	-3.025408e+00	-4.221709e+01
2.190000e-06	-3.627695e-07	-6.508883e-10	-2.993948e+00	-4.204808e+01
2.200000e-06	-3.589467e-07	-6.452385e-10	-2.962398e+00	-4.187014e+01
2.210000e-06	-3.551111e-07	-6.415598e-10	-2.930743e+00	-4.168118e+01
2.220000e-06	-3.512557e-07	-6.379671e-10	-2.898925e+00	-4.147916e+01
2.230000e-06	-3.473966e-07	-6.346759e-10	-2.867075e+00	-4.126208e+01
2.240000e-06	-3.435271e-07	-6.344782e-10	-2.835140e+00	-4.102800e+01
2.250000e-06	-3.396422e-07	-6.359630e-10	-2.803078e+00	-4.077512e+01
2.260000e-06	-3.357516e-07	-6.330346e-10	-2.770968e+00	-4.050177e+01
2.270000e-06	-3.318579e-07	-6.262627e-10	-2.738833e+00	-4.020647e+01
2.280000e-06	-3.279605e-07	-6.175782e-10	-2.706669e+00	-3.988795e+01
2.290000e-06	-3.240551e-07	-6.089811e-10	-2.674437e+00	-3.954516e+01
2.300000e-06	-3.201399e-07	-6.015709e-10	-2.642125e+00	-3.917736e+01
2.310000e-06	-3.162210e-07	-5.950077e-10	-2.609782e+00	-3.878407e+01
2.320000e-06	-3.122905e-07	-5.906419e-10	-2.577343e+00	-3.836513e+01
2.330000e-06	-3.083513e-07	-5.873648e-10	-2.544833e+00	-3.792069e+01
2.340000e-06	-3.044096e-07	-5.850799e-10	-2.512302e+00	-3.745125e+01
2.350000e-06	-3.004637e-07	-5.805230e-10	-2.479736e+00	-3.695760e+01
2.360000e-06	-2.965155e-07	-5.746392e-10	-2.447152e+00	-3.644086e+01
2.370000e-06	-2.925599e-07	-5.683952e-10	-2.414506e+00	-3.590241e+01
2.380000e-06	-2.886008e-07	-5.572655e-10	-2.381831e+00	-3.534391e+01
2.390000e-06	-2.846321e-07	-5.412408e-10	-2.349078e+00	-3.476724e+01
2.400000e-06	-2.806475e-07	-5.243976e-10	-2.316193e+00	-3.417448e+01
2.410000e-06	-2.766572e-07	-5.112597e-10	-2.283261e+00	-3.356784e+01
2.420000e-06	-2.726696e-07	-5.029715e-10	-2.250351e+00	-3.294963e+01
2.430000e-06	-2.686737e-07	-4.965249e-10	-2.217373e+00	-3.232223e+01
2.440000e-06	-2.646646e-07	-4.902471e-10	-2.184285e+00	-3.168803e+01
2.450000e-06	-2.606489e-07	-4.851089e-10	-2.151144e+00	-3.104939e+01
2.460000e-06	-2.566305e-07	-4.795562e-10	-2.117979e+00	-3.040861e+01
2.470000e-06	-2.525976e-07	-4.679575e-10	-2.084696e+00	-2.976789e+01
2.480000e-06	-2.485475e-07	-4.529508e-10	-2.051271e+00	-2.912932e+01
2.490000e-06	-2.444967e-07	-4.387878e-10	-2.017839e+00	-2.849486e+01
2.500000e-06	-2.404532e-07	-4.268743e-10	-1.984468e+00	-2.786629e+01
2.510000e-06	-2.364019e-07	-4.186507e-10	-1.951033e+00	-2.724530e+01
2.520000e-06	-2.323314e-07	-4.131568e-10	-1.917439e+00	-2.663337e+01
2.530000e-06	-2.282569e-07	-4.109305e-10	-1.883811e+00	-2.603190e+01
2.540000e-06	-2.241807e-07	-4.073828e-10	-1.850170e+00	-2.544213e+01
2.550000e-06	-2.200920e-07	-4.007637e-10	-1.816427e+00	-2.486520e+01
2.560000e-06	-2.159954e-07	-3.886753e-10	-1.782617e+00	-2.430217e+01
2.570000e-06	-2.118945e-07	-3.740698e-10	-1.748772e+00	-2.375401e+01
2.580000e-06	-2.077899e-07	-3.631319e-10	-1.714897e+00	-2.322164e+01
2.590000e-06	-2.036974e-07	-3.529114e-10	-1.681121e+00	-2.270591e+01
2.600000e-06	-1.996064e-07	-3.415923e-10	-1.647358e+00	-2.220766e+01
2.610000e-06	-1.955022e-07	-3.341389e-10	-1.613485e+00	-2.172764e+01
2.620000e-06	-1.913877e-07	-3.320201e-10	-1.579528e+00	-2.126659e+01
2.630000e-06	-1.872685e-07	-3.300676e-10	-1.545533e+00	-2.082513e+01
2.640000e-06	-1.831504e-07	-3.243411e-10	-1.511546e+00	-2.040385e+01
2.650000e-06	-1.790273e-07	-3.173422e-10	-1.477518e+00	-2.000319e+01
2.660000e-06	-1.748966e-07	-3.129318e-10	-1.443427e+00	-1.962346e+01
2.670000e-06	-1.707614e-07	-3.105279e-10	-1.409299e+00	-1.926481e+01
2.680000e-06	-1.666314e-07	-3.057309e-10	-1.375214e+00	-1.892716e+01
2.690000e-06	-1.625043e-07	-2.966650e-10	-1.341153e+00	-1.861021e+01
2.700000e-06	-1.583734e-07	-2.884947e-10	-1.307061e+00	-1.831340e+01
2.710000e-06	-1.542418e-07	-2.844174e-10	-1.272963e+00	-1.803588e+01
2.720000e-06	-1.501108e-07	-2.788480e-10	-1.238869e+00	-1.777647e+01
2.730000e-06	-1.459792e-07	-2.705949e-10	-1.204771e+00	-1.753371e+01
2.740000e-06	-1.418447e-07	-2.658849e-10	-1.170649e+00	-1.730580e+01
2.750000e-06	-1.377059e-07	-2.656712e-10	-1.136491e+00	-1.709068e+01
2.760000e-06	-1.335683e-07	-2.684995e-10	-1.102343e+00	-1.688597e+01
2.770000e-06	-1.294251e-07	-2.684397e-10	-1.068149e+00	-1.668908e+01
2.780000e-06	-1.252745e-07	-2.625567e-10	-1.033894e+00	-1.649720e+01
2.790000e-06	-1.211288e-07	-2.547988e-10	-9.996794e-01	-1.630737e+01
2.800000e-06	-1.169870e-07	-2.491220e-10	-9.654973e-01	-1.611656e+01
2.810000e-06	-1.128411e-07	-2.435402e-10	-9.312813e-01	-1.592170e+01
2.820000e-06	-1.086973e-07	-2.375985e-10	-8.970818e-01	-1.571975e+01
2.830000e-06	-1.045528e-07	-2.348090e-10	-8.628776e-01	-1.550779e+01
2.840000e-06	-1.003932e-07	-2.358190e-10	-8.285480e-01	-1.528305e+01
2.850000e-06	-9.622249e-08	-2.367129e-10	-7.941273e-01	-1.504299e+01
