# Temperatura_=_20.0
# Concentracion g/m^3_=_10000.0
# C_Vs_to_Am_M_A/Vsm_=_65563218390.804596
# pendiente_HvsI_1/m_=_3716.3
# ordenada_HvsI_A/m_=_1297.0
# frecuencia_Hz_=_81116.3913289856

Tiempo_(s)	Campo_(V.s)	Magnetizacion_(V.s)	Campo_(kA/m)	Magnetizacion_(A/m)
0.000000e+00	-8.311394e-07	-1.295342e-09	-6.869199e+00	-8.502700e+01
1.000000e-08	-8.311262e-07	-1.305487e-09	-6.869090e+00	-8.503624e+01
2.000000e-08	-8.311083e-07	-1.305743e-09	-6.868942e+00	-8.505003e+01
3.000000e-08	-8.310725e-07	-1.300190e-09	-6.868646e+00	-8.506836e+01
4.000000e-08	-8.310188e-07	-1.294750e-09	-6.868202e+00	-8.509113e+01
5.000000e-08	-8.309431e-07	-1.294502e-09	-6.867577e+00	-8.511816e+01
6.000000e-08	-8.308457e-07	-1.295452e-09	-6.866771e+00	-8.514920e+01
7.000000e-08	-8.307373e-07	-1.290310e-09	-6.865876e+00	-8.518398e+01
8.000000e-08	-8.306174e-07	-1.285109e-09	-6.864885e+00	-8.522223e+01
9.000000e-08	-8.304786e-07	-1.287153e-09	-6.863738e+00	-8.526369e+01
1.000000e-07	-8.303225e-07	-1.296504e-09	-6.862447e+00	-8.530815e+01
1.100000e-07	-8.301405e-07	-1.303489e-09	-6.860943e+00	-8.535545e+01
1.200000e-07	-8.299201e-07	-1.304827e-09	-6.859122e+00	-8.540550e+01
1.300000e-07	-8.296692e-07	-1.308589e-09	-6.857048e+00	-8.545826e+01
1.400000e-07	-8.293964e-07	-1.317272e-09	-6.854793e+00	-8.551375e+01
1.500000e-07	-8.290866e-07	-1.320536e-09	-6.852233e+00	-8.557205e+01
1.600000e-07	-8.287414e-07	-1.312498e-09	-6.849380e+00	-8.563327e+01
1.700000e-07	-8.283740e-07	-1.301414e-09	-6.846343e+00	-8.569753e+01
1.800000e-07	-8.279711e-07	-1.299053e-09	-6.843014e+00	-8.576494e+01
1.900000e-07	-8.275405e-07	-1.304565e-09	-6.839455e+00	-8.583559e+01
2.000000e-07	-8.270776e-07	-1.309004e-09	-6.835629e+00	-8.590952e+01
2.100000e-07	-8.265897e-07	-1.316559e-09	-6.831596e+00	-8.598669e+01
2.200000e-07	-8.260922e-07	-1.328135e-09	-6.827485e+00	-8.606697e+01
2.300000e-07	-8.255779e-07	-1.339302e-09	-6.823235e+00	-8.615010e+01
2.400000e-07	-8.250530e-07	-1.339612e-09	-6.818896e+00	-8.623570e+01
2.500000e-07	-8.245178e-07	-1.337828e-09	-6.814473e+00	-8.632327e+01
2.600000e-07	-8.239705e-07	-1.332860e-09	-6.809950e+00	-8.641215e+01
2.700000e-07	-8.234100e-07	-1.320594e-09	-6.805317e+00	-8.650157e+01
2.800000e-07	-8.228383e-07	-1.321675e-09	-6.800592e+00	-8.659060e+01
2.900000e-07	-8.222509e-07	-1.327356e-09	-6.795737e+00	-8.667823e+01
3.000000e-07	-8.216380e-07	-1.331059e-09	-6.790672e+00	-8.676332e+01
3.100000e-07	-8.209917e-07	-1.334758e-09	-6.785331e+00	-8.684467e+01
3.200000e-07	-8.203153e-07	-1.338719e-09	-6.779740e+00	-8.692105e+01
3.300000e-07	-8.196135e-07	-1.341316e-09	-6.773940e+00	-8.699117e+01
3.400000e-07	-8.188970e-07	-1.340362e-09	-6.768018e+00	-8.705376e+01
3.500000e-07	-8.181673e-07	-1.342142e-09	-6.761987e+00	-8.710757e+01
3.600000e-07	-8.174177e-07	-1.344066e-09	-6.755792e+00	-8.715143e+01
3.700000e-07	-8.166475e-07	-1.344626e-09	-6.749427e+00	-8.718420e+01
3.800000e-07	-8.158519e-07	-1.339805e-09	-6.742851e+00	-8.720488e+01
3.900000e-07	-8.150299e-07	-1.332790e-09	-6.736057e+00	-8.721256e+01
4.000000e-07	-8.141898e-07	-1.330910e-09	-6.729114e+00	-8.720645e+01
4.100000e-07	-8.133262e-07	-1.328707e-09	-6.721976e+00	-8.718590e+01
4.200000e-07	-8.124379e-07	-1.330998e-09	-6.714635e+00	-8.715040e+01
4.300000e-07	-8.115360e-07	-1.336202e-09	-6.707181e+00	-8.709957e+01
4.400000e-07	-8.106310e-07	-1.343885e-09	-6.699701e+00	-8.703316e+01
4.500000e-07	-8.097273e-07	-1.347806e-09	-6.692232e+00	-8.695108e+01
4.600000e-07	-8.087998e-07	-1.341464e-09	-6.684566e+00	-8.685333e+01
4.700000e-07	-8.078428e-07	-1.330083e-09	-6.676657e+00	-8.674005e+01
4.800000e-07	-8.068737e-07	-1.318026e-09	-6.668648e+00	-8.661147e+01
4.900000e-07	-8.058792e-07	-1.314109e-09	-6.660428e+00	-8.646794e+01
5.000000e-07	-8.048502e-07	-1.313954e-09	-6.651924e+00	-8.630989e+01
5.100000e-07	-8.038054e-07	-1.315680e-09	-6.643289e+00	-8.613785e+01
5.200000e-07	-8.027234e-07	-1.318828e-09	-6.634347e+00	-8.595242e+01
5.300000e-07	-8.016009e-07	-1.322033e-09	-6.625069e+00	-8.575431e+01
5.400000e-07	-8.004488e-07	-1.321903e-09	-6.615547e+00	-8.554427e+01
5.500000e-07	-7.992549e-07	-1.311726e-09	-6.605680e+00	-8.532315e+01
5.600000e-07	-7.980341e-07	-1.297429e-09	-6.595591e+00	-8.509186e+01
5.700000e-07	-7.967841e-07	-1.287390e-09	-6.585259e+00	-8.485141e+01
5.800000e-07	-7.955181e-07	-1.284074e-09	-6.574796e+00	-8.460285e+01
5.900000e-07	-7.942375e-07	-1.279897e-09	-6.564212e+00	-8.434731e+01
6.000000e-07	-7.929243e-07	-1.275850e-09	-6.553359e+00	-8.408597e+01
6.100000e-07	-7.915908e-07	-1.279461e-09	-6.542338e+00	-8.382009e+01
6.200000e-07	-7.902438e-07	-1.287507e-09	-6.531205e+00	-8.355094e+01
6.300000e-07	-7.888782e-07	-1.292638e-09	-6.519918e+00	-8.327983e+01
6.400000e-07	-7.874870e-07	-1.288002e-09	-6.508421e+00	-8.300808e+01
6.500000e-07	-7.860753e-07	-1.279042e-09	-6.496754e+00	-8.273701e+01
6.600000e-07	-7.846498e-07	-1.270866e-09	-6.484971e+00	-8.246791e+01
6.700000e-07	-7.832138e-07	-1.262759e-09	-6.473103e+00	-8.220200e+01
6.800000e-07	-7.817564e-07	-1.255441e-09	-6.461059e+00	-8.194045e+01
6.900000e-07	-7.802740e-07	-1.247933e-09	-6.448806e+00	-8.168431e+01
7.000000e-07	-7.787722e-07	-1.245803e-09	-6.436395e+00	-8.143455e+01
7.100000e-07	-7.772411e-07	-1.249191e-09	-6.423741e+00	-8.119197e+01
7.200000e-07	-7.756824e-07	-1.251275e-09	-6.410858e+00	-8.095721e+01
7.300000e-07	-7.741011e-07	-1.246488e-09	-6.397789e+00	-8.073078e+01
7.400000e-07	-7.725025e-07	-1.239040e-09	-6.384577e+00	-8.051299e+01
7.500000e-07	-7.708893e-07	-1.233817e-09	-6.371244e+00	-8.030398e+01
7.600000e-07	-7.692379e-07	-1.226793e-09	-6.357596e+00	-8.010372e+01
7.700000e-07	-7.675566e-07	-1.219564e-09	-6.343700e+00	-7.991201e+01
7.800000e-07	-7.658462e-07	-1.213610e-09	-6.329564e+00	-7.972850e+01
7.900000e-07	-7.640838e-07	-1.211073e-09	-6.314998e+00	-7.955269e+01
8.000000e-07	-7.622943e-07	-1.212949e-09	-6.300208e+00	-7.938398e+01
8.100000e-07	-7.605064e-07	-1.216304e-09	-6.285431e+00	-7.922166e+01
8.200000e-07	-7.587025e-07	-1.220297e-09	-6.270522e+00	-7.906497e+01
8.300000e-07	-7.568762e-07	-1.221375e-09	-6.255428e+00	-7.891309e+01
8.400000e-07	-7.550337e-07	-1.220473e-09	-6.240201e+00	-7.876517e+01
8.500000e-07	-7.531704e-07	-1.217288e-09	-6.224801e+00	-7.862038e+01
8.600000e-07	-7.512898e-07	-1.208873e-09	-6.209258e+00	-7.847791e+01
8.700000e-07	-7.493908e-07	-1.199018e-09	-6.193563e+00	-7.833696e+01
8.800000e-07	-7.474817e-07	-1.192003e-09	-6.177785e+00	-7.819681e+01
8.900000e-07	-7.455651e-07	-1.190226e-09	-6.161945e+00	-7.805678e+01
9.000000e-07	-7.436246e-07	-1.190256e-09	-6.145907e+00	-7.791625e+01
9.100000e-07	-7.416517e-07	-1.191817e-09	-6.129602e+00	-7.777465e+01
9.200000e-07	-7.396602e-07	-1.192066e-09	-6.113142e+00	-7.763147e+01
9.300000e-07	-7.376602e-07	-1.189317e-09	-6.096613e+00	-7.748624e+01
9.400000e-07	-7.356395e-07	-1.185514e-09	-6.079912e+00	-7.733852e+01
9.500000e-07	-7.335822e-07	-1.179597e-09	-6.062909e+00	-7.718790e+01
9.600000e-07	-7.315014e-07	-1.171615e-09	-6.045711e+00	-7.703396e+01
9.700000e-07	-7.294150e-07	-1.160523e-09	-6.028467e+00	-7.687629e+01
9.800000e-07	-7.273167e-07	-1.151592e-09	-6.011126e+00	-7.671445e+01
9.900000e-07	-7.252018e-07	-1.148911e-09	-5.993646e+00	-7.654801e+01
1.000000e-06	-7.230787e-07	-1.148670e-09	-5.976099e+00	-7.637649e+01
1.010000e-06	-7.209506e-07	-1.148229e-09	-5.958511e+00	-7.619941e+01
1.020000e-06	-7.188157e-07	-1.148293e-09	-5.940866e+00	-7.601625e+01
1.030000e-06	-7.166681e-07	-1.149749e-09	-5.923117e+00	-7.582650e+01
1.040000e-06	-7.145029e-07	-1.150354e-09	-5.905222e+00	-7.562965e+01
1.050000e-06	-7.123284e-07	-1.146990e-09	-5.887250e+00	-7.542521e+01
1.060000e-06	-7.101389e-07	-1.137674e-09	-5.869155e+00	-7.521273e+01
1.070000e-06	-7.079117e-07	-1.125252e-09	-5.850747e+00	-7.499182e+01
1.080000e-06	-7.056527e-07	-1.114008e-09	-5.832076e+00	-7.476215e+01
1.090000e-06	-7.033836e-07	-1.105082e-09	-5.813323e+00	-7.452350e+01
1.100000e-06	-7.010956e-07	-1.101810e-09	-5.794414e+00	-7.427574e+01
1.110000e-06	-6.987925e-07	-1.104262e-09	-5.775378e+00	-7.401887e+01
1.120000e-06	-6.964815e-07	-1.106201e-09	-5.756279e+00	-7.375302e+01
1.130000e-06	-6.941471e-07	-1.104230e-09	-5.736985e+00	-7.347844e+01
1.140000e-06	-6.917917e-07	-1.101477e-09	-5.717518e+00	-7.319548e+01
1.150000e-06	-6.894238e-07	-1.096981e-09	-5.697948e+00	-7.290465e+01
1.160000e-06	-6.870421e-07	-1.089239e-09	-5.678263e+00	-7.260653e+01
1.170000e-06	-6.846441e-07	-1.080608e-09	-5.658445e+00	-7.230178e+01
1.180000e-06	-6.822311e-07	-1.070528e-09	-5.638502e+00	-7.199114e+01
1.190000e-06	-6.797996e-07	-1.060803e-09	-5.618406e+00	-7.167538e+01
1.200000e-06	-6.773479e-07	-1.053523e-09	-5.598143e+00	-7.135527e+01
1.210000e-06	-6.748843e-07	-1.050690e-09	-5.577782e+00	-7.103159e+01
1.220000e-06	-6.724053e-07	-1.051166e-09	-5.557293e+00	-7.070506e+01
1.230000e-06	-6.699089e-07	-1.052494e-09	-5.536662e+00	-7.037637e+01
1.240000e-06	-6.673984e-07	-1.052205e-09	-5.515913e+00	-7.004612e+01
1.250000e-06	-6.648709e-07	-1.047960e-09	-5.495024e+00	-6.971483e+01
1.260000e-06	-6.623273e-07	-1.039805e-09	-5.474001e+00	-6.938295e+01
1.270000e-06	-6.597668e-07	-1.026190e-09	-5.452839e+00	-6.905084e+01
1.280000e-06	-6.571910e-07	-1.009421e-09	-5.431550e+00	-6.871877e+01
1.290000e-06	-6.546060e-07	-9.983925e-10	-5.410186e+00	-6.838699e+01
1.300000e-06	-6.520036e-07	-9.953514e-10	-5.388678e+00	-6.805567e+01
1.310000e-06	-6.493846e-07	-9.944681e-10	-5.367033e+00	-6.772498e+01
1.320000e-06	-6.467352e-07	-9.929903e-10	-5.345135e+00	-6.739511e+01
1.330000e-06	-6.440465e-07	-9.899284e-10	-5.322914e+00	-6.706628e+01
1.340000e-06	-6.413419e-07	-9.862884e-10	-5.300561e+00	-6.673876e+01
1.350000e-06	-6.386065e-07	-9.813886e-10	-5.277953e+00	-6.641294e+01
1.360000e-06	-6.358292e-07	-9.729182e-10	-5.254999e+00	-6.608928e+01
1.370000e-06	-6.330236e-07	-9.620013e-10	-5.231812e+00	-6.576840e+01
1.380000e-06	-6.302021e-07	-9.505261e-10	-5.208493e+00	-6.545102e+01
1.390000e-06	-6.273612e-07	-9.401457e-10	-5.185014e+00	-6.513800e+01
1.400000e-06	-6.245005e-07	-9.321528e-10	-5.161370e+00	-6.483033e+01
1.410000e-06	-6.216229e-07	-9.276072e-10	-5.137587e+00	-6.452908e+01
1.420000e-06	-6.187278e-07	-9.277046e-10	-5.113660e+00	-6.423540e+01
1.430000e-06	-6.158201e-07	-9.301300e-10	-5.089629e+00	-6.395049e+01
1.440000e-06	-6.129067e-07	-9.315971e-10	-5.065549e+00	-6.367555e+01
1.450000e-06	-6.099910e-07	-9.291991e-10	-5.041452e+00	-6.341172e+01
1.460000e-06	-6.070665e-07	-9.224867e-10	-5.017282e+00	-6.316005e+01
1.470000e-06	-6.041288e-07	-9.113794e-10	-4.993003e+00	-6.292148e+01
1.480000e-06	-6.011799e-07	-8.998344e-10	-4.968631e+00	-6.269671e+01
1.490000e-06	-5.982165e-07	-8.920984e-10	-4.944138e+00	-6.248625e+01
1.500000e-06	-5.952349e-07	-8.878959e-10	-4.919496e+00	-6.229032e+01
1.510000e-06	-5.922504e-07	-8.873776e-10	-4.894830e+00	-6.210884e+01
1.520000e-06	-5.892622e-07	-8.907072e-10	-4.870133e+00	-6.194141e+01
1.530000e-06	-5.862500e-07	-8.967691e-10	-4.845238e+00	-6.178731e+01
1.540000e-06	-5.832179e-07	-9.006636e-10	-4.820178e+00	-6.164546e+01
1.550000e-06	-5.801714e-07	-8.977500e-10	-4.795000e+00	-6.151449e+01
1.560000e-06	-5.771001e-07	-8.892024e-10	-4.769616e+00	-6.139269e+01
1.570000e-06	-5.740151e-07	-8.804848e-10	-4.744118e+00	-6.127814e+01
1.580000e-06	-5.709261e-07	-8.731049e-10	-4.718589e+00	-6.116864e+01
1.590000e-06	-5.678301e-07	-8.681284e-10	-4.693001e+00	-6.106186e+01
1.600000e-06	-5.647161e-07	-8.649147e-10	-4.667264e+00	-6.095532e+01
1.610000e-06	-5.615827e-07	-8.616824e-10	-4.641367e+00	-6.084651e+01
1.620000e-06	-5.584393e-07	-8.631525e-10	-4.615388e+00	-6.073292e+01
1.630000e-06	-5.552847e-07	-8.693163e-10	-4.589315e+00	-6.061208e+01
1.640000e-06	-5.521197e-07	-8.726413e-10	-4.563158e+00	-6.048167e+01
1.650000e-06	-5.489407e-07	-8.696378e-10	-4.536884e+00	-6.033953e+01
1.660000e-06	-5.457500e-07	-8.637534e-10	-4.510513e+00	-6.018374e+01
1.670000e-06	-5.425546e-07	-8.577286e-10	-4.484104e+00	-6.001263e+01
1.680000e-06	-5.393475e-07	-8.510754e-10	-4.457598e+00	-5.982481e+01
1.690000e-06	-5.361119e-07	-8.434284e-10	-4.430856e+00	-5.961924e+01
1.700000e-06	-5.328607e-07	-8.354466e-10	-4.403986e+00	-5.939515e+01
1.710000e-06	-5.296067e-07	-8.318193e-10	-4.377092e+00	-5.915212e+01
1.720000e-06	-5.263409e-07	-8.333925e-10	-4.350101e+00	-5.889004e+01
1.730000e-06	-5.230571e-07	-8.340306e-10	-4.322961e+00	-5.860910e+01
1.740000e-06	-5.197551e-07	-8.303078e-10	-4.295670e+00	-5.830973e+01
1.750000e-06	-5.164458e-07	-8.238864e-10	-4.268320e+00	-5.799265e+01
1.760000e-06	-5.131311e-07	-8.193890e-10	-4.240924e+00	-5.765874e+01
1.770000e-06	-5.098121e-07	-8.132715e-10	-4.213493e+00	-5.730908e+01
1.780000e-06	-5.064874e-07	-8.029590e-10	-4.186016e+00	-5.694486e+01
1.790000e-06	-5.031561e-07	-7.939440e-10	-4.158483e+00	-5.656737e+01
1.800000e-06	-4.998189e-07	-7.915909e-10	-4.130902e+00	-5.617798e+01
1.810000e-06	-4.964676e-07	-7.922513e-10	-4.103204e+00	-5.577806e+01
1.820000e-06	-4.931046e-07	-7.895036e-10	-4.075410e+00	-5.536898e+01
1.830000e-06	-4.897300e-07	-7.861039e-10	-4.047519e+00	-5.495209e+01
1.840000e-06	-4.863408e-07	-7.827700e-10	-4.019508e+00	-5.452870e+01
1.850000e-06	-4.829450e-07	-7.793271e-10	-3.991443e+00	-5.410005e+01
1.860000e-06	-4.795351e-07	-7.734186e-10	-3.963260e+00	-5.366731e+01
1.870000e-06	-4.761034e-07	-7.640042e-10	-3.934898e+00	-5.323156e+01
1.880000e-06	-4.726431e-07	-7.561726e-10	-3.906300e+00	-5.279382e+01
1.890000e-06	-4.691530e-07	-7.514493e-10	-3.877455e+00	-5.235503e+01
1.900000e-06	-4.656583e-07	-7.464583e-10	-3.848571e+00	-5.191603e+01
1.910000e-06	-4.621455e-07	-7.397184e-10	-3.819539e+00	-5.147761e+01
1.920000e-06	-4.586063e-07	-7.344065e-10	-3.790288e+00	-5.104052e+01
1.930000e-06	-4.550524e-07	-7.309160e-10	-3.760916e+00	-5.060542e+01
1.940000e-06	-4.514681e-07	-7.291806e-10	-3.731293e+00	-5.017294e+01
1.950000e-06	-4.478776e-07	-7.276277e-10	-3.701618e+00	-4.974367e+01
1.960000e-06	-4.442811e-07	-7.246904e-10	-3.671893e+00	-4.931817e+01
1.970000e-06	-4.406558e-07	-7.200190e-10	-3.641931e+00	-4.889697e+01
1.980000e-06	-4.370047e-07	-7.119933e-10	-3.611755e+00	-4.848058e+01
1.990000e-06	-4.333375e-07	-7.030288e-10	-3.581446e+00	-4.806950e+01
2.000000e-06	-4.296677e-07	-6.912123e-10	-3.551117e+00	-4.766418e+01
2.010000e-06	-4.259909e-07	-6.797090e-10	-3.520729e+00	-4.726508e+01
2.020000e-06	-4.223046e-07	-6.775988e-10	-3.490262e+00	-4.687264e+01
2.030000e-06	-4.186108e-07	-6.814472e-10	-3.459734e+00	-4.648727e+01
2.040000e-06	-4.149064e-07	-6.867284e-10	-3.429117e+00	-4.610933e+01
2.050000e-06	-4.111947e-07	-6.880693e-10	-3.398441e+00	-4.573920e+01
2.060000e-06	-4.074836e-07	-6.836736e-10	-3.367769e+00	-4.537717e+01
2.070000e-06	-4.037693e-07	-6.756960e-10	-3.337071e+00	-4.502353e+01
2.080000e-06	-4.000439e-07	-6.657534e-10	-3.306282e+00	-4.467848e+01
2.090000e-06	-3.963081e-07	-6.576249e-10	-3.275406e+00	-4.434219e+01
2.100000e-06	-3.925707e-07	-6.500652e-10	-3.244518e+00	-4.401474e+01
2.110000e-06	-3.888353e-07	-6.460362e-10	-3.213645e+00	-4.369614e+01
2.120000e-06	-3.850988e-07	-6.472533e-10	-3.182763e+00	-4.338631e+01
2.130000e-06	-3.813555e-07	-6.486118e-10	-3.151826e+00	-4.308506e+01
2.140000e-06	-3.775918e-07	-6.475661e-10	-3.120719e+00	-4.279210e+01
2.150000e-06	-3.738085e-07	-6.453801e-10	-3.089451e+00	-4.250702e+01
2.160000e-06	-3.700245e-07	-6.423658e-10	-3.058177e+00	-4.222926e+01
2.170000e-06	-3.662430e-07	-6.355009e-10	-3.026924e+00	-4.195815e+01
2.180000e-06	-3.624441e-07	-6.258000e-10	-2.995527e+00	-4.169286e+01
2.190000e-06	-3.586222e-07	-6.179606e-10	-2.963940e+00	-4.143242e+01
2.200000e-06	-3.547891e-07	-6.139644e-10	-2.932260e+00	-4.117572e+01
2.210000e-06	-3.509450e-07	-6.118655e-10	-2.900490e+00	-4.092150e+01
2.220000e-06	-3.470957e-07	-6.106334e-10	-2.868676e+00	-4.066839e+01
2.230000e-06	-3.432401e-07	-6.132310e-10	-2.836810e+00	-4.041487e+01
2.240000e-06	-3.393727e-07	-6.163408e-10	-2.804846e+00	-4.015936e+01
2.250000e-06	-3.355022e-07	-6.153744e-10	-2.772857e+00	-3.990016e+01
2.260000e-06	-3.316351e-07	-6.094254e-10	-2.740897e+00	-3.963555e+01
2.270000e-06	-3.277583e-07	-6.000078e-10	-2.708856e+00	-3.936377e+01
2.280000e-06	-3.238659e-07	-5.907214e-10	-2.676686e+00	-3.908308e+01
2.290000e-06	-3.199576e-07	-5.815812e-10	-2.644385e+00	-3.879178e+01
2.300000e-06	-3.160337e-07	-5.743567e-10	-2.611955e+00	-3.848826e+01
2.310000e-06	-3.120994e-07	-5.713992e-10	-2.579438e+00	-3.817100e+01
2.320000e-06	-3.081431e-07	-5.700248e-10	-2.546740e+00	-3.783868e+01
2.330000e-06	-3.041880e-07	-5.685455e-10	-2.514052e+00	-3.749012e+01
2.340000e-06	-3.002503e-07	-5.650324e-10	-2.481508e+00	-3.712439e+01
2.350000e-06	-2.963070e-07	-5.605226e-10	-2.448917e+00	-3.674076e+01
2.360000e-06	-2.923556e-07	-5.554545e-10	-2.416260e+00	-3.633878e+01
2.370000e-06	-2.883961e-07	-5.461267e-10	-2.383535e+00	-3.591827e+01
2.380000e-06	-2.844227e-07	-5.310292e-10	-2.350696e+00	-3.547930e+01
2.390000e-06	-2.804356e-07	-5.170359e-10	-2.317744e+00	-3.502221e+01
2.400000e-06	-2.764390e-07	-5.082721e-10	-2.284713e+00	-3.454763e+01
2.410000e-06	-2.724439e-07	-5.018121e-10	-2.251694e+00	-3.405638e+01
2.420000e-06	-2.684488e-07	-4.947017e-10	-2.218675e+00	-3.354954e+01
2.430000e-06	-2.644370e-07	-4.882738e-10	-2.185518e+00	-3.302834e+01
2.440000e-06	-2.604112e-07	-4.867997e-10	-2.152246e+00	-3.249421e+01
2.450000e-06	-2.563819e-07	-4.852238e-10	-2.118945e+00	-3.194866e+01
2.460000e-06	-2.523534e-07	-4.746663e-10	-2.085650e+00	-3.139331e+01
2.470000e-06	-2.483233e-07	-4.584945e-10	-2.052342e+00	-3.082982e+01
2.480000e-06	-2.442812e-07	-4.445042e-10	-2.018935e+00	-3.025987e+01
2.490000e-06	-2.402326e-07	-4.336086e-10	-1.985473e+00	-2.968511e+01
2.500000e-06	-2.361794e-07	-4.229726e-10	-1.951975e+00	-2.910715e+01
2.510000e-06	-2.321163e-07	-4.112108e-10	-1.918394e+00	-2.852754e+01
2.520000e-06	-2.280552e-07	-4.048347e-10	-1.884830e+00	-2.794772e+01
2.530000e-06	-2.239914e-07	-4.038443e-10	-1.851243e+00	-2.736904e+01
2.540000e-06	-2.199097e-07	-4.004247e-10	-1.817509e+00	-2.679274e+01
2.550000e-06	-2.158230e-07	-3.900338e-10	-1.783733e+00	-2.621994e+01
2.560000e-06	-2.117443e-07	-3.795557e-10	-1.750023e+00	-2.565166e+01
2.570000e-06	-2.076611e-07	-3.734581e-10	-1.716277e+00	-2.508879e+01
2.580000e-06	-2.035729e-07	-3.658848e-10	-1.682489e+00	-2.453213e+01
2.590000e-06	-1.994824e-07	-3.526168e-10	-1.648682e+00	-2.398241e+01
2.600000e-06	-1.953794e-07	-3.374669e-10	-1.614771e+00	-2.344024e+01
2.610000e-06	-1.912640e-07	-3.287778e-10	-1.580758e+00	-2.290617e+01
2.620000e-06	-1.871467e-07	-3.248846e-10	-1.546730e+00	-2.238071e+01
2.630000e-06	-1.830309e-07	-3.199433e-10	-1.512713e+00	-2.186427e+01
2.640000e-06	-1.789142e-07	-3.148123e-10	-1.478690e+00	-2.135723e+01
2.650000e-06	-1.747991e-07	-3.116144e-10	-1.444679e+00	-2.085989e+01
2.660000e-06	-1.706824e-07	-3.064524e-10	-1.410656e+00	-2.037251e+01
2.670000e-06	-1.665634e-07	-2.953179e-10	-1.376613e+00	-1.989527e+01
2.680000e-06	-1.624485e-07	-2.803083e-10	-1.342604e+00	-1.942828e+01
2.690000e-06	-1.583315e-07	-2.689255e-10	-1.308577e+00	-1.897155e+01
2.700000e-06	-1.542026e-07	-2.653631e-10	-1.274453e+00	-1.852502e+01
2.710000e-06	-1.500699e-07	-2.610002e-10	-1.240297e+00	-1.808852e+01
2.720000e-06	-1.459424e-07	-2.517887e-10	-1.206184e+00	-1.766176e+01
2.730000e-06	-1.418153e-07	-2.451316e-10	-1.172075e+00	-1.724436e+01
2.740000e-06	-1.376822e-07	-2.449546e-10	-1.137916e+00	-1.683580e+01
2.750000e-06	-1.335388e-07	-2.468814e-10	-1.103671e+00	-1.643549e+01
2.760000e-06	-1.293896e-07	-2.435705e-10	-1.069379e+00	-1.604270e+01
2.770000e-06	-1.252432e-07	-2.356357e-10	-1.035109e+00	-1.565663e+01
2.780000e-06	-1.211011e-07	-2.283070e-10	-1.000876e+00	-1.527642e+01
2.790000e-06	-1.169606e-07	-2.242290e-10	-9.666559e-01	-1.490115e+01
2.800000e-06	-1.128178e-07	-2.175122e-10	-9.324165e-01	-1.452988e+01
2.810000e-06	-1.086716e-07	-2.058075e-10	-8.981484e-01	-1.416167e+01
2.820000e-06	-1.045148e-07	-1.978636e-10	-8.637934e-01	-1.379561e+01
2.830000e-06	-1.003543e-07	-1.964743e-10	-8.294076e-01	-1.343085e+01
2.840000e-06	-9.619518e-08	-1.977395e-10	-7.950337e-01	-1.306662e+01
2.850000e-06	-9.203952e-08	-1.971314e-10	-7.606880e-01	-1.270225e+01
