# Temperatura_=_20.0
# Concentracion g/m^3_=_10000.0
# C_Vs_to_Am_M_A/Vsm_=_65563218390.804596
# pendiente_HvsI_1/m_=_3716.3
# ordenada_HvsI_A/m_=_1297.0
# frecuencia_Hz_=_81118.90136836466

Tiempo_(s)	Campo_(V.s)	Magnetizacion_(V.s)	Campo_(kA/m)	Magnetizacion_(A/m)
0.000000e+00	-8.313225e-07	-2.631759e-11	-6.867336e+00	-3.387489e-03
1.000000e-08	-8.313171e-07	-8.806928e-12	-6.867291e+00	-3.391004e-03
2.000000e-08	-8.312975e-07	5.295192e-12	-6.867129e+00	-3.351060e-03
3.000000e-08	-8.312671e-07	3.951146e-12	-6.866878e+00	-3.274137e-03
4.000000e-08	-8.312231e-07	-2.102335e-12	-6.866515e+00	-3.167570e-03
5.000000e-08	-8.311584e-07	-2.402193e-12	-6.865980e+00	-3.039190e-03
6.000000e-08	-8.310789e-07	4.114067e-13	-6.865324e+00	-2.896935e-03
7.000000e-08	-8.309790e-07	-1.333493e-12	-6.864498e+00	-2.748468e-03
8.000000e-08	-8.308566e-07	-1.162932e-11	-6.863487e+00	-2.600809e-03
9.000000e-08	-8.307262e-07	-1.287628e-11	-6.862410e+00	-2.460004e-03
1.000000e-07	-8.305848e-07	-4.978447e-12	-6.861242e+00	-2.330844e-03
1.100000e-07	-8.304234e-07	-3.078690e-12	-6.859909e+00	-2.216649e-03
1.200000e-07	-8.302383e-07	-5.660044e-12	-6.858380e+00	-2.119126e-03
1.300000e-07	-8.300251e-07	1.070907e-11	-6.856618e+00	-2.038307e-03
1.400000e-07	-8.297838e-07	3.575697e-11	-6.854625e+00	-1.972577e-03
1.500000e-07	-8.295104e-07	4.786177e-11	-6.852366e+00	-1.918772e-03
1.600000e-07	-8.292074e-07	4.369433e-11	-6.849863e+00	-1.872367e-03
1.700000e-07	-8.288825e-07	2.418267e-11	-6.847180e+00	-1.827726e-03
1.800000e-07	-8.285317e-07	7.453020e-12	-6.844281e+00	-1.778411e-03
1.900000e-07	-8.281462e-07	-2.489163e-12	-6.841097e+00	-1.717529e-03
2.000000e-07	-8.277223e-07	-5.256361e-12	-6.837596e+00	-1.638111e-03
2.100000e-07	-8.272626e-07	2.541475e-12	-6.833798e+00	-1.533491e-03
2.200000e-07	-8.267752e-07	2.276917e-11	-6.829772e+00	-1.397676e-03
2.300000e-07	-8.262810e-07	4.405901e-11	-6.825689e+00	-1.225689e-03
2.400000e-07	-8.257772e-07	5.152848e-11	-6.821527e+00	-1.013864e-03
2.500000e-07	-8.252585e-07	4.106795e-11	-6.817243e+00	-7.600811e-04
2.600000e-07	-8.247274e-07	2.242922e-11	-6.812855e+00	-4.639332e-04
2.700000e-07	-8.241785e-07	1.506515e-11	-6.808321e+00	-1.268083e-04
2.800000e-07	-8.236179e-07	1.546923e-11	-6.803690e+00	2.481076e-04
2.900000e-07	-8.230491e-07	1.613392e-11	-6.798991e+00	6.559138e-04
3.000000e-07	-8.224610e-07	1.367712e-11	-6.794133e+00	1.090159e-03
3.100000e-07	-8.218421e-07	1.105724e-11	-6.789021e+00	1.543077e-03
3.200000e-07	-8.211945e-07	1.522676e-11	-6.783671e+00	2.005889e-03
3.300000e-07	-8.205277e-07	1.794539e-11	-6.778163e+00	2.469148e-03
3.400000e-07	-8.198432e-07	1.679500e-11	-6.772508e+00	2.923123e-03
3.500000e-07	-8.191359e-07	1.039912e-11	-6.766665e+00	3.358190e-03
3.600000e-07	-8.184086e-07	9.891007e-12	-6.760657e+00	3.765230e-03
3.700000e-07	-8.176628e-07	1.406693e-11	-6.754496e+00	4.135993e-03
3.800000e-07	-8.168841e-07	1.012277e-11	-6.748064e+00	4.463437e-03
3.900000e-07	-8.160860e-07	5.979572e-12	-6.741471e+00	4.741997e-03
4.000000e-07	-8.152700e-07	2.034145e-13	-6.734731e+00	4.967802e-03
4.100000e-07	-8.144313e-07	-5.857960e-14	-6.727802e+00	5.138805e-03
4.200000e-07	-8.135779e-07	-1.280052e-12	-6.720752e+00	5.254837e-03
4.300000e-07	-8.127004e-07	-1.220778e-12	-6.713503e+00	5.317567e-03
4.400000e-07	-8.118032e-07	4.818426e-12	-6.706092e+00	5.330394e-03
4.500000e-07	-8.108963e-07	7.027563e-12	-6.698600e+00	5.298243e-03
4.600000e-07	-8.099769e-07	3.336866e-12	-6.691006e+00	5.227310e-03
4.700000e-07	-8.090417e-07	-9.055737e-12	-6.683280e+00	5.124739e-03
4.800000e-07	-8.080964e-07	-1.484580e-11	-6.675471e+00	4.998268e-03
4.900000e-07	-8.071317e-07	-1.277977e-11	-6.667502e+00	4.855845e-03
5.000000e-07	-8.061505e-07	-9.759643e-12	-6.659396e+00	4.705241e-03
5.100000e-07	-8.051462e-07	-1.054192e-11	-6.651100e+00	4.553680e-03
5.200000e-07	-8.040930e-07	-1.312947e-11	-6.642400e+00	4.407493e-03
5.300000e-07	-8.029967e-07	-4.783010e-12	-6.633344e+00	4.271824e-03
5.400000e-07	-8.018617e-07	2.583844e-12	-6.623968e+00	4.150399e-03
5.500000e-07	-8.006971e-07	1.827123e-13	-6.614348e+00	4.045358e-03
5.600000e-07	-7.994996e-07	-9.088323e-12	-6.604455e+00	3.957176e-03
5.700000e-07	-7.982704e-07	-1.698139e-11	-6.594301e+00	3.884662e-03
5.800000e-07	-7.970362e-07	-1.737401e-11	-6.584106e+00	3.825048e-03
5.900000e-07	-7.957859e-07	-1.916055e-11	-6.573777e+00	3.774143e-03
6.000000e-07	-7.945046e-07	-2.113277e-11	-6.563193e+00	3.726576e-03
6.100000e-07	-7.932002e-07	-1.654117e-11	-6.552417e+00	3.676088e-03
6.200000e-07	-7.918777e-07	-3.961728e-12	-6.541493e+00	3.615871e-03
6.300000e-07	-7.905409e-07	8.111149e-12	-6.530450e+00	3.538938e-03
6.400000e-07	-7.891872e-07	9.377993e-12	-6.519267e+00	3.438506e-03
6.500000e-07	-7.878014e-07	2.262706e-12	-6.507819e+00	3.308371e-03
6.600000e-07	-7.863808e-07	-2.497076e-12	-6.496084e+00	3.143258e-03
6.700000e-07	-7.849372e-07	3.050593e-13	-6.484159e+00	2.939130e-03
6.800000e-07	-7.834691e-07	-4.812026e-13	-6.472031e+00	2.693442e-03
6.900000e-07	-7.819814e-07	-4.943265e-12	-6.459742e+00	2.405324e-03
7.000000e-07	-7.804768e-07	-3.723217e-12	-6.447313e+00	2.075687e-03
7.100000e-07	-7.789561e-07	4.435119e-12	-6.434751e+00	1.707250e-03
7.200000e-07	-7.774137e-07	1.227388e-11	-6.422009e+00	1.304475e-03
7.300000e-07	-7.758401e-07	1.321475e-11	-6.409010e+00	8.734246e-04
7.400000e-07	-7.742411e-07	1.385690e-11	-6.395802e+00	4.215459e-04
7.500000e-07	-7.726245e-07	1.705501e-11	-6.382447e+00	-4.261637e-05
7.600000e-07	-7.709818e-07	1.776779e-11	-6.368878e+00	-5.097554e-04
7.700000e-07	-7.693050e-07	1.266370e-11	-6.355026e+00	-9.701763e-04
7.800000e-07	-7.675975e-07	7.878574e-12	-6.340920e+00	-1.414189e-03
7.900000e-07	-7.658719e-07	9.153798e-12	-6.326665e+00	-1.832505e-03
8.000000e-07	-7.641116e-07	1.392901e-11	-6.312124e+00	-2.216611e-03
8.100000e-07	-7.623167e-07	1.891838e-11	-6.297297e+00	-2.559118e-03
8.200000e-07	-7.605150e-07	2.377623e-11	-6.282413e+00	-2.854048e-03
8.300000e-07	-7.586974e-07	3.130558e-11	-6.267399e+00	-3.097069e-03
8.400000e-07	-7.568596e-07	3.640661e-11	-6.252218e+00	-3.285645e-03
8.500000e-07	-7.550054e-07	3.402506e-11	-6.236900e+00	-3.419113e-03
8.600000e-07	-7.531433e-07	2.900059e-11	-6.221518e+00	-3.498667e-03
8.700000e-07	-7.512731e-07	2.494868e-11	-6.206069e+00	-3.527266e-03
8.800000e-07	-7.493793e-07	2.352982e-11	-6.190425e+00	-3.509456e-03
8.900000e-07	-7.474665e-07	2.179906e-11	-6.174623e+00	-3.451127e-03
9.000000e-07	-7.455413e-07	1.801255e-11	-6.158720e+00	-3.359208e-03
9.100000e-07	-7.435956e-07	1.600331e-11	-6.142647e+00	-3.241317e-03
9.200000e-07	-7.416270e-07	1.920667e-11	-6.126385e+00	-3.105383e-03
9.300000e-07	-7.396308e-07	2.631486e-11	-6.109895e+00	-2.959261e-03
9.400000e-07	-7.376119e-07	2.829862e-11	-6.093217e+00	-2.810355e-03
9.500000e-07	-7.355756e-07	2.513033e-11	-6.076396e+00	-2.665260e-03
9.600000e-07	-7.335172e-07	2.033470e-11	-6.059392e+00	-2.529460e-03
9.700000e-07	-7.314453e-07	1.636310e-11	-6.042277e+00	-2.407071e-03
9.800000e-07	-7.293621e-07	1.112776e-11	-6.025068e+00	-2.300662e-03
9.900000e-07	-7.272615e-07	2.753097e-12	-6.007715e+00	-2.211150e-03
1.000000e-06	-7.251526e-07	1.642150e-12	-5.990294e+00	-2.137778e-03
1.010000e-06	-7.230378e-07	8.880132e-12	-5.972825e+00	-2.078179e-03
1.020000e-06	-7.209095e-07	1.578863e-11	-5.955243e+00	-2.028518e-03
1.030000e-06	-7.187644e-07	1.585778e-11	-5.937523e+00	-1.983708e-03
1.040000e-06	-7.166013e-07	1.178238e-11	-5.919654e+00	-1.937692e-03
1.050000e-06	-7.144260e-07	7.888726e-12	-5.901684e+00	-1.883771e-03
1.060000e-06	-7.122377e-07	2.290996e-12	-5.883608e+00	-1.814968e-03
1.070000e-06	-7.100345e-07	-4.564260e-12	-5.865408e+00	-1.724410e-03
1.080000e-06	-7.078054e-07	-1.106085e-11	-5.846993e+00	-1.605706e-03
1.090000e-06	-7.055549e-07	-1.274534e-11	-5.828403e+00	-1.453303e-03
1.100000e-06	-7.032946e-07	-1.040192e-11	-5.809731e+00	-1.262812e-03
1.110000e-06	-7.010132e-07	-8.555697e-12	-5.790885e+00	-1.031275e-03
1.120000e-06	-6.987105e-07	-6.824158e-12	-5.771863e+00	-7.573665e-04
1.130000e-06	-6.963865e-07	-6.422804e-12	-5.752665e+00	-4.415244e-04
1.140000e-06	-6.940505e-07	-7.849977e-12	-5.733368e+00	-8.599343e-05
1.150000e-06	-6.917117e-07	-1.085772e-11	-5.714047e+00	3.052126e-04
1.160000e-06	-6.893546e-07	-1.626340e-11	-5.694577e+00	7.264334e-04
1.170000e-06	-6.869628e-07	-2.218540e-11	-5.674818e+00	1.170561e-03
1.180000e-06	-6.845405e-07	-2.303239e-11	-5.654808e+00	1.629310e-03
1.190000e-06	-6.821010e-07	-2.043229e-11	-5.634656e+00	2.093538e-03
1.200000e-06	-6.796582e-07	-1.992937e-11	-5.614477e+00	2.553615e-03
1.210000e-06	-6.772117e-07	-2.134364e-11	-5.594267e+00	2.999811e-03
1.220000e-06	-6.747458e-07	-1.985096e-11	-5.573897e+00	3.422694e-03
1.230000e-06	-6.722580e-07	-1.590162e-11	-5.553346e+00	3.813512e-03
1.240000e-06	-6.697534e-07	-1.269310e-11	-5.532656e+00	4.164549e-03
1.250000e-06	-6.672360e-07	-1.136646e-11	-5.511860e+00	4.469431e-03
1.260000e-06	-6.647087e-07	-9.388425e-12	-5.490983e+00	4.723375e-03
1.270000e-06	-6.621734e-07	-8.628354e-12	-5.470040e+00	4.923362e-03
1.280000e-06	-6.596255e-07	-1.320795e-11	-5.448992e+00	5.068232e-03
1.290000e-06	-6.570596e-07	-1.842412e-11	-5.427796e+00	5.158698e-03
1.300000e-06	-6.544851e-07	-1.835168e-11	-5.406528e+00	5.197267e-03
1.310000e-06	-6.518955e-07	-1.301700e-11	-5.385137e+00	5.188090e-03
1.320000e-06	-6.492692e-07	-5.835129e-12	-5.363441e+00	5.136730e-03
1.330000e-06	-6.466121e-07	1.063450e-12	-5.341492e+00	5.049875e-03
1.340000e-06	-6.439299e-07	4.509891e-12	-5.319335e+00	4.934997e-03
1.350000e-06	-6.412186e-07	6.663553e-12	-5.296938e+00	4.799981e-03
1.360000e-06	-6.384743e-07	7.311841e-12	-5.274268e+00	4.652739e-03
1.370000e-06	-6.356995e-07	4.524979e-12	-5.251346e+00	4.500828e-03
1.380000e-06	-6.328921e-07	2.071687e-12	-5.228154e+00	4.351090e-03
1.390000e-06	-6.300601e-07	1.588712e-12	-5.204760e+00	4.209326e-03
1.400000e-06	-6.272240e-07	1.490353e-12	-5.181332e+00	4.080035e-03
1.410000e-06	-6.243695e-07	3.119237e-12	-5.157752e+00	3.966204e-03
1.420000e-06	-6.214891e-07	6.589064e-12	-5.133957e+00	3.869193e-03
1.430000e-06	-6.185980e-07	1.284876e-11	-5.110074e+00	3.788681e-03
1.440000e-06	-6.157044e-07	2.054071e-11	-5.086172e+00	3.722714e-03
1.450000e-06	-6.128016e-07	2.314992e-11	-5.062192e+00	3.667826e-03
1.460000e-06	-6.098860e-07	1.941980e-11	-5.038107e+00	3.619234e-03
1.470000e-06	-6.069628e-07	1.395097e-11	-5.013959e+00	3.571106e-03
1.480000e-06	-6.040269e-07	9.601539e-12	-4.989707e+00	3.516878e-03
1.490000e-06	-6.010756e-07	6.818241e-12	-4.965327e+00	3.449610e-03
1.500000e-06	-5.981144e-07	5.422092e-12	-4.940865e+00	3.362364e-03
1.510000e-06	-5.951395e-07	6.949712e-12	-4.916290e+00	3.248587e-03
1.520000e-06	-5.921490e-07	1.069969e-11	-4.891586e+00	3.102472e-03
1.530000e-06	-5.891435e-07	1.451816e-11	-4.866759e+00	2.919295e-03
1.540000e-06	-5.861156e-07	1.911149e-11	-4.841746e+00	2.695699e-03
1.550000e-06	-5.830778e-07	2.198742e-11	-4.816652e+00	2.429913e-03
1.560000e-06	-5.800327e-07	2.070831e-11	-4.791497e+00	2.121903e-03
1.570000e-06	-5.769689e-07	1.659384e-11	-4.766188e+00	1.773440e-03
1.580000e-06	-5.738993e-07	1.317795e-11	-4.740830e+00	1.388079e-03
1.590000e-06	-5.708147e-07	9.804730e-12	-4.715350e+00	9.710634e-04
1.600000e-06	-5.677101e-07	5.923117e-12	-4.689703e+00	5.291443e-04
1.610000e-06	-5.645986e-07	5.660015e-12	-4.664000e+00	7.032686e-05
1.620000e-06	-5.614784e-07	8.516609e-12	-4.638225e+00	-3.964384e-04
1.630000e-06	-5.583415e-07	1.264846e-11	-4.612312e+00	-8.616126e-04
1.640000e-06	-5.551897e-07	1.660537e-11	-4.586276e+00	-1.315454e-03
1.650000e-06	-5.520300e-07	1.753820e-11	-4.560174e+00	-1.748413e-03
1.660000e-06	-5.488568e-07	1.643445e-11	-4.533961e+00	-2.151524e-03
1.670000e-06	-5.456674e-07	1.211277e-11	-4.507615e+00	-2.516766e-03
1.680000e-06	-5.424615e-07	6.802025e-12	-4.481131e+00	-2.837385e-03
1.690000e-06	-5.392414e-07	2.197539e-12	-4.454531e+00	-3.108160e-03
1.700000e-06	-5.360137e-07	-3.260613e-13	-4.427868e+00	-3.325594e-03
1.710000e-06	-5.327753e-07	1.100202e-12	-4.401116e+00	-3.488034e-03
1.720000e-06	-5.295128e-07	2.522745e-12	-4.374165e+00	-3.595703e-03
1.730000e-06	-5.262389e-07	3.404736e-12	-4.347121e+00	-3.650650e-03
1.740000e-06	-5.229607e-07	3.216378e-12	-4.320040e+00	-3.656609e-03
1.750000e-06	-5.196714e-07	3.454828e-12	-4.292869e+00	-3.618801e-03
1.760000e-06	-5.163705e-07	3.767227e-13	-4.265600e+00	-3.543647e-03
1.770000e-06	-5.130607e-07	-6.422256e-12	-4.238259e+00	-3.438447e-03
1.780000e-06	-5.097477e-07	-1.154722e-11	-4.210891e+00	-3.311016e-03
1.790000e-06	-5.064256e-07	-1.358688e-11	-4.183448e+00	-3.169297e-03
1.800000e-06	-5.030893e-07	-1.340966e-11	-4.155888e+00	-3.020975e-03
1.810000e-06	-4.997394e-07	-1.152633e-11	-4.128215e+00	-2.873113e-03
1.820000e-06	-4.963856e-07	-8.243886e-12	-4.100511e+00	-2.731816e-03
1.830000e-06	-4.930306e-07	-6.181975e-12	-4.072795e+00	-2.601947e-03
1.840000e-06	-4.896620e-07	-3.475867e-12	-4.044969e+00	-2.486907e-03
1.850000e-06	-4.862700e-07	-1.526572e-12	-4.016948e+00	-2.388490e-03
1.860000e-06	-4.828592e-07	-2.824195e-12	-3.988773e+00	-2.306819e-03
1.870000e-06	-4.794377e-07	-5.743690e-12	-3.960508e+00	-2.240361e-03
1.880000e-06	-4.760019e-07	-8.939704e-12	-3.932126e+00	-2.186030e-03
1.890000e-06	-4.725418e-07	-1.058596e-11	-3.903543e+00	-2.139367e-03
1.900000e-06	-4.690491e-07	-1.163502e-11	-3.874691e+00	-2.094789e-03
1.910000e-06	-4.655359e-07	-1.010187e-11	-3.845669e+00	-2.045889e-03
1.920000e-06	-4.620119e-07	-5.813754e-12	-3.816558e+00	-1.985790e-03
1.930000e-06	-4.584718e-07	-2.295268e-12	-3.787315e+00	-1.907519e-03
1.940000e-06	-4.549050e-07	-6.338653e-13	-3.757850e+00	-1.804382e-03
1.950000e-06	-4.513106e-07	-3.938388e-14	-3.728157e+00	-1.670343e-03
1.960000e-06	-4.477043e-07	1.978973e-12	-3.698367e+00	-1.500363e-03
1.970000e-06	-4.440836e-07	5.201106e-12	-3.668457e+00	-1.290702e-03
1.980000e-06	-4.404465e-07	7.099496e-12	-3.638412e+00	-1.039154e-03
1.990000e-06	-4.367889e-07	5.939145e-12	-3.608198e+00	-7.452166e-04
2.000000e-06	-4.331091e-07	5.463906e-12	-3.577800e+00	-4.101845e-04
2.010000e-06	-4.294178e-07	6.724008e-12	-3.547307e+00	-3.714991e-05
2.020000e-06	-4.257207e-07	6.949347e-12	-3.516766e+00	3.690734e-04
2.030000e-06	-4.220212e-07	1.028878e-11	-3.486206e+00	8.021101e-04
2.040000e-06	-4.183152e-07	1.954344e-11	-3.455591e+00	1.254257e-03
2.050000e-06	-4.146006e-07	3.054561e-11	-3.424906e+00	1.716780e-03
2.060000e-06	-4.108819e-07	3.634210e-11	-3.394187e+00	2.180257e-03
2.070000e-06	-4.071591e-07	3.486695e-11	-3.363434e+00	2.634963e-03
2.080000e-06	-4.034316e-07	3.106540e-11	-3.332642e+00	3.071259e-03
2.090000e-06	-3.997009e-07	2.753124e-11	-3.301823e+00	3.479988e-03
2.100000e-06	-3.959700e-07	2.552560e-11	-3.271004e+00	3.852849e-03
2.110000e-06	-3.922305e-07	2.552674e-11	-3.240112e+00	4.182725e-03
2.120000e-06	-3.884796e-07	3.070012e-11	-3.209127e+00	4.463970e-03
2.130000e-06	-3.847217e-07	4.171946e-11	-3.178084e+00	4.692619e-03
2.140000e-06	-3.809617e-07	5.057579e-11	-3.147024e+00	4.866527e-03
2.150000e-06	-3.771953e-07	5.409994e-11	-3.115911e+00	4.985425e-03
2.160000e-06	-3.734136e-07	5.437637e-11	-3.084671e+00	5.050891e-03
2.170000e-06	-3.696209e-07	5.286926e-11	-3.053341e+00	5.066234e-03
2.180000e-06	-3.658171e-07	5.037556e-11	-3.021919e+00	5.036305e-03
2.190000e-06	-3.620047e-07	4.604762e-11	-2.990425e+00	4.967242e-03
2.200000e-06	-3.581867e-07	4.382332e-11	-2.958886e+00	4.866147e-03
2.210000e-06	-3.543651e-07	4.402011e-11	-2.927316e+00	4.740737e-03
2.220000e-06	-3.505349e-07	4.339982e-11	-2.895676e+00	4.598956e-03
2.230000e-06	-3.466835e-07	4.227064e-11	-2.863861e+00	4.448596e-03
2.240000e-06	-3.428168e-07	4.633274e-11	-2.831919e+00	4.296918e-03
2.250000e-06	-3.389481e-07	5.494326e-11	-2.799961e+00	4.150308e-03
2.260000e-06	-3.350804e-07	5.722083e-11	-2.768011e+00	4.013981e-03
2.270000e-06	-3.312062e-07	5.075258e-11	-2.736007e+00	3.891738e-03
2.280000e-06	-3.273190e-07	4.240862e-11	-2.703896e+00	3.785808e-03
2.290000e-06	-3.234203e-07	3.899425e-11	-2.671690e+00	3.696754e-03
2.300000e-06	-3.195075e-07	3.731481e-11	-2.639367e+00	3.623471e-03
2.310000e-06	-3.155878e-07	3.406821e-11	-2.606988e+00	3.563271e-03
2.320000e-06	-3.116723e-07	3.357519e-11	-2.574643e+00	3.512032e-03
2.330000e-06	-3.077548e-07	3.780633e-11	-2.542281e+00	3.464439e-03
2.340000e-06	-3.038241e-07	4.351274e-11	-2.509811e+00	3.414272e-03
2.350000e-06	-2.998862e-07	4.270248e-11	-2.477280e+00	3.354741e-03
2.360000e-06	-2.959441e-07	3.830713e-11	-2.444716e+00	3.278860e-03
2.370000e-06	-2.919869e-07	3.593595e-11	-2.412026e+00	3.179826e-03
2.380000e-06	-2.880184e-07	3.354849e-11	-2.379244e+00	3.051396e-03
2.390000e-06	-2.840459e-07	2.645879e-11	-2.346428e+00	2.888236e-03
2.400000e-06	-2.800681e-07	1.681273e-11	-2.313569e+00	2.686239e-03
2.410000e-06	-2.760870e-07	1.369339e-11	-2.280682e+00	2.442775e-03
2.420000e-06	-2.720850e-07	1.751943e-11	-2.247623e+00	2.156883e-03
2.430000e-06	-2.680757e-07	2.224539e-11	-2.214502e+00	1.829380e-03
2.440000e-06	-2.640686e-07	2.368315e-11	-2.181401e+00	1.462889e-03
2.450000e-06	-2.600607e-07	2.590499e-11	-2.148292e+00	1.061783e-03
2.460000e-06	-2.560526e-07	2.940945e-11	-2.115183e+00	6.320458e-04
2.470000e-06	-2.520335e-07	2.718625e-11	-2.081982e+00	1.810586e-04
2.480000e-06	-2.479942e-07	1.777355e-11	-2.048614e+00	-2.826841e-04
2.490000e-06	-2.439345e-07	8.669453e-12	-2.015078e+00	-7.499064e-04
2.500000e-06	-2.398727e-07	7.481148e-12	-1.981525e+00	-1.210924e-03
2.510000e-06	-2.358159e-07	1.055005e-11	-1.948013e+00	-1.656038e-03
2.520000e-06	-2.317488e-07	1.165140e-11	-1.914416e+00	-2.075926e-03
2.530000e-06	-2.276671e-07	1.485240e-11	-1.880698e+00	-2.462028e-03
2.540000e-06	-2.235884e-07	2.183613e-11	-1.847005e+00	-2.806887e-03
2.550000e-06	-2.195103e-07	2.735985e-11	-1.813316e+00	-3.104444e-03
2.560000e-06	-2.154314e-07	2.400461e-11	-1.779622e+00	-3.350277e-03
2.570000e-06	-2.113494e-07	1.598664e-11	-1.745901e+00	-3.541752e-03
2.580000e-06	-2.072576e-07	1.185996e-11	-1.712100e+00	-3.678106e-03
2.590000e-06	-2.031593e-07	1.166002e-11	-1.678246e+00	-3.760439e-03
2.600000e-06	-1.990612e-07	1.082457e-11	-1.644392e+00	-3.791619e-03
2.610000e-06	-1.949572e-07	1.227400e-11	-1.610490e+00	-3.776115e-03
2.620000e-06	-1.908487e-07	2.044667e-11	-1.576550e+00	-3.719754e-03
2.630000e-06	-1.867418e-07	2.886482e-11	-1.542625e+00	-3.629417e-03
2.640000e-06	-1.826315e-07	3.002032e-11	-1.508671e+00	-3.512696e-03
2.650000e-06	-1.785160e-07	2.750655e-11	-1.474673e+00	-3.377514e-03
2.660000e-06	-1.743945e-07	3.044086e-11	-1.440627e+00	-3.231738e-03
2.670000e-06	-1.702681e-07	3.643192e-11	-1.406539e+00	-3.082806e-03
2.680000e-06	-1.661433e-07	3.835553e-11	-1.372466e+00	-2.937363e-03
2.690000e-06	-1.620239e-07	3.553442e-11	-1.338437e+00	-2.800958e-03
2.700000e-06	-1.579003e-07	3.437075e-11	-1.304372e+00	-2.677785e-03
2.710000e-06	-1.537705e-07	3.764238e-11	-1.270257e+00	-2.570497e-03
2.720000e-06	-1.496392e-07	3.907609e-11	-1.236130e+00	-2.480100e-03
2.730000e-06	-1.455097e-07	3.551945e-11	-1.202017e+00	-2.405924e-03
2.740000e-06	-1.413747e-07	3.456597e-11	-1.167859e+00	-2.345684e-03
2.750000e-06	-1.372332e-07	4.136955e-11	-1.133647e+00	-2.295617e-03
2.760000e-06	-1.330937e-07	5.146084e-11	-1.099452e+00	-2.250696e-03
2.770000e-06	-1.289538e-07	5.656699e-11	-1.065253e+00	-2.204906e-03
2.780000e-06	-1.248159e-07	5.441044e-11	-1.031072e+00	-2.151574e-03
2.790000e-06	-1.206755e-07	5.060506e-11	-9.968681e-01	-2.083728e-03
2.800000e-06	-1.165266e-07	4.865353e-11	-9.625956e-01	-1.994480e-03
2.810000e-06	-1.123782e-07	4.601944e-11	-9.283270e-01	-1.877405e-03
2.820000e-06	-1.082320e-07	4.523911e-11	-8.940757e-01	-1.726896e-03
2.830000e-06	-1.040854e-07	4.789636e-11	-8.598224e-01	-1.538498e-03
2.840000e-06	-9.993396e-08	5.271855e-11	-8.255280e-01	-1.309169e-03
2.850000e-06	-9.578214e-08	5.754070e-11	-7.912309e-01	-1.037495e-03
2.860000e-06	-9.163511e-08	5.798404e-11	-7.569734e-01	-7.238197e-04
2.870000e-06	-8.748526e-08	5.589434e-11	-7.226926e-01	-3.702927e-04
2.880000e-06	-8.332133e-08	5.310914e-11	-6.882955e-01	1.916317e-05
2.890000e-06	-7.914888e-08	4.997724e-11	-6.538280e-01	4.389698e-04
2.900000e-06	-7.498313e-08	4.375846e-11	-6.194159e-01	8.820898e-04
