# Temperatura_=_20.0
# Concentracion g/m^3_=_10000.0
# C_Vs_to_Am_M_A/Vsm_=_65563218390.804596
# pendiente_HvsI_1/m_=_3716.3
# ordenada_HvsI_A/m_=_1297.0
# frecuencia_Hz_=_81114.73480056881

Tiempo_(s)	Campo_(V.s)	Magnetizacion_(V.s)	Campo_(kA/m)	Magnetizacion_(A/m)
0.000000e+00	-8.322972e-07	-1.269128e-09	-6.867478e+00	-8.392087e+01
1.000000e-08	-8.322722e-07	-1.284577e-09	-6.867271e+00	-8.401644e+01
2.000000e-08	-8.322332e-07	-1.296287e-09	-6.866949e+00	-8.411617e+01
3.000000e-08	-8.321799e-07	-1.298174e-09	-6.866510e+00	-8.421823e+01
4.000000e-08	-8.321262e-07	-1.291111e-09	-6.866066e+00	-8.432084e+01
5.000000e-08	-8.320715e-07	-1.281685e-09	-6.865616e+00	-8.442228e+01
6.000000e-08	-8.319902e-07	-1.279295e-09	-6.864944e+00	-8.452103e+01
7.000000e-08	-8.318767e-07	-1.276587e-09	-6.864008e+00	-8.461575e+01
8.000000e-08	-8.317470e-07	-1.276589e-09	-6.862938e+00	-8.470539e+01
9.000000e-08	-8.316050e-07	-1.280871e-09	-6.861766e+00	-8.478916e+01
1.000000e-07	-8.314439e-07	-1.282021e-09	-6.860436e+00	-8.486662e+01
1.100000e-07	-8.312578e-07	-1.289127e-09	-6.858902e+00	-8.493757e+01
1.200000e-07	-8.310415e-07	-1.302792e-09	-6.857116e+00	-8.500214e+01
1.300000e-07	-8.307999e-07	-1.308417e-09	-6.855123e+00	-8.506068e+01
1.400000e-07	-8.305440e-07	-1.301654e-09	-6.853012e+00	-8.511373e+01
1.500000e-07	-8.302568e-07	-1.287402e-09	-6.850642e+00	-8.516198e+01
1.600000e-07	-8.299334e-07	-1.272818e-09	-6.847973e+00	-8.520623e+01
1.700000e-07	-8.295681e-07	-1.266322e-09	-6.844959e+00	-8.524725e+01
1.800000e-07	-8.291548e-07	-1.280271e-09	-6.841549e+00	-8.528581e+01
1.900000e-07	-8.287126e-07	-1.305906e-09	-6.837900e+00	-8.532256e+01
2.000000e-07	-8.282502e-07	-1.317137e-09	-6.834085e+00	-8.535801e+01
2.100000e-07	-8.277750e-07	-1.318880e-09	-6.830164e+00	-8.539248e+01
2.200000e-07	-8.272911e-07	-1.308419e-09	-6.826171e+00	-8.542606e+01
2.300000e-07	-8.267870e-07	-1.300874e-09	-6.822012e+00	-8.545864e+01
2.400000e-07	-8.262686e-07	-1.296452e-09	-6.817734e+00	-8.548985e+01
2.500000e-07	-8.257435e-07	-1.303664e-09	-6.813401e+00	-8.551911e+01
2.600000e-07	-8.252058e-07	-1.313825e-09	-6.808965e+00	-8.554566e+01
2.700000e-07	-8.246404e-07	-1.300769e-09	-6.804299e+00	-8.556857e+01
2.800000e-07	-8.240574e-07	-1.294851e-09	-6.799489e+00	-8.558680e+01
2.900000e-07	-8.234761e-07	-1.293153e-09	-6.794692e+00	-8.559925e+01
3.000000e-07	-8.228809e-07	-1.292678e-09	-6.789782e+00	-8.560481e+01
3.100000e-07	-8.222432e-07	-1.300208e-09	-6.784519e+00	-8.560241e+01
3.200000e-07	-8.215661e-07	-1.305883e-09	-6.778933e+00	-8.559109e+01
3.300000e-07	-8.208697e-07	-1.311848e-09	-6.773187e+00	-8.557002e+01
3.400000e-07	-8.201600e-07	-1.311922e-09	-6.767331e+00	-8.553854e+01
3.500000e-07	-8.194411e-07	-1.310793e-09	-6.761399e+00	-8.549620e+01
3.600000e-07	-8.187018e-07	-1.302815e-09	-6.755299e+00	-8.544277e+01
3.700000e-07	-8.179285e-07	-1.290716e-09	-6.748918e+00	-8.537823e+01
3.800000e-07	-8.171206e-07	-1.284115e-09	-6.742252e+00	-8.530279e+01
3.900000e-07	-8.162966e-07	-1.283121e-09	-6.735453e+00	-8.521684e+01
4.000000e-07	-8.154555e-07	-1.298933e-09	-6.728512e+00	-8.512094e+01
4.100000e-07	-8.145933e-07	-1.309520e-09	-6.721398e+00	-8.501580e+01
4.200000e-07	-8.137186e-07	-1.310056e-09	-6.714181e+00	-8.490219e+01
4.300000e-07	-8.128215e-07	-1.296648e-09	-6.706779e+00	-8.478096e+01
4.400000e-07	-8.119090e-07	-1.283550e-09	-6.699250e+00	-8.465295e+01
4.500000e-07	-8.109901e-07	-1.281057e-09	-6.691667e+00	-8.451897e+01
4.600000e-07	-8.100515e-07	-1.279768e-09	-6.683923e+00	-8.437975e+01
4.700000e-07	-8.090805e-07	-1.279236e-09	-6.675911e+00	-8.423594e+01
4.800000e-07	-8.081035e-07	-1.271134e-09	-6.667850e+00	-8.408807e+01
4.900000e-07	-8.071409e-07	-1.269116e-09	-6.659907e+00	-8.393653e+01
5.000000e-07	-8.061477e-07	-1.271419e-09	-6.651712e+00	-8.378159e+01
5.100000e-07	-8.051001e-07	-1.271118e-09	-6.643068e+00	-8.362341e+01
5.200000e-07	-8.040140e-07	-1.269838e-09	-6.634106e+00	-8.346204e+01
5.300000e-07	-8.029017e-07	-1.268058e-09	-6.624928e+00	-8.329746e+01
5.400000e-07	-8.017504e-07	-1.268591e-09	-6.615429e+00	-8.312962e+01
5.500000e-07	-8.005482e-07	-1.260633e-09	-6.605509e+00	-8.295845e+01
5.600000e-07	-7.993179e-07	-1.247877e-09	-6.595358e+00	-8.278391e+01
5.700000e-07	-7.980650e-07	-1.235442e-09	-6.585020e+00	-8.260604e+01
5.800000e-07	-7.967885e-07	-1.231407e-09	-6.574487e+00	-8.242496e+01
5.900000e-07	-7.954948e-07	-1.235947e-09	-6.563813e+00	-8.224092e+01
6.000000e-07	-7.941866e-07	-1.240474e-09	-6.553018e+00	-8.205431e+01
6.100000e-07	-7.928601e-07	-1.249051e-09	-6.542073e+00	-8.186568e+01
6.200000e-07	-7.915054e-07	-1.256025e-09	-6.530895e+00	-8.167572e+01
6.300000e-07	-7.901330e-07	-1.258445e-09	-6.519571e+00	-8.148526e+01
6.400000e-07	-7.887403e-07	-1.251849e-09	-6.508080e+00	-8.129525e+01
6.500000e-07	-7.873149e-07	-1.242236e-09	-6.496318e+00	-8.110673e+01
6.600000e-07	-7.858700e-07	-1.236694e-09	-6.484396e+00	-8.092081e+01
6.700000e-07	-7.844176e-07	-1.232345e-09	-6.472412e+00	-8.073858e+01
6.800000e-07	-7.829498e-07	-1.229678e-09	-6.460301e+00	-8.056114e+01
6.900000e-07	-7.814558e-07	-1.226688e-09	-6.447973e+00	-8.038949e+01
7.000000e-07	-7.799473e-07	-1.228765e-09	-6.435527e+00	-8.022452e+01
7.100000e-07	-7.784170e-07	-1.232122e-09	-6.422899e+00	-8.006695e+01
7.200000e-07	-7.768461e-07	-1.234646e-09	-6.409938e+00	-7.991731e+01
7.300000e-07	-7.752534e-07	-1.234985e-09	-6.396796e+00	-7.977592e+01
7.400000e-07	-7.736403e-07	-1.228897e-09	-6.383486e+00	-7.964285e+01
7.500000e-07	-7.719836e-07	-1.221829e-09	-6.369816e+00	-7.951793e+01
7.600000e-07	-7.703074e-07	-1.213002e-09	-6.355986e+00	-7.940074e+01
7.700000e-07	-7.686318e-07	-1.207562e-09	-6.342160e+00	-7.929065e+01
7.800000e-07	-7.669230e-07	-1.206561e-09	-6.328060e+00	-7.918681e+01
7.900000e-07	-7.651747e-07	-1.209366e-09	-6.313634e+00	-7.908817e+01
8.000000e-07	-7.634013e-07	-1.216944e-09	-6.299002e+00	-7.899358e+01
8.100000e-07	-7.616062e-07	-1.223055e-09	-6.284190e+00	-7.890176e+01
8.200000e-07	-7.597999e-07	-1.227167e-09	-6.269285e+00	-7.881138e+01
8.300000e-07	-7.579756e-07	-1.224188e-09	-6.254233e+00	-7.872108e+01
8.400000e-07	-7.561316e-07	-1.219543e-09	-6.239018e+00	-7.862954e+01
8.500000e-07	-7.542801e-07	-1.215520e-09	-6.223741e+00	-7.853551e+01
8.600000e-07	-7.524235e-07	-1.210304e-09	-6.208421e+00	-7.843779e+01
8.700000e-07	-7.505435e-07	-1.205016e-09	-6.192909e+00	-7.833536e+01
8.800000e-07	-7.486396e-07	-1.198643e-09	-6.177200e+00	-7.822727e+01
8.900000e-07	-7.467159e-07	-1.197234e-09	-6.161326e+00	-7.811276e+01
9.000000e-07	-7.447720e-07	-1.197697e-09	-6.145287e+00	-7.799121e+01
9.100000e-07	-7.428133e-07	-1.199274e-09	-6.129125e+00	-7.786212e+01
9.200000e-07	-7.408276e-07	-1.200251e-09	-6.112741e+00	-7.772515e+01
9.300000e-07	-7.388075e-07	-1.201139e-09	-6.096072e+00	-7.758005e+01
9.400000e-07	-7.367627e-07	-1.204821e-09	-6.079200e+00	-7.742670e+01
9.500000e-07	-7.347035e-07	-1.203253e-09	-6.062209e+00	-7.726503e+01
9.600000e-07	-7.326336e-07	-1.195149e-09	-6.045130e+00	-7.709504e+01
9.700000e-07	-7.305461e-07	-1.181623e-09	-6.027905e+00	-7.691678e+01
9.800000e-07	-7.284365e-07	-1.171974e-09	-6.010499e+00	-7.673031e+01
9.900000e-07	-7.263173e-07	-1.169491e-09	-5.993013e+00	-7.653573e+01
1.000000e-06	-7.241917e-07	-1.168149e-09	-5.975474e+00	-7.633313e+01
1.010000e-06	-7.220641e-07	-1.168952e-09	-5.957919e+00	-7.612262e+01
1.020000e-06	-7.199210e-07	-1.169155e-09	-5.940236e+00	-7.590432e+01
1.030000e-06	-7.177553e-07	-1.170593e-09	-5.922366e+00	-7.567837e+01
1.040000e-06	-7.155841e-07	-1.168621e-09	-5.904450e+00	-7.544495e+01
1.050000e-06	-7.133993e-07	-1.159143e-09	-5.886424e+00	-7.520426e+01
1.060000e-06	-7.111914e-07	-1.146856e-09	-5.868205e+00	-7.495660e+01
1.070000e-06	-7.089611e-07	-1.136006e-09	-5.849803e+00	-7.470230e+01
1.080000e-06	-7.067070e-07	-1.130717e-09	-5.831204e+00	-7.444179e+01
1.090000e-06	-7.044345e-07	-1.127144e-09	-5.812453e+00	-7.417560e+01
1.100000e-06	-7.021500e-07	-1.125791e-09	-5.793603e+00	-7.390434e+01
1.110000e-06	-6.998520e-07	-1.128070e-09	-5.774641e+00	-7.362872e+01
1.120000e-06	-6.975365e-07	-1.131815e-09	-5.755536e+00	-7.334950e+01
1.130000e-06	-6.952014e-07	-1.131312e-09	-5.736268e+00	-7.306755e+01
1.140000e-06	-6.928475e-07	-1.126080e-09	-5.716845e+00	-7.278374e+01
1.150000e-06	-6.904795e-07	-1.120498e-09	-5.697306e+00	-7.249899e+01
1.160000e-06	-6.880894e-07	-1.111854e-09	-5.677586e+00	-7.221420e+01
1.170000e-06	-6.856825e-07	-1.102475e-09	-5.657725e+00	-7.193021e+01
1.180000e-06	-6.832631e-07	-1.094767e-09	-5.637762e+00	-7.164782e+01
1.190000e-06	-6.808238e-07	-1.089045e-09	-5.617636e+00	-7.136768e+01
1.200000e-06	-6.783712e-07	-1.085201e-09	-5.597399e+00	-7.109034e+01
1.210000e-06	-6.759011e-07	-1.083135e-09	-5.577017e+00	-7.081619e+01
1.220000e-06	-6.734117e-07	-1.084687e-09	-5.556476e+00	-7.054543e+01
1.230000e-06	-6.709067e-07	-1.086815e-09	-5.535807e+00	-7.027812e+01
1.240000e-06	-6.683988e-07	-1.087959e-09	-5.515114e+00	-7.001409e+01
1.250000e-06	-6.658829e-07	-1.089387e-09	-5.494354e+00	-6.975306e+01
1.260000e-06	-6.633492e-07	-1.085959e-09	-5.473448e+00	-6.949456e+01
1.270000e-06	-6.608014e-07	-1.076620e-09	-5.452426e+00	-6.923803e+01
1.280000e-06	-6.582349e-07	-1.066369e-09	-5.431249e+00	-6.898281e+01
1.290000e-06	-6.556530e-07	-1.059488e-09	-5.409945e+00	-6.872821e+01
1.300000e-06	-6.530528e-07	-1.055981e-09	-5.388490e+00	-6.847352e+01
1.310000e-06	-6.504404e-07	-1.056291e-09	-5.366935e+00	-6.821810e+01
1.320000e-06	-6.478088e-07	-1.059701e-09	-5.345221e+00	-6.796139e+01
1.330000e-06	-6.451469e-07	-1.062722e-09	-5.323257e+00	-6.770296e+01
1.340000e-06	-6.424634e-07	-1.060829e-09	-5.301114e+00	-6.744255e+01
1.350000e-06	-6.397371e-07	-1.051367e-09	-5.278619e+00	-6.718009e+01
1.360000e-06	-6.369615e-07	-1.042047e-09	-5.255718e+00	-6.691573e+01
1.370000e-06	-6.341691e-07	-1.036238e-09	-5.232676e+00	-6.664982e+01
1.380000e-06	-6.313691e-07	-1.029547e-09	-5.209573e+00	-6.638292e+01
1.390000e-06	-6.285364e-07	-1.021696e-09	-5.186200e+00	-6.611581e+01
1.400000e-06	-6.256662e-07	-1.016572e-09	-5.162517e+00	-6.584941e+01
1.410000e-06	-6.227791e-07	-1.018622e-09	-5.138695e+00	-6.558477e+01
1.420000e-06	-6.198814e-07	-1.022725e-09	-5.114786e+00	-6.532303e+01
1.430000e-06	-6.169767e-07	-1.022343e-09	-5.090818e+00	-6.506537e+01
1.440000e-06	-6.140676e-07	-1.019461e-09	-5.066814e+00	-6.481291e+01
1.450000e-06	-6.111479e-07	-1.016927e-09	-5.042723e+00	-6.456672e+01
1.460000e-06	-6.082203e-07	-1.012009e-09	-5.018567e+00	-6.432770e+01
1.470000e-06	-6.052879e-07	-1.000356e-09	-4.994371e+00	-6.409658e+01
1.480000e-06	-6.023465e-07	-9.884669e-10	-4.970101e+00	-6.387385e+01
1.490000e-06	-5.993921e-07	-9.814677e-10	-4.945723e+00	-6.365971e+01
1.500000e-06	-5.964244e-07	-9.796605e-10	-4.921237e+00	-6.345411e+01
1.510000e-06	-5.934446e-07	-9.789581e-10	-4.896649e+00	-6.325664e+01
1.520000e-06	-5.904440e-07	-9.767225e-10	-4.871891e+00	-6.306662e+01
1.530000e-06	-5.874149e-07	-9.768344e-10	-4.846897e+00	-6.288306e+01
1.540000e-06	-5.843657e-07	-9.806218e-10	-4.821737e+00	-6.270473e+01
1.550000e-06	-5.813086e-07	-9.822184e-10	-4.796512e+00	-6.253014e+01
1.560000e-06	-5.782400e-07	-9.754160e-10	-4.771193e+00	-6.235765e+01
1.570000e-06	-5.751611e-07	-9.686942e-10	-4.745788e+00	-6.218546e+01
1.580000e-06	-5.720739e-07	-9.660186e-10	-4.720315e+00	-6.201173e+01
1.590000e-06	-5.689762e-07	-9.620700e-10	-4.694755e+00	-6.183460e+01
1.600000e-06	-5.658615e-07	-9.555218e-10	-4.669054e+00	-6.165228e+01
1.610000e-06	-5.627213e-07	-9.516195e-10	-4.643144e+00	-6.146305e+01
1.620000e-06	-5.595709e-07	-9.530430e-10	-4.617150e+00	-6.126540e+01
1.630000e-06	-5.564201e-07	-9.548333e-10	-4.591151e+00	-6.105801e+01
1.640000e-06	-5.532579e-07	-9.539671e-10	-4.565059e+00	-6.083978e+01
1.650000e-06	-5.500815e-07	-9.491307e-10	-4.538850e+00	-6.060990e+01
1.660000e-06	-5.468979e-07	-9.422838e-10	-4.512582e+00	-6.036783e+01
1.670000e-06	-5.437114e-07	-9.341460e-10	-4.486289e+00	-6.011331e+01
1.680000e-06	-5.405123e-07	-9.244449e-10	-4.459893e+00	-5.984635e+01
1.690000e-06	-5.372840e-07	-9.158214e-10	-4.433255e+00	-5.956722e+01
1.700000e-06	-5.340269e-07	-9.096479e-10	-4.406380e+00	-5.927641e+01
1.710000e-06	-5.307520e-07	-9.106090e-10	-4.379358e+00	-5.897459e+01
1.720000e-06	-5.274729e-07	-9.137724e-10	-4.352301e+00	-5.866260e+01
1.730000e-06	-5.241991e-07	-9.104681e-10	-4.325288e+00	-5.834139e+01
1.740000e-06	-5.209141e-07	-9.038929e-10	-4.298183e+00	-5.801196e+01
1.750000e-06	-5.176082e-07	-8.969496e-10	-4.270905e+00	-5.767536e+01
1.760000e-06	-5.142930e-07	-8.910831e-10	-4.243551e+00	-5.733263e+01
1.770000e-06	-5.109734e-07	-8.826191e-10	-4.216160e+00	-5.698475e+01
1.780000e-06	-5.076451e-07	-8.735810e-10	-4.188698e+00	-5.663266e+01
1.790000e-06	-5.043066e-07	-8.677606e-10	-4.161151e+00	-5.627718e+01
1.800000e-06	-5.009619e-07	-8.660293e-10	-4.133553e+00	-5.591907e+01
1.810000e-06	-4.976027e-07	-8.666421e-10	-4.105835e+00	-5.555895e+01
1.820000e-06	-4.942262e-07	-8.634172e-10	-4.077975e+00	-5.519735e+01
1.830000e-06	-4.908478e-07	-8.580608e-10	-4.050099e+00	-5.483471e+01
1.840000e-06	-4.874621e-07	-8.532083e-10	-4.022163e+00	-5.447136e+01
1.850000e-06	-4.840664e-07	-8.510428e-10	-3.994144e+00	-5.410757e+01
1.860000e-06	-4.806485e-07	-8.464918e-10	-3.965942e+00	-5.374358e+01
1.870000e-06	-4.772127e-07	-8.383965e-10	-3.937593e+00	-5.337955e+01
1.880000e-06	-4.737673e-07	-8.318588e-10	-3.909164e+00	-5.301565e+01
1.890000e-06	-4.702897e-07	-8.261690e-10	-3.880469e+00	-5.265205e+01
1.900000e-06	-4.667903e-07	-8.181214e-10	-3.851595e+00	-5.228892e+01
1.910000e-06	-4.632700e-07	-8.081069e-10	-3.822549e+00	-5.192646e+01
1.920000e-06	-4.597185e-07	-8.031078e-10	-3.793244e+00	-5.156490e+01
1.930000e-06	-4.561444e-07	-8.027785e-10	-3.763754e+00	-5.120449e+01
1.940000e-06	-4.525625e-07	-8.023337e-10	-3.734198e+00	-5.084552e+01
1.950000e-06	-4.489731e-07	-8.004390e-10	-3.704581e+00	-5.048832e+01
1.960000e-06	-4.453542e-07	-7.964214e-10	-3.674721e+00	-5.013320e+01
1.970000e-06	-4.417098e-07	-7.897372e-10	-3.644650e+00	-4.978051e+01
1.980000e-06	-4.380466e-07	-7.797517e-10	-3.614425e+00	-4.943059e+01
1.990000e-06	-4.343655e-07	-7.689775e-10	-3.584051e+00	-4.908375e+01
2.000000e-06	-4.306802e-07	-7.610255e-10	-3.553643e+00	-4.874027e+01
2.010000e-06	-4.269924e-07	-7.566271e-10	-3.523213e+00	-4.840040e+01
2.020000e-06	-4.232975e-07	-7.558962e-10	-3.492726e+00	-4.806433e+01
2.030000e-06	-4.195949e-07	-7.557009e-10	-3.462175e+00	-4.773218e+01
2.040000e-06	-4.158832e-07	-7.564062e-10	-3.431549e+00	-4.740402e+01
2.050000e-06	-4.121651e-07	-7.572653e-10	-3.400870e+00	-4.707984e+01
2.060000e-06	-4.084451e-07	-7.538676e-10	-3.370175e+00	-4.675956e+01
2.070000e-06	-4.047178e-07	-7.461351e-10	-3.339421e+00	-4.644301e+01
2.080000e-06	-4.009823e-07	-7.364064e-10	-3.308598e+00	-4.612998e+01
2.090000e-06	-3.972447e-07	-7.272137e-10	-3.277758e+00	-4.582018e+01
2.100000e-06	-3.934984e-07	-7.190608e-10	-3.246847e+00	-4.551324e+01
2.110000e-06	-3.897478e-07	-7.151607e-10	-3.215900e+00	-4.520878e+01
2.120000e-06	-3.859991e-07	-7.158695e-10	-3.184968e+00	-4.490632e+01
2.130000e-06	-3.822331e-07	-7.187731e-10	-3.153894e+00	-4.460536e+01
2.140000e-06	-3.784581e-07	-7.194925e-10	-3.122746e+00	-4.430537e+01
2.150000e-06	-3.746809e-07	-7.145810e-10	-3.091579e+00	-4.400575e+01
2.160000e-06	-3.708973e-07	-7.070932e-10	-3.060360e+00	-4.370590e+01
2.170000e-06	-3.670954e-07	-6.983573e-10	-3.028990e+00	-4.340514e+01
2.180000e-06	-3.632699e-07	-6.901981e-10	-2.997424e+00	-4.310281e+01
2.190000e-06	-3.594267e-07	-6.850746e-10	-2.965713e+00	-4.279818e+01
2.200000e-06	-3.555809e-07	-6.809734e-10	-2.933981e+00	-4.249051e+01
2.210000e-06	-3.517420e-07	-6.761659e-10	-2.902305e+00	-4.217903e+01
2.220000e-06	-3.478915e-07	-6.726030e-10	-2.870534e+00	-4.186294e+01
2.230000e-06	-3.440275e-07	-6.742849e-10	-2.838651e+00	-4.154144e+01
2.240000e-06	-3.401497e-07	-6.745464e-10	-2.806654e+00	-4.121371e+01
2.250000e-06	-3.362662e-07	-6.674929e-10	-2.774611e+00	-4.087894e+01
2.260000e-06	-3.323797e-07	-6.573909e-10	-2.742542e+00	-4.053635e+01
2.270000e-06	-3.284876e-07	-6.488501e-10	-2.710428e+00	-4.018518e+01
2.280000e-06	-3.245851e-07	-6.408510e-10	-2.678227e+00	-3.982473e+01
2.290000e-06	-3.206715e-07	-6.299168e-10	-2.645935e+00	-3.945435e+01
2.300000e-06	-3.167501e-07	-6.203719e-10	-2.613579e+00	-3.907352e+01
2.310000e-06	-3.128260e-07	-6.171012e-10	-2.581200e+00	-3.868181e+01
2.320000e-06	-3.088875e-07	-6.193889e-10	-2.548703e+00	-3.827890e+01
2.330000e-06	-3.049254e-07	-6.208650e-10	-2.516011e+00	-3.786466e+01
2.340000e-06	-3.009608e-07	-6.162181e-10	-2.483297e+00	-3.743909e+01
2.350000e-06	-2.969951e-07	-6.097231e-10	-2.450576e+00	-3.700237e+01
2.360000e-06	-2.930306e-07	-6.033996e-10	-2.417863e+00	-3.655486e+01
2.370000e-06	-2.890700e-07	-5.914239e-10	-2.385184e+00	-3.609710e+01
2.380000e-06	-2.851028e-07	-5.735426e-10	-2.352450e+00	-3.562979e+01
2.390000e-06	-2.811228e-07	-5.572770e-10	-2.319610e+00	-3.515381e+01
2.400000e-06	-2.771352e-07	-5.486938e-10	-2.286707e+00	-3.467018e+01
2.410000e-06	-2.731413e-07	-5.450400e-10	-2.253752e+00	-3.418005e+01
2.420000e-06	-2.691404e-07	-5.392305e-10	-2.220740e+00	-3.368467e+01
2.430000e-06	-2.651231e-07	-5.329374e-10	-2.187592e+00	-3.318538e+01
2.440000e-06	-2.611026e-07	-5.296748e-10	-2.154418e+00	-3.268354e+01
2.450000e-06	-2.570815e-07	-5.250324e-10	-2.121239e+00	-3.218055e+01
2.460000e-06	-2.530501e-07	-5.130876e-10	-2.087975e+00	-3.167776e+01
2.470000e-06	-2.490113e-07	-4.972391e-10	-2.054650e+00	-3.117650e+01
2.480000e-06	-2.449626e-07	-4.834824e-10	-2.021243e+00	-3.067801e+01
2.490000e-06	-2.409145e-07	-4.739206e-10	-1.987842e+00	-3.018341e+01
2.500000e-06	-2.368607e-07	-4.687938e-10	-1.954392e+00	-2.969371e+01
2.510000e-06	-2.328182e-07	-4.633974e-10	-1.921037e+00	-2.920979e+01
2.520000e-06	-2.287734e-07	-4.587748e-10	-1.887662e+00	-2.873235e+01
2.530000e-06	-2.246984e-07	-4.560060e-10	-1.854039e+00	-2.826195e+01
2.540000e-06	-2.206140e-07	-4.519560e-10	-1.820337e+00	-2.779899e+01
2.550000e-06	-2.165314e-07	-4.436273e-10	-1.786651e+00	-2.734372e+01
2.560000e-06	-2.124466e-07	-4.299027e-10	-1.752946e+00	-2.689624e+01
2.570000e-06	-2.083435e-07	-4.188038e-10	-1.719091e+00	-2.645651e+01
2.580000e-06	-2.042292e-07	-4.126249e-10	-1.685142e+00	-2.602440e+01
2.590000e-06	-2.001253e-07	-4.033072e-10	-1.651281e+00	-2.559966e+01
2.600000e-06	-1.960237e-07	-3.931039e-10	-1.617437e+00	-2.518199e+01
2.610000e-06	-1.919158e-07	-3.892585e-10	-1.583542e+00	-2.477102e+01
2.620000e-06	-1.878053e-07	-3.903249e-10	-1.549625e+00	-2.436633e+01
2.630000e-06	-1.836925e-07	-3.883663e-10	-1.515690e+00	-2.396749e+01
2.640000e-06	-1.795794e-07	-3.822457e-10	-1.481751e+00	-2.357408e+01
2.650000e-06	-1.754648e-07	-3.783459e-10	-1.447801e+00	-2.318566e+01
2.660000e-06	-1.713491e-07	-3.770832e-10	-1.413841e+00	-2.280182e+01
2.670000e-06	-1.672307e-07	-3.746608e-10	-1.379859e+00	-2.242216e+01
2.680000e-06	-1.631119e-07	-3.651297e-10	-1.345874e+00	-2.204632e+01
2.690000e-06	-1.589928e-07	-3.518465e-10	-1.311887e+00	-2.167394e+01
2.700000e-06	-1.548685e-07	-3.441027e-10	-1.277856e+00	-2.130470e+01
2.710000e-06	-1.507442e-07	-3.389066e-10	-1.243826e+00	-2.093829e+01
2.720000e-06	-1.466173e-07	-3.312019e-10	-1.209774e+00	-2.057442e+01
2.730000e-06	-1.424846e-07	-3.234633e-10	-1.175673e+00	-2.021279e+01
2.740000e-06	-1.383487e-07	-3.215826e-10	-1.141547e+00	-1.985311e+01
2.750000e-06	-1.342117e-07	-3.240055e-10	-1.107412e+00	-1.949509e+01
2.760000e-06	-1.300715e-07	-3.215672e-10	-1.073250e+00	-1.913842e+01
2.770000e-06	-1.259303e-07	-3.103964e-10	-1.039080e+00	-1.878277e+01
2.780000e-06	-1.217912e-07	-2.979561e-10	-1.004927e+00	-1.842780e+01
2.790000e-06	-1.176456e-07	-2.926805e-10	-9.707213e-01	-1.807314e+01
2.800000e-06	-1.134984e-07	-2.888741e-10	-9.365013e-01	-1.771842e+01
2.810000e-06	-1.093470e-07	-2.827509e-10	-9.022471e-01	-1.736323e+01
2.820000e-06	-1.051884e-07	-2.775541e-10	-8.679339e-01	-1.700715e+01
2.830000e-06	-1.010277e-07	-2.747861e-10	-8.336034e-01	-1.664975e+01
2.840000e-06	-9.686913e-08	-2.726812e-10	-7.992897e-01	-1.629058e+01
