# Temperatura_=_20.0
# Concentracion g/m^3_=_10000.0
# C_Vs_to_Am_M_A/Vsm_=_65563218390.804596
# pendiente_HvsI_1/m_=_3716.3
# ordenada_HvsI_A/m_=_1297.0
# frecuencia_Hz_=_81116.32096118566

Tiempo_(s)	Campo_(V.s)	Magnetizacion_(V.s)	Campo_(kA/m)	Magnetizacion_(A/m)
0.000000e+00	-8.322829e-07	-1.329746e-09	-6.867947e+00	-8.505574e+01
1.000000e-08	-8.322627e-07	-1.338248e-09	-6.867780e+00	-8.520026e+01
2.000000e-08	-8.322375e-07	-1.342621e-09	-6.867572e+00	-8.535890e+01
3.000000e-08	-8.322044e-07	-1.340873e-09	-6.867299e+00	-8.552978e+01
4.000000e-08	-8.321454e-07	-1.340881e-09	-6.866813e+00	-8.571088e+01
5.000000e-08	-8.320759e-07	-1.344475e-09	-6.866239e+00	-8.590011e+01
6.000000e-08	-8.319938e-07	-1.345651e-09	-6.865561e+00	-8.609534e+01
7.000000e-08	-8.318845e-07	-1.342936e-09	-6.864659e+00	-8.629446e+01
8.000000e-08	-8.317657e-07	-1.346895e-09	-6.863679e+00	-8.649536e+01
9.000000e-08	-8.316394e-07	-1.356112e-09	-6.862637e+00	-8.669601e+01
1.000000e-07	-8.314922e-07	-1.358960e-09	-6.861422e+00	-8.689446e+01
1.100000e-07	-8.313211e-07	-1.360688e-09	-6.860010e+00	-8.708883e+01
1.200000e-07	-8.311304e-07	-1.362180e-09	-6.858437e+00	-8.727736e+01
1.300000e-07	-8.309178e-07	-1.366540e-09	-6.856682e+00	-8.745842e+01
1.400000e-07	-8.306762e-07	-1.371456e-09	-6.854688e+00	-8.763049e+01
1.500000e-07	-8.303927e-07	-1.369359e-09	-6.852349e+00	-8.779218e+01
1.600000e-07	-8.300665e-07	-1.366087e-09	-6.849658e+00	-8.794223e+01
1.700000e-07	-8.297019e-07	-1.364807e-09	-6.846649e+00	-8.807952e+01
1.800000e-07	-8.292997e-07	-1.374514e-09	-6.843330e+00	-8.820308e+01
1.900000e-07	-8.288632e-07	-1.383974e-09	-6.839727e+00	-8.831209e+01
2.000000e-07	-8.284103e-07	-1.385915e-09	-6.835991e+00	-8.840585e+01
2.100000e-07	-8.279497e-07	-1.390987e-09	-6.832190e+00	-8.848386e+01
2.200000e-07	-8.274708e-07	-1.391916e-09	-6.828238e+00	-8.854575e+01
2.300000e-07	-8.269744e-07	-1.386764e-09	-6.824142e+00	-8.859131e+01
2.400000e-07	-8.264644e-07	-1.375763e-09	-6.819933e+00	-8.862050e+01
2.500000e-07	-8.259453e-07	-1.373294e-09	-6.815650e+00	-8.863343e+01
2.600000e-07	-8.254103e-07	-1.381184e-09	-6.811235e+00	-8.863036e+01
2.700000e-07	-8.248522e-07	-1.378556e-09	-6.806629e+00	-8.861169e+01
2.800000e-07	-8.242740e-07	-1.378425e-09	-6.801858e+00	-8.857795e+01
2.900000e-07	-8.236785e-07	-1.380748e-09	-6.796944e+00	-8.852977e+01
3.000000e-07	-8.230681e-07	-1.377424e-09	-6.791907e+00	-8.846786e+01
3.100000e-07	-8.224289e-07	-1.376847e-09	-6.786632e+00	-8.839302e+01
3.200000e-07	-8.217624e-07	-1.374717e-09	-6.781132e+00	-8.830605e+01
3.300000e-07	-8.210860e-07	-1.370159e-09	-6.775551e+00	-8.820778e+01
3.400000e-07	-8.203860e-07	-1.365188e-09	-6.769775e+00	-8.809901e+01
3.500000e-07	-8.196587e-07	-1.364664e-09	-6.763773e+00	-8.798051e+01
3.600000e-07	-8.189221e-07	-1.366897e-09	-6.757694e+00	-8.785298e+01
3.700000e-07	-8.181692e-07	-1.363583e-09	-6.751482e+00	-8.771704e+01
3.800000e-07	-8.173900e-07	-1.356473e-09	-6.745051e+00	-8.757321e+01
3.900000e-07	-8.165774e-07	-1.352266e-09	-6.738346e+00	-8.742194e+01
4.000000e-07	-8.157421e-07	-1.354482e-09	-6.731453e+00	-8.726355e+01
4.100000e-07	-8.148955e-07	-1.354616e-09	-6.724467e+00	-8.709831e+01
4.200000e-07	-8.140272e-07	-1.351743e-09	-6.717302e+00	-8.692641e+01
4.300000e-07	-8.131453e-07	-1.347794e-09	-6.710025e+00	-8.674800e+01
4.400000e-07	-8.122510e-07	-1.343519e-09	-6.702645e+00	-8.656323e+01
4.500000e-07	-8.113376e-07	-1.338359e-09	-6.695108e+00	-8.637225e+01
4.600000e-07	-8.104051e-07	-1.328665e-09	-6.687413e+00	-8.617529e+01
4.700000e-07	-8.094624e-07	-1.325116e-09	-6.679633e+00	-8.597267e+01
4.800000e-07	-8.085031e-07	-1.325919e-09	-6.671718e+00	-8.576483e+01
4.900000e-07	-8.075283e-07	-1.327635e-09	-6.663674e+00	-8.555237e+01
5.000000e-07	-8.065374e-07	-1.327901e-09	-6.655496e+00	-8.533608e+01
5.100000e-07	-8.055121e-07	-1.325190e-09	-6.647036e+00	-8.511692e+01
5.200000e-07	-8.044546e-07	-1.322286e-09	-6.638310e+00	-8.489608e+01
5.300000e-07	-8.033552e-07	-1.318808e-09	-6.629238e+00	-8.467491e+01
5.400000e-07	-8.022202e-07	-1.315180e-09	-6.619871e+00	-8.445497e+01
5.500000e-07	-8.010398e-07	-1.307097e-09	-6.610130e+00	-8.423793e+01
5.600000e-07	-7.998165e-07	-1.300486e-09	-6.600036e+00	-8.402560e+01
5.700000e-07	-7.985727e-07	-1.297125e-09	-6.589772e+00	-8.381983e+01
5.800000e-07	-7.973119e-07	-1.292959e-09	-6.579369e+00	-8.362248e+01
5.900000e-07	-7.960336e-07	-1.289862e-09	-6.568820e+00	-8.343534e+01
6.000000e-07	-7.947269e-07	-1.287115e-09	-6.558037e+00	-8.326010e+01
6.100000e-07	-7.933978e-07	-1.290956e-09	-6.547069e+00	-8.309825e+01
6.200000e-07	-7.920495e-07	-1.299327e-09	-6.535944e+00	-8.295103e+01
6.300000e-07	-7.906923e-07	-1.305340e-09	-6.524744e+00	-8.281941e+01
6.400000e-07	-7.893221e-07	-1.303490e-09	-6.513437e+00	-8.270398e+01
6.500000e-07	-7.879228e-07	-1.294498e-09	-6.501890e+00	-8.260499e+01
6.600000e-07	-7.864972e-07	-1.290515e-09	-6.490126e+00	-8.252226e+01
6.700000e-07	-7.850462e-07	-1.289031e-09	-6.478153e+00	-8.245525e+01
6.800000e-07	-7.835787e-07	-1.286630e-09	-6.466043e+00	-8.240300e+01
6.900000e-07	-7.820976e-07	-1.284981e-09	-6.453821e+00	-8.236420e+01
7.000000e-07	-7.805887e-07	-1.286635e-09	-6.441370e+00	-8.233720e+01
7.100000e-07	-7.790548e-07	-1.292098e-09	-6.428712e+00	-8.232009e+01
7.200000e-07	-7.775000e-07	-1.296445e-09	-6.415882e+00	-8.231072e+01
7.300000e-07	-7.759238e-07	-1.296157e-09	-6.402875e+00	-8.230681e+01
7.400000e-07	-7.743144e-07	-1.290313e-09	-6.389594e+00	-8.230600e+01
7.500000e-07	-7.726813e-07	-1.285901e-09	-6.376119e+00	-8.230591e+01
7.600000e-07	-7.710339e-07	-1.283635e-09	-6.362524e+00	-8.230425e+01
7.700000e-07	-7.693619e-07	-1.281154e-09	-6.348727e+00	-8.229884e+01
7.800000e-07	-7.676529e-07	-1.279796e-09	-6.334624e+00	-8.228769e+01
7.900000e-07	-7.658907e-07	-1.281871e-09	-6.320082e+00	-8.226905e+01
8.000000e-07	-7.641155e-07	-1.288557e-09	-6.305434e+00	-8.224141e+01
8.100000e-07	-7.623260e-07	-1.292650e-09	-6.290667e+00	-8.220356e+01
8.200000e-07	-7.605112e-07	-1.290721e-09	-6.275692e+00	-8.215456e+01
8.300000e-07	-7.586967e-07	-1.286214e-09	-6.260718e+00	-8.209375e+01
8.400000e-07	-7.568611e-07	-1.282363e-09	-6.245571e+00	-8.202073e+01
8.500000e-07	-7.550055e-07	-1.278358e-09	-6.230259e+00	-8.193529e+01
8.600000e-07	-7.531471e-07	-1.274021e-09	-6.214923e+00	-8.183740e+01
8.700000e-07	-7.512752e-07	-1.273545e-09	-6.199477e+00	-8.172717e+01
8.800000e-07	-7.493840e-07	-1.277380e-09	-6.183871e+00	-8.160476e+01
8.900000e-07	-7.474711e-07	-1.282330e-09	-6.168085e+00	-8.147038e+01
9.000000e-07	-7.455328e-07	-1.281441e-09	-6.152091e+00	-8.132418e+01
9.100000e-07	-7.435739e-07	-1.274095e-09	-6.135926e+00	-8.116628e+01
9.200000e-07	-7.415965e-07	-1.266847e-09	-6.119608e+00	-8.099669e+01
9.300000e-07	-7.395893e-07	-1.262132e-09	-6.103045e+00	-8.081531e+01
9.400000e-07	-7.375562e-07	-1.258896e-09	-6.086268e+00	-8.062194e+01
9.500000e-07	-7.355107e-07	-1.255111e-09	-6.069389e+00	-8.041624e+01
9.600000e-07	-7.334383e-07	-1.252359e-09	-6.052287e+00	-8.019779e+01
9.700000e-07	-7.313407e-07	-1.249826e-09	-6.034978e+00	-7.996613e+01
9.800000e-07	-7.292341e-07	-1.243616e-09	-6.017595e+00	-7.972075e+01
9.900000e-07	-7.271217e-07	-1.236265e-09	-6.000164e+00	-7.946119e+01
1.000000e-06	-7.250081e-07	-1.230811e-09	-5.982722e+00	-7.918706e+01
1.010000e-06	-7.228826e-07	-1.227242e-09	-5.965183e+00	-7.889813e+01
1.020000e-06	-7.207439e-07	-1.222386e-09	-5.947534e+00	-7.859434e+01
1.030000e-06	-7.185997e-07	-1.216370e-09	-5.929841e+00	-7.827586e+01
1.040000e-06	-7.164450e-07	-1.210620e-09	-5.912060e+00	-7.794315e+01
1.050000e-06	-7.142806e-07	-1.205006e-09	-5.894199e+00	-7.759697e+01
1.060000e-06	-7.120937e-07	-1.199150e-09	-5.876153e+00	-7.723838e+01
1.070000e-06	-7.098798e-07	-1.191110e-09	-5.857884e+00	-7.686878e+01
1.080000e-06	-7.076513e-07	-1.183788e-09	-5.839495e+00	-7.648985e+01
1.090000e-06	-7.054035e-07	-1.178096e-09	-5.820946e+00	-7.610352e+01
1.100000e-06	-7.031353e-07	-1.172052e-09	-5.802229e+00	-7.571198e+01
1.110000e-06	-7.008596e-07	-1.165285e-09	-5.783450e+00	-7.531754e+01
1.120000e-06	-6.985647e-07	-1.161041e-09	-5.764513e+00	-7.492264e+01
1.130000e-06	-6.962391e-07	-1.158484e-09	-5.745322e+00	-7.452973e+01
1.140000e-06	-6.938970e-07	-1.156107e-09	-5.725995e+00	-7.414118e+01
1.150000e-06	-6.915373e-07	-1.153567e-09	-5.706523e+00	-7.375927e+01
1.160000e-06	-6.891561e-07	-1.149850e-09	-5.686873e+00	-7.338604e+01
1.170000e-06	-6.867590e-07	-1.145810e-09	-5.667093e+00	-7.302327e+01
1.180000e-06	-6.843494e-07	-1.139983e-09	-5.647209e+00	-7.267243e+01
1.190000e-06	-6.819302e-07	-1.133437e-09	-5.627246e+00	-7.233462e+01
1.200000e-06	-6.794913e-07	-1.127574e-09	-5.607120e+00	-7.201055e+01
1.210000e-06	-6.770247e-07	-1.122846e-09	-5.586766e+00	-7.170055e+01
1.220000e-06	-6.745408e-07	-1.120524e-09	-5.566269e+00	-7.140456e+01
1.230000e-06	-6.720472e-07	-1.120397e-09	-5.545692e+00	-7.112216e+01
1.240000e-06	-6.695419e-07	-1.120803e-09	-5.525018e+00	-7.085262e+01
1.250000e-06	-6.670262e-07	-1.119914e-09	-5.504259e+00	-7.059496e+01
1.260000e-06	-6.645029e-07	-1.116324e-09	-5.483436e+00	-7.034800e+01
1.270000e-06	-6.619615e-07	-1.109762e-09	-5.462466e+00	-7.011041e+01
1.280000e-06	-6.594013e-07	-1.103441e-09	-5.441339e+00	-6.988084e+01
1.290000e-06	-6.568239e-07	-1.098019e-09	-5.420070e+00	-6.965794e+01
1.300000e-06	-6.542223e-07	-1.093792e-09	-5.398602e+00	-6.944047e+01
1.310000e-06	-6.515993e-07	-1.092183e-09	-5.376957e+00	-6.922731e+01
1.320000e-06	-6.489490e-07	-1.093251e-09	-5.355087e+00	-6.901755e+01
1.330000e-06	-6.462755e-07	-1.093072e-09	-5.333026e+00	-6.881050e+01
1.340000e-06	-6.435737e-07	-1.086810e-09	-5.310730e+00	-6.860574e+01
1.350000e-06	-6.408324e-07	-1.078129e-09	-5.288109e+00	-6.840308e+01
1.360000e-06	-6.380634e-07	-1.073054e-09	-5.265260e+00	-6.820258e+01
1.370000e-06	-6.352722e-07	-1.070521e-09	-5.242227e+00	-6.800450e+01
1.380000e-06	-6.324658e-07	-1.066431e-09	-5.219068e+00	-6.780930e+01
1.390000e-06	-6.296345e-07	-1.058605e-09	-5.195705e+00	-6.761752e+01
1.400000e-06	-6.267718e-07	-1.052137e-09	-5.172082e+00	-6.742978e+01
1.410000e-06	-6.238862e-07	-1.052308e-09	-5.148271e+00	-6.724670e+01
1.420000e-06	-6.209937e-07	-1.052677e-09	-5.124401e+00	-6.706882e+01
1.430000e-06	-6.180982e-07	-1.050108e-09	-5.100508e+00	-6.689653e+01
1.440000e-06	-6.151913e-07	-1.047048e-09	-5.076521e+00	-6.673006e+01
1.450000e-06	-6.122727e-07	-1.045309e-09	-5.052436e+00	-6.656935e+01
1.460000e-06	-6.093439e-07	-1.042110e-09	-5.028268e+00	-6.641412e+01
1.470000e-06	-6.064087e-07	-1.033830e-09	-5.004047e+00	-6.626375e+01
1.480000e-06	-6.034672e-07	-1.026174e-09	-4.979774e+00	-6.611732e+01
1.490000e-06	-6.005141e-07	-1.023013e-09	-4.955405e+00	-6.597361e+01
1.500000e-06	-5.975507e-07	-1.020506e-09	-4.930952e+00	-6.583113e+01
1.510000e-06	-5.945802e-07	-1.015656e-09	-4.906439e+00	-6.568814e+01
1.520000e-06	-5.915936e-07	-1.011032e-09	-4.881793e+00	-6.554270e+01
1.530000e-06	-5.885814e-07	-1.009409e-09	-4.856938e+00	-6.539274e+01
1.540000e-06	-5.855468e-07	-1.007378e-09	-4.831896e+00	-6.523614e+01
1.550000e-06	-5.824975e-07	-1.002520e-09	-4.806734e+00	-6.507074e+01
1.560000e-06	-5.794412e-07	-9.962358e-10	-4.781513e+00	-6.489450e+01
1.570000e-06	-5.763680e-07	-9.922212e-10	-4.756153e+00	-6.470547e+01
1.580000e-06	-5.732720e-07	-9.902064e-10	-4.730605e+00	-6.450192e+01
1.590000e-06	-5.701717e-07	-9.850220e-10	-4.705022e+00	-6.428237e+01
1.600000e-06	-5.670663e-07	-9.771410e-10	-4.679396e+00	-6.404564e+01
1.610000e-06	-5.639377e-07	-9.705044e-10	-4.653579e+00	-6.379085e+01
1.620000e-06	-5.607915e-07	-9.669222e-10	-4.627617e+00	-6.351748e+01
1.630000e-06	-5.576402e-07	-9.648230e-10	-4.601612e+00	-6.322536e+01
1.640000e-06	-5.544809e-07	-9.599629e-10	-4.575542e+00	-6.291464e+01
1.650000e-06	-5.513142e-07	-9.510425e-10	-4.549411e+00	-6.258579e+01
1.660000e-06	-5.481345e-07	-9.404332e-10	-4.523172e+00	-6.223958e+01
1.670000e-06	-5.449307e-07	-9.317802e-10	-4.496734e+00	-6.187701e+01
1.680000e-06	-5.417047e-07	-9.247815e-10	-4.470114e+00	-6.149929e+01
1.690000e-06	-5.384654e-07	-9.173092e-10	-4.443383e+00	-6.110780e+01
1.700000e-06	-5.352168e-07	-9.098386e-10	-4.416576e+00	-6.070399e+01
1.710000e-06	-5.319594e-07	-9.057256e-10	-4.389696e+00	-6.028941e+01
1.720000e-06	-5.286900e-07	-9.055417e-10	-4.362717e+00	-5.986561e+01
1.730000e-06	-5.254080e-07	-9.015095e-10	-4.335635e+00	-5.943412e+01
1.740000e-06	-5.221198e-07	-8.902967e-10	-4.308500e+00	-5.899644e+01
1.750000e-06	-5.188262e-07	-8.755574e-10	-4.281322e+00	-5.855396e+01
1.760000e-06	-5.155258e-07	-8.639042e-10	-4.254087e+00	-5.810803e+01
1.770000e-06	-5.122158e-07	-8.560554e-10	-4.226773e+00	-5.765988e+01
1.780000e-06	-5.088957e-07	-8.491543e-10	-4.199376e+00	-5.721066e+01
1.790000e-06	-5.055700e-07	-8.475251e-10	-4.171933e+00	-5.676144e+01
1.800000e-06	-5.022340e-07	-8.503771e-10	-4.144404e+00	-5.631320e+01
1.810000e-06	-4.988875e-07	-8.520941e-10	-4.116789e+00	-5.586690e+01
1.820000e-06	-4.955293e-07	-8.444206e-10	-4.089077e+00	-5.542342e+01
1.830000e-06	-4.921547e-07	-8.305297e-10	-4.061230e+00	-5.498366e+01
1.840000e-06	-4.887598e-07	-8.216073e-10	-4.033216e+00	-5.454847e+01
1.850000e-06	-4.853469e-07	-8.179798e-10	-4.005052e+00	-5.411873e+01
1.860000e-06	-4.819214e-07	-8.161601e-10	-3.976786e+00	-5.369532e+01
1.870000e-06	-4.784834e-07	-8.102325e-10	-3.948416e+00	-5.327912e+01
1.880000e-06	-4.750304e-07	-8.047736e-10	-3.919921e+00	-5.287102e+01
1.890000e-06	-4.715490e-07	-8.023400e-10	-3.891193e+00	-5.247191e+01
1.900000e-06	-4.680420e-07	-7.975163e-10	-3.862254e+00	-5.208264e+01
1.910000e-06	-4.645154e-07	-7.898503e-10	-3.833152e+00	-5.170402e+01
1.920000e-06	-4.609755e-07	-7.817722e-10	-3.803942e+00	-5.133679e+01
1.930000e-06	-4.574202e-07	-7.766892e-10	-3.774603e+00	-5.098161e+01
1.940000e-06	-4.538301e-07	-7.716822e-10	-3.744978e+00	-5.063900e+01
1.950000e-06	-4.502162e-07	-7.683045e-10	-3.715156e+00	-5.030933e+01
1.960000e-06	-4.465923e-07	-7.686245e-10	-3.685252e+00	-4.999284e+01
1.970000e-06	-4.429522e-07	-7.694730e-10	-3.655214e+00	-4.968953e+01
1.980000e-06	-4.393048e-07	-7.683970e-10	-3.625116e+00	-4.939923e+01
1.990000e-06	-4.356485e-07	-7.619124e-10	-3.594944e+00	-4.912158e+01
2.000000e-06	-4.319745e-07	-7.524582e-10	-3.564627e+00	-4.885597e+01
2.010000e-06	-4.282893e-07	-7.451200e-10	-3.534216e+00	-4.860162e+01
2.020000e-06	-4.245913e-07	-7.415071e-10	-3.503701e+00	-4.835756e+01
2.030000e-06	-4.208855e-07	-7.399930e-10	-3.473121e+00	-4.812263e+01
2.040000e-06	-4.171824e-07	-7.419531e-10	-3.442563e+00	-4.789554e+01
2.050000e-06	-4.134751e-07	-7.481080e-10	-3.411971e+00	-4.767487e+01
2.060000e-06	-4.097595e-07	-7.515223e-10	-3.381310e+00	-4.745912e+01
2.070000e-06	-4.060340e-07	-7.475902e-10	-3.350567e+00	-4.724672e+01
2.080000e-06	-4.022955e-07	-7.387905e-10	-3.319718e+00	-4.703607e+01
2.090000e-06	-3.985605e-07	-7.306859e-10	-3.288897e+00	-4.682558e+01
2.100000e-06	-3.948280e-07	-7.263715e-10	-3.258096e+00	-4.661368e+01
2.110000e-06	-3.910938e-07	-7.264227e-10	-3.227282e+00	-4.639885e+01
2.120000e-06	-3.873538e-07	-7.295833e-10	-3.196420e+00	-4.617962e+01
2.130000e-06	-3.835995e-07	-7.299689e-10	-3.165439e+00	-4.595463e+01
2.140000e-06	-3.798405e-07	-7.260258e-10	-3.134421e+00	-4.572260e+01
2.150000e-06	-3.760735e-07	-7.207530e-10	-3.103335e+00	-4.548233e+01
2.160000e-06	-3.722950e-07	-7.154413e-10	-3.072156e+00	-4.523273e+01
2.170000e-06	-3.685082e-07	-7.088195e-10	-3.040907e+00	-4.497280e+01
2.180000e-06	-3.647034e-07	-7.018468e-10	-3.009510e+00	-4.470164e+01
2.190000e-06	-3.608840e-07	-6.984712e-10	-2.977992e+00	-4.441842e+01
2.200000e-06	-3.570542e-07	-6.956065e-10	-2.946389e+00	-4.412238e+01
2.210000e-06	-3.532087e-07	-6.900983e-10	-2.914657e+00	-4.381284e+01
2.220000e-06	-3.493501e-07	-6.829751e-10	-2.882815e+00	-4.348920e+01
2.230000e-06	-3.454833e-07	-6.779480e-10	-2.850907e+00	-4.315090e+01
2.240000e-06	-3.416082e-07	-6.760335e-10	-2.818930e+00	-4.279746e+01
2.250000e-06	-3.377225e-07	-6.705310e-10	-2.786865e+00	-4.242848e+01
2.260000e-06	-3.338383e-07	-6.599944e-10	-2.754813e+00	-4.204363e+01
2.270000e-06	-3.299439e-07	-6.502416e-10	-2.722677e+00	-4.164268e+01
2.280000e-06	-3.260281e-07	-6.446602e-10	-2.690364e+00	-4.122548e+01
2.290000e-06	-3.221091e-07	-6.399323e-10	-2.658024e+00	-4.079202e+01
2.300000e-06	-3.181892e-07	-6.334774e-10	-2.625678e+00	-4.034242e+01
2.310000e-06	-3.142645e-07	-6.269263e-10	-2.593291e+00	-3.987694e+01
2.320000e-06	-3.103365e-07	-6.220161e-10	-2.560877e+00	-3.939601e+01
2.330000e-06	-3.064051e-07	-6.156245e-10	-2.528436e+00	-3.890021e+01
2.340000e-06	-3.024663e-07	-6.043617e-10	-2.495933e+00	-3.839032e+01
2.350000e-06	-2.985197e-07	-5.934532e-10	-2.463366e+00	-3.786729e+01
2.360000e-06	-2.945605e-07	-5.856342e-10	-2.430695e+00	-3.733226e+01
2.370000e-06	-2.905925e-07	-5.753775e-10	-2.397951e+00	-3.678652e+01
2.380000e-06	-2.866268e-07	-5.596227e-10	-2.365227e+00	-3.623155e+01
2.390000e-06	-2.826621e-07	-5.431055e-10	-2.332510e+00	-3.566896e+01
2.400000e-06	-2.786987e-07	-5.332498e-10	-2.299805e+00	-3.510046e+01
2.410000e-06	-2.747233e-07	-5.292011e-10	-2.267000e+00	-3.452791e+01
2.420000e-06	-2.707222e-07	-5.233319e-10	-2.233982e+00	-3.395317e+01
2.430000e-06	-2.666998e-07	-5.138226e-10	-2.200790e+00	-3.337821e+01
2.440000e-06	-2.626718e-07	-5.052941e-10	-2.167551e+00	-3.280494e+01
2.450000e-06	-2.586483e-07	-4.963031e-10	-2.134349e+00	-3.223529e+01
2.460000e-06	-2.546212e-07	-4.805433e-10	-2.101119e+00	-3.167111e+01
2.470000e-06	-2.505847e-07	-4.622695e-10	-2.067810e+00	-3.111418e+01
2.480000e-06	-2.465334e-07	-4.489681e-10	-2.034378e+00	-3.056616e+01
2.490000e-06	-2.424707e-07	-4.440030e-10	-2.000854e+00	-3.002858e+01
2.500000e-06	-2.384124e-07	-4.422245e-10	-1.967364e+00	-2.950283e+01
2.510000e-06	-2.343549e-07	-4.358981e-10	-1.933882e+00	-2.899012e+01
2.520000e-06	-2.302826e-07	-4.306834e-10	-1.900278e+00	-2.849151e+01
2.530000e-06	-2.262009e-07	-4.297353e-10	-1.866596e+00	-2.800784e+01
2.540000e-06	-2.221201e-07	-4.244485e-10	-1.832922e+00	-2.753981e+01
2.550000e-06	-2.180378e-07	-4.123628e-10	-1.799234e+00	-2.708792e+01
2.560000e-06	-2.139529e-07	-4.002999e-10	-1.765526e+00	-2.665248e+01
2.570000e-06	-2.098591e-07	-3.939215e-10	-1.731744e+00	-2.623363e+01
2.580000e-06	-2.057615e-07	-3.904338e-10	-1.697931e+00	-2.583134e+01
2.590000e-06	-2.016640e-07	-3.838383e-10	-1.664119e+00	-2.544542e+01
2.600000e-06	-1.975562e-07	-3.764093e-10	-1.630222e+00	-2.507552e+01
2.610000e-06	-1.934399e-07	-3.729268e-10	-1.596254e+00	-2.472112e+01
2.620000e-06	-1.893247e-07	-3.714555e-10	-1.562295e+00	-2.438158e+01
2.630000e-06	-1.852126e-07	-3.673880e-10	-1.528363e+00	-2.405608e+01
2.640000e-06	-1.810939e-07	-3.606976e-10	-1.494376e+00	-2.374370e+01
2.650000e-06	-1.769706e-07	-3.568201e-10	-1.460351e+00	-2.344336e+01
2.660000e-06	-1.728471e-07	-3.566453e-10	-1.426324e+00	-2.315387e+01
2.670000e-06	-1.687222e-07	-3.535625e-10	-1.392285e+00	-2.287392e+01
2.680000e-06	-1.645979e-07	-3.450958e-10	-1.358252e+00	-2.260208e+01
2.690000e-06	-1.604735e-07	-3.361754e-10	-1.324217e+00	-2.233682e+01
2.700000e-06	-1.563461e-07	-3.330124e-10	-1.290158e+00	-2.207653e+01
2.710000e-06	-1.522187e-07	-3.316518e-10	-1.256099e+00	-2.181953e+01
2.720000e-06	-1.480955e-07	-3.254458e-10	-1.222075e+00	-2.156408e+01
2.730000e-06	-1.439721e-07	-3.178358e-10	-1.188049e+00	-2.130842e+01
2.740000e-06	-1.398443e-07	-3.141628e-10	-1.153987e+00	-2.105075e+01
2.750000e-06	-1.357133e-07	-3.134572e-10	-1.119897e+00	-2.078934e+01
2.760000e-06	-1.315725e-07	-3.106814e-10	-1.085728e+00	-2.052245e+01
2.770000e-06	-1.274256e-07	-3.043063e-10	-1.051508e+00	-2.024844e+01
2.780000e-06	-1.232818e-07	-2.955903e-10	-1.017314e+00	-1.996577e+01
2.790000e-06	-1.191367e-07	-2.900178e-10	-9.831087e-01	-1.967299e+01
2.800000e-06	-1.149802e-07	-2.883812e-10	-9.488091e-01	-1.936882e+01
2.810000e-06	-1.108164e-07	-2.865605e-10	-9.144504e-01	-1.905214e+01
2.820000e-06	-1.066560e-07	-2.830706e-10	-8.801186e-01	-1.872199e+01
2.830000e-06	-1.024961e-07	-2.770088e-10	-8.457916e-01	-1.837760e+01
2.840000e-06	-9.833579e-08	-2.709482e-10	-8.114609e-01	-1.801842e+01
