# Temperatura_=_20.0
# Concentracion g/m^3_=_10000.0
# C_Vs_to_Am_M_A/Vsm_=_65563218390.804596
# pendiente_HvsI_1/m_=_3716.3
# ordenada_HvsI_A/m_=_1297.0
# frecuencia_Hz_=_81117.57259222958

Tiempo_(s)	Campo_(V.s)	Magnetizacion_(V.s)	Campo_(kA/m)	Magnetizacion_(A/m)
0.000000e+00	-8.317262e-07	-1.319565e-09	-6.868990e+00	-8.528007e+01
1.000000e-08	-8.317413e-07	-1.323100e-09	-6.869115e+00	-8.535388e+01
2.000000e-08	-8.317324e-07	-1.325111e-09	-6.869042e+00	-8.542459e+01
3.000000e-08	-8.316967e-07	-1.324752e-09	-6.868747e+00	-8.549118e+01
4.000000e-08	-8.316380e-07	-1.320872e-09	-6.868262e+00	-8.555268e+01
5.000000e-08	-8.315724e-07	-1.315916e-09	-6.867720e+00	-8.560822e+01
6.000000e-08	-8.314949e-07	-1.310223e-09	-6.867080e+00	-8.565702e+01
7.000000e-08	-8.314024e-07	-1.311846e-09	-6.866316e+00	-8.569840e+01
8.000000e-08	-8.312968e-07	-1.313873e-09	-6.865444e+00	-8.573181e+01
9.000000e-08	-8.311784e-07	-1.320828e-09	-6.864466e+00	-8.575683e+01
1.000000e-07	-8.310378e-07	-1.320871e-09	-6.863305e+00	-8.577316e+01
1.100000e-07	-8.308692e-07	-1.307559e-09	-6.861913e+00	-8.578065e+01
1.200000e-07	-8.306845e-07	-1.303663e-09	-6.860387e+00	-8.577925e+01
1.300000e-07	-8.304861e-07	-1.310845e-09	-6.858749e+00	-8.576905e+01
1.400000e-07	-8.302557e-07	-1.323591e-09	-6.856846e+00	-8.575027e+01
1.500000e-07	-8.299860e-07	-1.330881e-09	-6.854619e+00	-8.572320e+01
1.600000e-07	-8.296819e-07	-1.329685e-09	-6.852107e+00	-8.568829e+01
1.700000e-07	-8.293466e-07	-1.327464e-09	-6.849338e+00	-8.564604e+01
1.800000e-07	-8.289825e-07	-1.311526e-09	-6.846331e+00	-8.559704e+01
1.900000e-07	-8.285918e-07	-1.285987e-09	-6.843104e+00	-8.554198e+01
2.000000e-07	-8.281697e-07	-1.274385e-09	-6.839618e+00	-8.548159e+01
2.100000e-07	-8.277211e-07	-1.285717e-09	-6.835914e+00	-8.541666e+01
2.200000e-07	-8.272601e-07	-1.315532e-09	-6.832106e+00	-8.534804e+01
2.300000e-07	-8.267760e-07	-1.335725e-09	-6.828108e+00	-8.527657e+01
2.400000e-07	-8.262708e-07	-1.344890e-09	-6.823935e+00	-8.520313e+01
2.500000e-07	-8.257564e-07	-1.333346e-09	-6.819688e+00	-8.512861e+01
2.600000e-07	-8.252207e-07	-1.306907e-09	-6.815263e+00	-8.505387e+01
2.700000e-07	-8.246688e-07	-1.291729e-09	-6.810705e+00	-8.497974e+01
2.800000e-07	-8.241054e-07	-1.278642e-09	-6.806052e+00	-8.490701e+01
2.900000e-07	-8.235258e-07	-1.280531e-09	-6.801265e+00	-8.483640e+01
3.000000e-07	-8.229349e-07	-1.293078e-09	-6.796386e+00	-8.476856e+01
3.100000e-07	-8.223220e-07	-1.298087e-09	-6.791324e+00	-8.470405e+01
3.200000e-07	-8.216787e-07	-1.304988e-09	-6.786011e+00	-8.464333e+01
3.300000e-07	-8.210037e-07	-1.299239e-09	-6.780436e+00	-8.458673e+01
3.400000e-07	-8.203075e-07	-1.289110e-09	-6.774687e+00	-8.453449e+01
3.500000e-07	-8.195905e-07	-1.281582e-09	-6.768765e+00	-8.448669e+01
3.600000e-07	-8.188503e-07	-1.277838e-09	-6.762652e+00	-8.444332e+01
3.700000e-07	-8.180950e-07	-1.283539e-09	-6.756414e+00	-8.440423e+01
3.800000e-07	-8.173117e-07	-1.289670e-09	-6.749945e+00	-8.436916e+01
3.900000e-07	-8.165084e-07	-1.295277e-09	-6.743311e+00	-8.433777e+01
4.000000e-07	-8.156924e-07	-1.287078e-09	-6.736571e+00	-8.430961e+01
4.100000e-07	-8.148515e-07	-1.278000e-09	-6.729627e+00	-8.428417e+01
4.200000e-07	-8.139875e-07	-1.269712e-09	-6.722491e+00	-8.426091e+01
4.300000e-07	-8.131054e-07	-1.276466e-09	-6.715206e+00	-8.423925e+01
4.400000e-07	-8.122030e-07	-1.291584e-09	-6.707754e+00	-8.421861e+01
4.500000e-07	-8.112864e-07	-1.294128e-09	-6.700184e+00	-8.419844e+01
4.600000e-07	-8.103604e-07	-1.286676e-09	-6.692536e+00	-8.417823e+01
4.700000e-07	-8.094153e-07	-1.270959e-09	-6.684731e+00	-8.415752e+01
4.800000e-07	-8.084519e-07	-1.266290e-09	-6.676774e+00	-8.413593e+01
4.900000e-07	-8.074714e-07	-1.264438e-09	-6.668677e+00	-8.411315e+01
5.000000e-07	-8.064716e-07	-1.263479e-09	-6.660419e+00	-8.408898e+01
5.100000e-07	-8.054480e-07	-1.266295e-09	-6.651966e+00	-8.406328e+01
5.200000e-07	-8.043988e-07	-1.270694e-09	-6.643301e+00	-8.403601e+01
5.300000e-07	-8.033189e-07	-1.280703e-09	-6.634383e+00	-8.400720e+01
5.400000e-07	-8.021967e-07	-1.281782e-09	-6.625115e+00	-8.397692e+01
5.500000e-07	-8.010394e-07	-1.277715e-09	-6.615557e+00	-8.394530e+01
5.600000e-07	-7.998495e-07	-1.270345e-09	-6.605730e+00	-8.391245e+01
5.700000e-07	-7.986273e-07	-1.263467e-09	-6.595636e+00	-8.387850e+01
5.800000e-07	-7.973851e-07	-1.261970e-09	-6.585377e+00	-8.384354e+01
5.900000e-07	-7.961267e-07	-1.260508e-09	-6.574984e+00	-8.380760e+01
6.000000e-07	-7.948367e-07	-1.263354e-09	-6.564330e+00	-8.377065e+01
6.100000e-07	-7.935196e-07	-1.266843e-09	-6.553453e+00	-8.373254e+01
6.200000e-07	-7.921901e-07	-1.273243e-09	-6.542473e+00	-8.369305e+01
6.300000e-07	-7.908401e-07	-1.278991e-09	-6.531324e+00	-8.365181e+01
6.400000e-07	-7.894741e-07	-1.279163e-09	-6.520042e+00	-8.360837e+01
6.500000e-07	-7.880918e-07	-1.274695e-09	-6.508626e+00	-8.356215e+01
6.600000e-07	-7.866821e-07	-1.267768e-09	-6.496984e+00	-8.351248e+01
6.700000e-07	-7.852438e-07	-1.265530e-09	-6.485105e+00	-8.345863e+01
6.800000e-07	-7.837804e-07	-1.262671e-09	-6.473019e+00	-8.339980e+01
6.900000e-07	-7.822980e-07	-1.260201e-09	-6.460777e+00	-8.333515e+01
7.000000e-07	-7.808006e-07	-1.259764e-09	-6.448410e+00	-8.326385e+01
7.100000e-07	-7.792820e-07	-1.262772e-09	-6.435868e+00	-8.318512e+01
7.200000e-07	-7.777394e-07	-1.267882e-09	-6.423129e+00	-8.309822e+01
7.300000e-07	-7.761696e-07	-1.266411e-09	-6.410164e+00	-8.300251e+01
7.400000e-07	-7.745781e-07	-1.261804e-09	-6.397020e+00	-8.289747e+01
7.500000e-07	-7.729680e-07	-1.255741e-09	-6.383723e+00	-8.278272e+01
7.600000e-07	-7.713355e-07	-1.251271e-09	-6.370241e+00	-8.265806e+01
7.700000e-07	-7.696684e-07	-1.245976e-09	-6.356472e+00	-8.252343e+01
7.800000e-07	-7.679794e-07	-1.238871e-09	-6.342523e+00	-8.237895e+01
7.900000e-07	-7.662700e-07	-1.235176e-09	-6.328406e+00	-8.222494e+01
8.000000e-07	-7.645112e-07	-1.234561e-09	-6.313880e+00	-8.206185e+01
8.100000e-07	-7.627300e-07	-1.237528e-09	-6.299170e+00	-8.189027e+01
8.200000e-07	-7.609337e-07	-1.238993e-09	-6.284335e+00	-8.171093e+01
8.300000e-07	-7.591175e-07	-1.240449e-09	-6.269336e+00	-8.152464e+01
8.400000e-07	-7.572820e-07	-1.239260e-09	-6.254177e+00	-8.133229e+01
8.500000e-07	-7.554341e-07	-1.235388e-09	-6.238916e+00	-8.113478e+01
8.600000e-07	-7.535776e-07	-1.231677e-09	-6.223583e+00	-8.093302e+01
8.700000e-07	-7.516993e-07	-1.223690e-09	-6.208071e+00	-8.072788e+01
8.800000e-07	-7.498022e-07	-1.215206e-09	-6.192403e+00	-8.052017e+01
8.900000e-07	-7.478996e-07	-1.208082e-09	-6.176690e+00	-8.031064e+01
9.000000e-07	-7.459835e-07	-1.203745e-09	-6.160866e+00	-8.009990e+01
9.100000e-07	-7.440306e-07	-1.200758e-09	-6.144737e+00	-7.988848e+01
9.200000e-07	-7.420573e-07	-1.201384e-09	-6.128440e+00	-7.967676e+01
9.300000e-07	-7.400682e-07	-1.206093e-09	-6.112013e+00	-7.946501e+01
9.400000e-07	-7.380550e-07	-1.204921e-09	-6.095386e+00	-7.925340e+01
9.500000e-07	-7.360168e-07	-1.199350e-09	-6.078553e+00	-7.904199e+01
9.600000e-07	-7.339513e-07	-1.192112e-09	-6.061495e+00	-7.883074e+01
9.700000e-07	-7.318707e-07	-1.183996e-09	-6.044312e+00	-7.861958e+01
9.800000e-07	-7.297797e-07	-1.175147e-09	-6.027043e+00	-7.840837e+01
9.900000e-07	-7.276797e-07	-1.168293e-09	-6.009700e+00	-7.819698e+01
1.000000e-06	-7.255730e-07	-1.169056e-09	-5.992301e+00	-7.798527e+01
1.010000e-06	-7.234528e-07	-1.173619e-09	-5.974791e+00	-7.777315e+01
1.020000e-06	-7.213241e-07	-1.178144e-09	-5.957210e+00	-7.756056e+01
1.030000e-06	-7.191928e-07	-1.179116e-09	-5.939609e+00	-7.734751e+01
1.040000e-06	-7.170453e-07	-1.175427e-09	-5.921873e+00	-7.713409e+01
1.050000e-06	-7.148698e-07	-1.169120e-09	-5.903907e+00	-7.692044e+01
1.060000e-06	-7.126830e-07	-1.161909e-09	-5.885847e+00	-7.670680e+01
1.070000e-06	-7.104844e-07	-1.154988e-09	-5.867689e+00	-7.649345e+01
1.080000e-06	-7.082589e-07	-1.147591e-09	-5.849309e+00	-7.628072e+01
1.090000e-06	-7.060117e-07	-1.142204e-09	-5.830750e+00	-7.606897e+01
1.100000e-06	-7.037511e-07	-1.139226e-09	-5.812080e+00	-7.585858e+01
1.110000e-06	-7.014678e-07	-1.138148e-09	-5.793223e+00	-7.564990e+01
1.120000e-06	-6.991586e-07	-1.139889e-09	-5.774152e+00	-7.544323e+01
1.130000e-06	-6.968256e-07	-1.142154e-09	-5.754885e+00	-7.523881e+01
1.140000e-06	-6.944740e-07	-1.141145e-09	-5.735463e+00	-7.503680e+01
1.150000e-06	-6.921096e-07	-1.138323e-09	-5.715937e+00	-7.483722e+01
1.160000e-06	-6.897365e-07	-1.134017e-09	-5.696338e+00	-7.464000e+01
1.170000e-06	-6.873534e-07	-1.126538e-09	-5.676657e+00	-7.444491e+01
1.180000e-06	-6.849523e-07	-1.122075e-09	-5.656826e+00	-7.425160e+01
1.190000e-06	-6.825369e-07	-1.119392e-09	-5.636878e+00	-7.405958e+01
1.200000e-06	-6.801059e-07	-1.114864e-09	-5.616801e+00	-7.386821e+01
1.210000e-06	-6.776584e-07	-1.111893e-09	-5.596588e+00	-7.367676e+01
1.220000e-06	-6.751909e-07	-1.112870e-09	-5.576210e+00	-7.348441e+01
1.230000e-06	-6.727057e-07	-1.115506e-09	-5.555685e+00	-7.329024e+01
1.240000e-06	-6.702095e-07	-1.117090e-09	-5.535070e+00	-7.309332e+01
1.250000e-06	-6.677064e-07	-1.116018e-09	-5.514397e+00	-7.289267e+01
1.260000e-06	-6.651887e-07	-1.110682e-09	-5.493605e+00	-7.268733e+01
1.270000e-06	-6.626480e-07	-1.102510e-09	-5.472622e+00	-7.247641e+01
1.280000e-06	-6.600943e-07	-1.093041e-09	-5.451531e+00	-7.225905e+01
1.290000e-06	-6.575239e-07	-1.085338e-09	-5.430303e+00	-7.203449e+01
1.300000e-06	-6.549366e-07	-1.083485e-09	-5.408936e+00	-7.180210e+01
1.310000e-06	-6.523332e-07	-1.084326e-09	-5.387434e+00	-7.156135e+01
1.320000e-06	-6.497002e-07	-1.085834e-09	-5.365690e+00	-7.131186e+01
1.330000e-06	-6.470433e-07	-1.088619e-09	-5.343747e+00	-7.105338e+01
1.340000e-06	-6.443618e-07	-1.086878e-09	-5.321601e+00	-7.078582e+01
1.350000e-06	-6.416457e-07	-1.080994e-09	-5.299170e+00	-7.050921e+01
1.360000e-06	-6.389012e-07	-1.072758e-09	-5.276504e+00	-7.022371e+01
1.370000e-06	-6.361305e-07	-1.064676e-09	-5.253621e+00	-6.992960e+01
1.380000e-06	-6.333366e-07	-1.058203e-09	-5.230547e+00	-6.962728e+01
1.390000e-06	-6.305155e-07	-1.050049e-09	-5.207248e+00	-6.931722e+01
1.400000e-06	-6.276748e-07	-1.043676e-09	-5.183788e+00	-6.899995e+01
1.410000e-06	-6.248207e-07	-1.040892e-09	-5.160216e+00	-6.867609e+01
1.420000e-06	-6.219391e-07	-1.039522e-09	-5.136418e+00	-6.834626e+01
1.430000e-06	-6.190385e-07	-1.036644e-09	-5.112463e+00	-6.801115e+01
1.440000e-06	-6.161292e-07	-1.032774e-09	-5.088436e+00	-6.767142e+01
1.450000e-06	-6.132165e-07	-1.028542e-09	-5.064381e+00	-6.732776e+01
1.460000e-06	-6.102984e-07	-1.023143e-09	-5.040281e+00	-6.698087e+01
1.470000e-06	-6.073699e-07	-1.014424e-09	-5.016095e+00	-6.663139e+01
1.480000e-06	-6.044311e-07	-1.002780e-09	-4.991825e+00	-6.628001e+01
1.490000e-06	-6.014868e-07	-9.938314e-10	-4.967509e+00	-6.592735e+01
1.500000e-06	-5.985353e-07	-9.885992e-10	-4.943133e+00	-6.557403e+01
1.510000e-06	-5.955705e-07	-9.852551e-10	-4.918648e+00	-6.522066e+01
1.520000e-06	-5.925908e-07	-9.806851e-10	-4.894039e+00	-6.486779e+01
1.530000e-06	-5.895932e-07	-9.753932e-10	-4.869283e+00	-6.451598e+01
1.540000e-06	-5.865866e-07	-9.720595e-10	-4.844452e+00	-6.416572e+01
1.550000e-06	-5.835635e-07	-9.690728e-10	-4.819485e+00	-6.381748e+01
1.560000e-06	-5.805163e-07	-9.634434e-10	-4.794319e+00	-6.347166e+01
1.570000e-06	-5.774562e-07	-9.521314e-10	-4.769047e+00	-6.312863e+01
1.580000e-06	-5.743768e-07	-9.396801e-10	-4.743615e+00	-6.278866e+01
1.590000e-06	-5.712813e-07	-9.339157e-10	-4.718050e+00	-6.245195e+01
1.600000e-06	-5.681751e-07	-9.306638e-10	-4.692397e+00	-6.211863e+01
1.610000e-06	-5.650523e-07	-9.261923e-10	-4.666607e+00	-6.178870e+01
1.620000e-06	-5.619253e-07	-9.194865e-10	-4.640781e+00	-6.146208e+01
1.630000e-06	-5.587932e-07	-9.153108e-10	-4.614914e+00	-6.113857e+01
1.640000e-06	-5.556406e-07	-9.168008e-10	-4.588878e+00	-6.081787e+01
1.650000e-06	-5.524658e-07	-9.148745e-10	-4.562658e+00	-6.049957e+01
1.660000e-06	-5.492726e-07	-9.093024e-10	-4.536286e+00	-6.018314e+01
1.670000e-06	-5.460665e-07	-9.021552e-10	-4.509808e+00	-5.986801e+01
1.680000e-06	-5.428570e-07	-8.968364e-10	-4.483302e+00	-5.955350e+01
1.690000e-06	-5.396369e-07	-8.935156e-10	-4.456708e+00	-5.923889e+01
1.700000e-06	-5.363998e-07	-8.865169e-10	-4.429974e+00	-5.892346e+01
1.710000e-06	-5.331590e-07	-8.795322e-10	-4.403209e+00	-5.860647e+01
1.720000e-06	-5.299048e-07	-8.760660e-10	-4.376333e+00	-5.828721e+01
1.730000e-06	-5.266294e-07	-8.766546e-10	-4.349283e+00	-5.796506e+01
1.740000e-06	-5.233471e-07	-8.725133e-10	-4.322175e+00	-5.763945e+01
1.750000e-06	-5.200562e-07	-8.643462e-10	-4.294997e+00	-5.730996e+01
1.760000e-06	-5.167475e-07	-8.576337e-10	-4.267670e+00	-5.697628e+01
1.770000e-06	-5.134260e-07	-8.512361e-10	-4.240239e+00	-5.663827e+01
1.780000e-06	-5.101003e-07	-8.434711e-10	-4.212773e+00	-5.629596e+01
1.790000e-06	-5.067670e-07	-8.339520e-10	-4.185244e+00	-5.594953e+01
1.800000e-06	-5.034228e-07	-8.297851e-10	-4.157626e+00	-5.559934e+01
1.810000e-06	-5.000674e-07	-8.299036e-10	-4.129915e+00	-5.524591e+01
1.820000e-06	-4.967037e-07	-8.286385e-10	-4.102134e+00	-5.488989e+01
1.830000e-06	-4.933276e-07	-8.223189e-10	-4.074253e+00	-5.453205e+01
1.840000e-06	-4.899381e-07	-8.147496e-10	-4.046260e+00	-5.417324e+01
1.850000e-06	-4.865419e-07	-8.107846e-10	-4.018211e+00	-5.381437e+01
1.860000e-06	-4.831322e-07	-8.042315e-10	-3.990052e+00	-5.345635e+01
1.870000e-06	-4.796998e-07	-7.949080e-10	-3.961704e+00	-5.310009e+01
1.880000e-06	-4.762355e-07	-7.839771e-10	-3.933094e+00	-5.274642e+01
1.890000e-06	-4.727514e-07	-7.752607e-10	-3.904319e+00	-5.239607e+01
1.900000e-06	-4.692594e-07	-7.732927e-10	-3.875480e+00	-5.204966e+01
1.910000e-06	-4.657536e-07	-7.705370e-10	-3.846527e+00	-5.170764e+01
1.920000e-06	-4.622347e-07	-7.659386e-10	-3.817465e+00	-5.137030e+01
1.930000e-06	-4.586936e-07	-7.613503e-10	-3.788220e+00	-5.103774e+01
1.940000e-06	-4.551398e-07	-7.585560e-10	-3.758871e+00	-5.070988e+01
1.950000e-06	-4.515716e-07	-7.560071e-10	-3.729402e+00	-5.038645e+01
1.960000e-06	-4.479682e-07	-7.520248e-10	-3.699642e+00	-5.006701e+01
1.970000e-06	-4.443384e-07	-7.462126e-10	-3.669664e+00	-4.975098e+01
1.980000e-06	-4.406962e-07	-7.383068e-10	-3.639584e+00	-4.943765e+01
1.990000e-06	-4.370412e-07	-7.305048e-10	-3.609399e+00	-4.912622e+01
2.000000e-06	-4.333788e-07	-7.223352e-10	-3.579152e+00	-4.881584e+01
2.010000e-06	-4.297094e-07	-7.147656e-10	-3.548848e+00	-4.850564e+01
2.020000e-06	-4.260218e-07	-7.084269e-10	-3.518393e+00	-4.819474e+01
2.030000e-06	-4.223195e-07	-7.051522e-10	-3.487817e+00	-4.788235e+01
2.040000e-06	-4.186135e-07	-7.053278e-10	-3.457210e+00	-4.756773e+01
2.050000e-06	-4.149073e-07	-7.065432e-10	-3.426602e+00	-4.725025e+01
2.060000e-06	-4.111970e-07	-7.053991e-10	-3.395959e+00	-4.692940e+01
2.070000e-06	-4.074805e-07	-6.977279e-10	-3.365266e+00	-4.660479e+01
2.080000e-06	-4.037545e-07	-6.866058e-10	-3.334494e+00	-4.627618e+01
2.090000e-06	-4.000255e-07	-6.737283e-10	-3.303697e+00	-4.594345e+01
2.100000e-06	-3.962910e-07	-6.614002e-10	-3.272855e+00	-4.560660e+01
2.110000e-06	-3.925447e-07	-6.557231e-10	-3.241915e+00	-4.526573e+01
2.120000e-06	-3.887966e-07	-6.564989e-10	-3.210961e+00	-4.492101e+01
2.130000e-06	-3.850484e-07	-6.594638e-10	-3.180005e+00	-4.457268e+01
2.140000e-06	-3.812976e-07	-6.589898e-10	-3.149028e+00	-4.422099e+01
2.150000e-06	-3.775369e-07	-6.553253e-10	-3.117970e+00	-4.386619e+01
2.160000e-06	-3.737644e-07	-6.488447e-10	-3.086814e+00	-4.350851e+01
2.170000e-06	-3.699778e-07	-6.388945e-10	-3.055541e+00	-4.314814e+01
2.180000e-06	-3.661800e-07	-6.273433e-10	-3.024176e+00	-4.278519e+01
2.190000e-06	-3.623745e-07	-6.173152e-10	-2.992748e+00	-4.241971e+01
2.200000e-06	-3.585658e-07	-6.114453e-10	-2.961293e+00	-4.205165e+01
2.210000e-06	-3.547480e-07	-6.057978e-10	-2.929763e+00	-4.168092e+01
2.220000e-06	-3.509041e-07	-5.993805e-10	-2.898017e+00	-4.130733e+01
2.230000e-06	-3.470485e-07	-5.949367e-10	-2.866175e+00	-4.093068e+01
2.240000e-06	-3.431895e-07	-5.935688e-10	-2.834305e+00	-4.055072e+01
2.250000e-06	-3.393193e-07	-5.928740e-10	-2.802342e+00	-4.016720e+01
2.260000e-06	-3.354344e-07	-5.869262e-10	-2.770257e+00	-3.977992e+01
2.270000e-06	-3.315378e-07	-5.765146e-10	-2.738076e+00	-3.938872e+01
2.280000e-06	-3.276386e-07	-5.665773e-10	-2.705874e+00	-3.899355e+01
2.290000e-06	-3.237315e-07	-5.592696e-10	-2.673607e+00	-3.859446e+01
2.300000e-06	-3.198096e-07	-5.520096e-10	-2.641217e+00	-3.819163e+01
2.310000e-06	-3.158804e-07	-5.436193e-10	-2.608767e+00	-3.778540e+01
2.320000e-06	-3.119518e-07	-5.378625e-10	-2.576321e+00	-3.737625e+01
2.330000e-06	-3.080178e-07	-5.363961e-10	-2.543832e+00	-3.696482e+01
2.340000e-06	-3.040801e-07	-5.353694e-10	-2.511311e+00	-3.655190e+01
2.350000e-06	-3.001394e-07	-5.292579e-10	-2.478766e+00	-3.613837e+01
2.360000e-06	-2.961826e-07	-5.225235e-10	-2.446088e+00	-3.572524e+01
2.370000e-06	-2.922079e-07	-5.182003e-10	-2.413262e+00	-3.531356e+01
2.380000e-06	-2.882206e-07	-5.103880e-10	-2.380332e+00	-3.490441e+01
2.390000e-06	-2.842352e-07	-4.978158e-10	-2.347418e+00	-3.449883e+01
2.400000e-06	-2.802565e-07	-4.848590e-10	-2.314559e+00	-3.409782e+01
2.410000e-06	-2.762737e-07	-4.771769e-10	-2.281666e+00	-3.370225e+01
2.420000e-06	-2.722789e-07	-4.756602e-10	-2.248674e+00	-3.331286e+01
2.430000e-06	-2.682748e-07	-4.762357e-10	-2.215606e+00	-3.293020e+01
2.440000e-06	-2.642604e-07	-4.760179e-10	-2.182452e+00	-3.255459e+01
2.450000e-06	-2.602335e-07	-4.747358e-10	-2.149195e+00	-3.218615e+01
2.460000e-06	-2.562076e-07	-4.715534e-10	-2.115946e+00	-3.182476e+01
2.470000e-06	-2.521784e-07	-4.624446e-10	-2.082670e+00	-3.147004e+01
2.480000e-06	-2.481417e-07	-4.495686e-10	-2.049332e+00	-3.112141e+01
2.490000e-06	-2.440983e-07	-4.374872e-10	-2.015939e+00	-3.077808e+01
2.500000e-06	-2.400389e-07	-4.308867e-10	-1.982413e+00	-3.043909e+01
2.510000e-06	-2.359682e-07	-4.304572e-10	-1.948795e+00	-3.010337e+01
2.520000e-06	-2.319006e-07	-4.311759e-10	-1.915201e+00	-2.976973e+01
2.530000e-06	-2.278274e-07	-4.310021e-10	-1.881562e+00	-2.943699e+01
2.540000e-06	-2.237442e-07	-4.293145e-10	-1.847840e+00	-2.910394e+01
2.550000e-06	-2.196586e-07	-4.247754e-10	-1.814098e+00	-2.876947e+01
2.560000e-06	-2.155686e-07	-4.150721e-10	-1.780319e+00	-2.843256e+01
2.570000e-06	-2.114797e-07	-4.050560e-10	-1.746551e+00	-2.809234e+01
2.580000e-06	-2.073857e-07	-3.993606e-10	-1.712740e+00	-2.774813e+01
2.590000e-06	-2.032800e-07	-3.944758e-10	-1.678832e+00	-2.739943e+01
2.600000e-06	-1.991732e-07	-3.867115e-10	-1.644915e+00	-2.704598e+01
2.610000e-06	-1.950669e-07	-3.796244e-10	-1.611002e+00	-2.668771e+01
2.620000e-06	-1.909595e-07	-3.783832e-10	-1.577080e+00	-2.632474e+01
2.630000e-06	-1.868503e-07	-3.780201e-10	-1.543143e+00	-2.595738e+01
2.640000e-06	-1.827379e-07	-3.719502e-10	-1.509180e+00	-2.558609e+01
2.650000e-06	-1.786177e-07	-3.631994e-10	-1.475153e+00	-2.521142e+01
2.660000e-06	-1.744971e-07	-3.572934e-10	-1.441122e+00	-2.483398e+01
2.670000e-06	-1.703818e-07	-3.531489e-10	-1.407135e+00	-2.445441e+01
2.680000e-06	-1.662638e-07	-3.473137e-10	-1.373125e+00	-2.407329e+01
2.690000e-06	-1.621411e-07	-3.393519e-10	-1.339077e+00	-2.369113e+01
2.700000e-06	-1.580158e-07	-3.325636e-10	-1.305008e+00	-2.330833e+01
2.710000e-06	-1.538928e-07	-3.273940e-10	-1.270957e+00	-2.292509e+01
2.720000e-06	-1.497685e-07	-3.194473e-10	-1.236895e+00	-2.254147e+01
2.730000e-06	-1.456389e-07	-3.098527e-10	-1.202790e+00	-2.215729e+01
2.740000e-06	-1.415092e-07	-3.032802e-10	-1.168684e+00	-2.177221e+01
2.750000e-06	-1.373837e-07	-3.008080e-10	-1.134613e+00	-2.138566e+01
2.760000e-06	-1.332512e-07	-2.999581e-10	-1.100483e+00	-2.099691e+01
2.770000e-06	-1.291123e-07	-2.966272e-10	-1.066302e+00	-2.060506e+01
2.780000e-06	-1.249736e-07	-2.893088e-10	-1.032122e+00	-2.020915e+01
2.790000e-06	-1.208306e-07	-2.805318e-10	-9.979060e-01	-1.980810e+01
2.800000e-06	-1.166825e-07	-2.707698e-10	-9.636473e-01	-1.940088e+01
2.810000e-06	-1.125322e-07	-2.611282e-10	-9.293713e-01	-1.898646e+01
2.820000e-06	-1.083876e-07	-2.561673e-10	-8.951425e-01	-1.856393e+01
2.830000e-06	-1.042447e-07	-2.546817e-10	-8.609273e-01	-1.813254e+01
2.840000e-06	-1.000976e-07	-2.537719e-10	-8.266780e-01	-1.769171e+01
