# Temperatura_=_20.0
# Concentracion g/m^3_=_10000.0
# C_Vs_to_Am_M_A/Vsm_=_65563218390.804596
# pendiente_HvsI_1/m_=_3716.3
# ordenada_HvsI_A/m_=_1297.0
# frecuencia_Hz_=_300950.1559816679

Tiempo_(s)	Campo_(V.s)	Magnetizacion_(V.s)	Campo_(kA/m)	Magnetizacion_(A/m)
0.000000e+00	-4.527137e-06	-8.907509e-09	-3.088245e+01	-5.798374e+02
1.000000e-08	-4.526339e-06	-8.904991e-09	-3.087701e+01	-5.787733e+02
2.000000e-08	-4.523892e-06	-8.902736e-09	-3.086032e+01	-5.776587e+02
3.000000e-08	-4.519796e-06	-8.902251e-09	-3.083238e+01	-5.765006e+02
4.000000e-08	-4.514383e-06	-8.904084e-09	-3.079545e+01	-5.753057e+02
5.000000e-08	-4.507618e-06	-8.901750e-09	-3.074930e+01	-5.740802e+02
6.000000e-08	-4.499489e-06	-8.893457e-09	-3.069385e+01	-5.728294e+02
7.000000e-08	-4.489911e-06	-8.876923e-09	-3.062851e+01	-5.715584e+02
8.000000e-08	-4.478537e-06	-8.851852e-09	-3.055093e+01	-5.702715e+02
9.000000e-08	-4.465234e-06	-8.872686e-09	-3.046018e+01	-5.689725e+02
1.000000e-07	-4.449761e-06	-8.892303e-09	-3.035462e+01	-5.676646e+02
1.100000e-07	-4.432046e-06	-8.857615e-09	-3.023378e+01	-5.663502e+02
1.200000e-07	-4.412649e-06	-8.810387e-09	-3.010146e+01	-5.650313e+02
1.300000e-07	-4.392252e-06	-8.701597e-09	-2.996232e+01	-5.637092e+02
1.400000e-07	-4.371015e-06	-8.762206e-09	-2.981745e+01	-5.623843e+02
1.500000e-07	-4.348436e-06	-8.871660e-09	-2.966342e+01	-5.610568e+02
1.600000e-07	-4.324410e-06	-8.678227e-09	-2.949952e+01	-5.597259e+02
1.700000e-07	-4.299065e-06	-8.684169e-09	-2.932663e+01	-5.583904e+02
1.800000e-07	-4.271921e-06	-8.789030e-09	-2.914146e+01	-5.570484e+02
1.900000e-07	-4.243105e-06	-8.619249e-09	-2.894490e+01	-5.556972e+02
2.000000e-07	-4.213148e-06	-8.643515e-09	-2.874054e+01	-5.543337e+02
2.100000e-07	-4.181830e-06	-8.706440e-09	-2.852690e+01	-5.529542e+02
2.200000e-07	-4.148939e-06	-8.508674e-09	-2.830253e+01	-5.515543e+02
2.300000e-07	-4.114438e-06	-8.503522e-09	-2.806717e+01	-5.501292e+02
2.400000e-07	-4.078470e-06	-8.575969e-09	-2.782182e+01	-5.486733e+02
2.500000e-07	-4.041156e-06	-8.494338e-09	-2.756727e+01	-5.471808e+02
2.600000e-07	-4.002301e-06	-8.469461e-09	-2.730222e+01	-5.456451e+02
2.700000e-07	-3.962036e-06	-8.382371e-09	-2.702754e+01	-5.440592e+02
2.800000e-07	-3.920480e-06	-8.336485e-09	-2.674407e+01	-5.424159e+02
2.900000e-07	-3.877344e-06	-8.372973e-09	-2.644980e+01	-5.407072e+02
3.000000e-07	-3.832632e-06	-8.278970e-09	-2.614480e+01	-5.389250e+02
3.100000e-07	-3.786474e-06	-8.187398e-09	-2.582993e+01	-5.370606e+02
3.200000e-07	-3.738958e-06	-8.169361e-09	-2.550579e+01	-5.351052e+02
3.300000e-07	-3.690223e-06	-8.136009e-09	-2.517334e+01	-5.330496e+02
3.400000e-07	-3.639902e-06	-8.102163e-09	-2.483006e+01	-5.308843e+02
3.500000e-07	-3.587744e-06	-8.047524e-09	-2.447426e+01	-5.285996e+02
3.600000e-07	-3.534060e-06	-7.954475e-09	-2.410805e+01	-5.261857e+02
3.700000e-07	-3.479132e-06	-7.888108e-09	-2.373335e+01	-5.236325e+02
3.800000e-07	-3.423162e-06	-7.884277e-09	-2.335154e+01	-5.209299e+02
3.900000e-07	-3.366196e-06	-7.832407e-09	-2.296294e+01	-5.180678e+02
4.000000e-07	-3.307758e-06	-7.706762e-09	-2.256430e+01	-5.150359e+02
4.100000e-07	-3.247832e-06	-7.637104e-09	-2.215551e+01	-5.118240e+02
4.200000e-07	-3.186944e-06	-7.594179e-09	-2.174016e+01	-5.084219e+02
4.300000e-07	-3.125096e-06	-7.539246e-09	-2.131825e+01	-5.048196e+02
4.400000e-07	-3.062106e-06	-7.460069e-09	-2.088855e+01	-5.010071e+02
4.500000e-07	-2.998067e-06	-7.355283e-09	-2.045170e+01	-4.969746e+02
4.600000e-07	-2.933130e-06	-7.295926e-09	-2.000873e+01	-4.927126e+02
4.700000e-07	-2.866892e-06	-7.249269e-09	-1.955688e+01	-4.882117e+02
4.800000e-07	-2.799248e-06	-7.170634e-09	-1.909544e+01	-4.834629e+02
4.900000e-07	-2.730758e-06	-7.057628e-09	-1.862822e+01	-4.784575e+02
5.000000e-07	-2.661525e-06	-6.948844e-09	-1.815594e+01	-4.731871e+02
5.100000e-07	-2.591336e-06	-6.876831e-09	-1.767714e+01	-4.676438e+02
5.200000e-07	-2.520233e-06	-6.808792e-09	-1.719210e+01	-4.618201e+02
5.300000e-07	-2.448347e-06	-6.713027e-09	-1.670172e+01	-4.557088e+02
5.400000e-07	-2.375712e-06	-6.593434e-09	-1.620623e+01	-4.493035e+02
5.500000e-07	-2.302057e-06	-6.497288e-09	-1.570378e+01	-4.425980e+02
5.600000e-07	-2.227231e-06	-6.426323e-09	-1.519334e+01	-4.355869e+02
5.700000e-07	-2.151433e-06	-6.329042e-09	-1.467628e+01	-4.282652e+02
5.800000e-07	-2.074765e-06	-6.195954e-09	-1.415328e+01	-4.206287e+02
5.900000e-07	-1.997263e-06	-6.064889e-09	-1.362459e+01	-4.126736e+02
6.000000e-07	-1.919082e-06	-5.960665e-09	-1.309127e+01	-4.043970e+02
6.100000e-07	-1.840331e-06	-5.865272e-09	-1.255406e+01	-3.957966e+02
6.200000e-07	-1.760773e-06	-5.742794e-09	-1.201135e+01	-3.868706e+02
6.300000e-07	-1.680233e-06	-5.600452e-09	-1.146193e+01	-3.776181e+02
6.400000e-07	-1.598891e-06	-5.471731e-09	-1.090704e+01	-3.680389e+02
6.500000e-07	-1.517058e-06	-5.364227e-09	-1.034881e+01	-3.581335e+02
6.600000e-07	-1.434904e-06	-5.247029e-09	-9.788386e+00	-3.479031e+02
6.700000e-07	-1.352312e-06	-5.097812e-09	-9.224973e+00	-3.373498e+02
6.800000e-07	-1.269144e-06	-4.940193e-09	-8.657632e+00	-3.264762e+02
6.900000e-07	-1.185428e-06	-4.798288e-09	-8.086550e+00	-3.152859e+02
7.000000e-07	-1.101395e-06	-4.664835e-09	-7.513311e+00	-3.037831e+02
7.100000e-07	-1.017185e-06	-4.510239e-09	-6.938860e+00	-2.919728e+02
7.200000e-07	-9.327614e-07	-4.335645e-09	-6.362954e+00	-2.798609e+02
7.300000e-07	-8.480982e-07	-4.170480e-09	-5.785412e+00	-2.674537e+02
7.400000e-07	-7.632228e-07	-4.020706e-09	-5.206424e+00	-2.547586e+02
7.500000e-07	-6.781839e-07	-3.864540e-09	-4.626320e+00	-2.417834e+02
7.600000e-07	-5.929039e-07	-3.684045e-09	-4.044571e+00	-2.285368e+02
7.700000e-07	-5.073747e-07	-3.490601e-09	-3.461123e+00	-2.150282e+02
7.800000e-07	-4.216680e-07	-3.305466e-09	-2.876463e+00	-2.012676e+02
7.900000e-07	-3.358387e-07	-3.125609e-09	-2.290967e+00	-1.872657e+02
8.000000e-07	-2.499064e-07	-2.930159e-09	-1.704769e+00	-1.730337e+02
8.100000e-07	-1.638334e-07	-2.715531e-09	-1.117611e+00	-1.585836e+02
8.200000e-07	-7.765960e-08	-2.500606e-09	-5.297651e-01	-1.439278e+02
8.300000e-07	8.534786e-09	-2.297775e-09	5.822116e-02	-1.290793e+02
8.400000e-07	9.470257e-08	-2.093282e-09	6.460259e-01	-1.140518e+02
8.500000e-07	1.808343e-07	-1.868862e-09	1.233585e+00	-9.885932e+01
8.600000e-07	2.669389e-07	-1.628365e-09	1.820959e+00	-8.351628e+01
8.700000e-07	3.529492e-07	-1.387471e-09	2.407689e+00	-6.803765e+01
8.800000e-07	4.387876e-07	-1.149895e-09	2.993247e+00	-5.243874e+01
8.900000e-07	5.244854e-07	-9.009776e-10	3.577846e+00	-3.673521e+01
9.000000e-07	6.100377e-07	-6.344476e-10	4.161452e+00	-2.094303e+01
9.100000e-07	6.953083e-07	-3.642454e-10	4.743136e+00	-5.078459e+00
9.200000e-07	7.802606e-07	-1.009871e-10	5.322649e+00	1.084203e+01
9.300000e-07	8.649919e-07	1.626148e-10	5.900655e+00	2.680176e+01
9.400000e-07	9.495398e-07	4.403402e-10	6.477410e+00	4.278391e+01
9.500000e-07	1.033899e-06	7.307774e-10	7.052874e+00	5.877154e+01
9.600000e-07	1.118038e-06	1.019084e-09	7.626844e+00	7.474766e+01
9.700000e-07	1.201868e-06	1.299100e-09	8.198700e+00	9.069524e+01
9.800000e-07	1.285214e-06	1.582981e-09	8.767251e+00	1.065973e+02
9.900000e-07	1.367976e-06	1.878364e-09	9.331824e+00	1.224368e+02
1.000000e-06	1.450183e-06	2.174557e-09	9.892614e+00	1.381970e+02
1.010000e-06	1.531895e-06	2.457489e-09	1.045002e+01	1.538611e+02
1.020000e-06	1.613114e-06	2.730484e-09	1.100406e+01	1.694127e+02
1.030000e-06	1.693775e-06	3.006493e-09	1.155431e+01	1.848354e+02
1.040000e-06	1.773782e-06	3.285913e-09	1.210009e+01	2.001133e+02
1.050000e-06	1.853059e-06	3.556295e-09	1.264088e+01	2.152306e+02
1.060000e-06	1.931643e-06	3.810470e-09	1.317695e+01	2.301719e+02
1.070000e-06	2.009581e-06	4.054811e-09	1.370862e+01	2.449223e+02
1.080000e-06	2.086882e-06	4.298721e-09	1.423593e+01	2.594672e+02
1.090000e-06	2.163438e-06	4.539287e-09	1.475817e+01	2.737925e+02
1.100000e-06	2.239096e-06	4.766139e-09	1.527429e+01	2.878846e+02
1.110000e-06	2.313668e-06	4.978614e-09	1.578299e+01	3.017303e+02
1.120000e-06	2.387119e-06	5.186214e-09	1.628404e+01	3.153171e+02
1.130000e-06	2.459711e-06	5.393194e-09	1.677924e+01	3.286330e+02
1.140000e-06	2.531554e-06	5.589363e-09	1.726932e+01	3.416667e+02
1.150000e-06	2.602522e-06	5.767047e-09	1.775344e+01	3.544075e+02
1.160000e-06	2.672524e-06	5.932909e-09	1.823097e+01	3.668452e+02
1.170000e-06	2.741667e-06	6.097448e-09	1.870264e+01	3.789705e+02
1.180000e-06	2.810051e-06	6.260254e-09	1.916913e+01	3.907746e+02
1.190000e-06	2.877466e-06	6.414148e-09	1.962901e+01	4.022496e+02
1.200000e-06	2.943562e-06	6.555987e-09	2.007989e+01	4.133882e+02
1.210000e-06	3.008445e-06	6.693029e-09	2.052250e+01	4.241839e+02
1.220000e-06	3.072409e-06	6.829889e-09	2.095884e+01	4.346309e+02
1.230000e-06	3.135375e-06	6.960438e-09	2.138837e+01	4.447242e+02
1.240000e-06	3.197299e-06	7.076958e-09	2.181079e+01	4.544596e+02
1.250000e-06	3.258232e-06	7.180536e-09	2.222645e+01	4.638336e+02
1.260000e-06	3.318173e-06	7.282196e-09	2.263535e+01	4.728435e+02
1.270000e-06	3.376839e-06	7.387846e-09	2.303555e+01	4.814873e+02
1.280000e-06	3.434052e-06	7.489482e-09	2.342583e+01	4.897640e+02
1.290000e-06	3.490035e-06	7.581911e-09	2.380773e+01	4.976730e+02
1.300000e-06	3.544881e-06	7.670909e-09	2.418187e+01	5.052148e+02
1.310000e-06	3.598467e-06	7.759897e-09	2.454741e+01	5.123904e+02
1.320000e-06	3.650667e-06	7.844600e-09	2.490350e+01	5.192016e+02
1.330000e-06	3.701190e-06	7.918229e-09	2.524815e+01	5.256511e+02
1.340000e-06	3.750050e-06	7.983654e-09	2.558146e+01	5.317419e+02
1.350000e-06	3.797601e-06	8.047694e-09	2.590583e+01	5.374780e+02
1.360000e-06	3.843880e-06	8.112169e-09	2.622153e+01	5.428641e+02
1.370000e-06	3.888940e-06	8.172732e-09	2.652891e+01	5.479052e+02
1.380000e-06	3.932686e-06	8.227745e-09	2.682733e+01	5.526072e+02
1.390000e-06	3.974820e-06	8.281600e-09	2.711475e+01	5.569765e+02
1.400000e-06	4.015465e-06	8.338499e-09	2.739201e+01	5.610200e+02
1.410000e-06	4.054828e-06	8.393744e-09	2.766054e+01	5.647453e+02
1.420000e-06	4.092892e-06	8.440253e-09	2.792019e+01	5.681602e+02
1.430000e-06	4.129686e-06	8.480132e-09	2.817119e+01	5.712733e+02
1.440000e-06	4.165037e-06	8.518896e-09	2.841234e+01	5.740933e+02
1.450000e-06	4.198705e-06	8.559553e-09	2.864201e+01	5.766296e+02
1.460000e-06	4.230865e-06	8.596527e-09	2.886140e+01	5.788917e+02
1.470000e-06	4.261598e-06	8.626883e-09	2.907105e+01	5.808895e+02
1.480000e-06	4.290907e-06	8.655987e-09	2.927098e+01	5.826333e+02
1.490000e-06	4.318843e-06	8.688569e-09	2.946155e+01	5.841335e+02
1.500000e-06	4.345009e-06	8.723158e-09	2.964005e+01	5.854007e+02
1.510000e-06	4.369438e-06	8.753586e-09	2.980669e+01	5.864458e+02
1.520000e-06	4.392403e-06	8.777389e-09	2.996335e+01	5.872797e+02
1.530000e-06	4.413949e-06	8.798427e-09	3.011033e+01	5.879134e+02
1.540000e-06	4.434162e-06	8.819512e-09	3.024822e+01	5.883579e+02
1.550000e-06	4.452880e-06	8.838495e-09	3.037590e+01	5.886243e+02
1.560000e-06	4.469965e-06	8.852756e-09	3.049245e+01	5.887237e+02
1.570000e-06	4.485348e-06	8.863156e-09	3.059738e+01	5.886670e+02
1.580000e-06	4.499077e-06	8.874859e-09	3.069104e+01	5.884649e+02
1.590000e-06	4.511097e-06	8.890366e-09	3.077304e+01	5.881282e+02
1.600000e-06	4.521177e-06	8.905268e-09	3.084180e+01	5.876673e+02
1.610000e-06	4.529529e-06	8.916166e-09	3.089877e+01	5.870925e+02
1.620000e-06	4.536409e-06	8.924433e-09	3.094571e+01	5.864138e+02
1.630000e-06	4.541820e-06	8.932071e-09	3.098262e+01	5.856407e+02
1.640000e-06	4.545748e-06	8.937328e-09	3.100942e+01	5.847827e+02
1.650000e-06	4.547930e-06	8.937903e-09	3.102430e+01	5.838487e+02
1.660000e-06	4.548385e-06	8.933234e-09	3.102740e+01	5.828473e+02
1.670000e-06	4.547373e-06	8.926486e-09	3.102050e+01	5.817866e+02
1.680000e-06	4.544988e-06	8.924925e-09	3.100423e+01	5.806743e+02
1.690000e-06	4.541320e-06	8.925765e-09	3.097920e+01	5.795177e+02
1.700000e-06	4.536062e-06	8.924179e-09	3.094334e+01	5.783232e+02
1.710000e-06	4.529131e-06	8.919927e-09	3.089606e+01	5.770973e+02
1.720000e-06	4.520811e-06	8.917338e-09	3.083930e+01	5.758454e+02
1.730000e-06	4.511182e-06	8.929016e-09	3.077362e+01	5.745726e+02
1.740000e-06	4.500179e-06	8.932083e-09	3.069856e+01	5.732833e+02
1.750000e-06	4.487365e-06	8.852112e-09	3.061114e+01	5.719814e+02
1.760000e-06	4.472147e-06	8.816423e-09	3.050733e+01	5.706701e+02
1.770000e-06	4.454531e-06	8.812446e-09	3.038716e+01	5.693521e+02
1.780000e-06	4.435327e-06	8.886389e-09	3.025616e+01	5.680294e+02
1.790000e-06	4.415519e-06	8.906139e-09	3.012104e+01	5.667032e+02
1.800000e-06	4.395178e-06	8.702978e-09	2.998228e+01	5.653743e+02
1.810000e-06	4.373005e-06	8.771048e-09	2.983103e+01	5.640428e+02
1.820000e-06	4.348600e-06	8.876108e-09	2.966454e+01	5.627080e+02
1.830000e-06	4.323108e-06	8.676605e-09	2.949065e+01	5.613689e+02
1.840000e-06	4.296396e-06	8.729996e-09	2.930843e+01	5.600235e+02
1.850000e-06	4.267576e-06	8.797225e-09	2.911182e+01	5.586693e+02
1.860000e-06	4.237029e-06	8.559946e-09	2.890345e+01	5.573034e+02
1.870000e-06	4.205178e-06	8.648087e-09	2.868617e+01	5.559220e+02
1.880000e-06	4.172020e-06	8.752148e-09	2.845998e+01	5.545209e+02
1.890000e-06	4.137636e-06	8.560235e-09	2.822543e+01	5.530953e+02
1.900000e-06	4.101598e-06	8.575232e-09	2.797959e+01	5.516397e+02
1.910000e-06	4.063810e-06	8.539604e-09	2.772181e+01	5.501484e+02
1.920000e-06	4.024601e-06	8.488575e-09	2.745434e+01	5.486148e+02
1.930000e-06	3.983916e-06	8.567518e-09	2.717680e+01	5.470322e+02
1.940000e-06	3.941988e-06	8.381026e-09	2.689079e+01	5.453931e+02
1.950000e-06	3.898910e-06	8.332111e-09	2.659692e+01	5.436899e+02
1.960000e-06	3.854413e-06	8.402920e-09	2.629338e+01	5.419142e+02
1.970000e-06	3.808519e-06	8.282179e-09	2.598031e+01	5.400577e+02
1.980000e-06	3.761123e-06	8.252492e-09	2.565699e+01	5.381115e+02
1.990000e-06	3.712318e-06	8.168950e-09	2.532406e+01	5.360663e+02
2.000000e-06	3.662274e-06	8.099964e-09	2.498268e+01	5.339128e+02
2.010000e-06	3.610876e-06	8.115906e-09	2.463206e+01	5.316413e+02
2.020000e-06	3.558014e-06	8.060251e-09	2.427146e+01	5.292421e+02
2.030000e-06	3.503462e-06	8.003374e-09	2.389932e+01	5.267050e+02
2.040000e-06	3.447488e-06	7.877783e-09	2.351749e+01	5.240200e+02
2.050000e-06	3.390435e-06	7.841506e-09	2.312829e+01	5.211768e+02
2.060000e-06	3.332255e-06	7.833693e-09	2.273141e+01	5.181654e+02
2.070000e-06	3.273095e-06	7.707463e-09	2.232784e+01	5.149754e+02
2.080000e-06	3.212721e-06	7.639549e-09	2.191600e+01	5.115967e+02
2.090000e-06	3.150848e-06	7.556262e-09	2.149392e+01	5.080192e+02
2.100000e-06	3.087810e-06	7.524426e-09	2.106390e+01	5.042328e+02
2.110000e-06	3.023814e-06	7.486222e-09	2.062734e+01	5.002279e+02
2.120000e-06	2.958769e-06	7.353896e-09	2.018363e+01	4.959949e+02
2.130000e-06	2.892686e-06	7.278568e-09	1.973283e+01	4.915242e+02
2.140000e-06	2.825760e-06	7.188320e-09	1.927629e+01	4.868070e+02
2.150000e-06	2.757926e-06	7.133136e-09	1.881355e+01	4.818343e+02
2.160000e-06	2.688772e-06	7.053506e-09	1.834181e+01	4.765979e+02
2.170000e-06	2.618399e-06	6.921809e-09	1.786175e+01	4.710897e+02
2.180000e-06	2.547161e-06	6.838220e-09	1.737579e+01	4.653020e+02
2.190000e-06	2.475182e-06	6.757270e-09	1.688478e+01	4.592278e+02
2.200000e-06	2.402394e-06	6.694072e-09	1.638824e+01	4.528604e+02
2.210000e-06	2.328733e-06	6.572796e-09	1.588575e+01	4.461937e+02
2.220000e-06	2.254196e-06	6.447332e-09	1.537729e+01	4.392222e+02
2.230000e-06	2.178783e-06	6.362642e-09	1.486285e+01	4.319407e+02
2.240000e-06	2.102548e-06	6.267067e-09	1.434280e+01	4.243450e+02
2.250000e-06	2.025267e-06	6.161369e-09	1.381562e+01	4.164312e+02
2.260000e-06	1.946925e-06	6.015344e-09	1.328120e+01	4.081963e+02
2.270000e-06	1.867860e-06	5.890593e-09	1.274185e+01	3.996378e+02
2.280000e-06	1.788312e-06	5.789304e-09	1.219920e+01	3.907540e+02
2.290000e-06	1.708289e-06	5.685122e-09	1.165332e+01	3.815437e+02
2.300000e-06	1.627644e-06	5.556692e-09	1.110319e+01	3.720068e+02
2.310000e-06	1.546399e-06	5.403683e-09	1.054896e+01	3.621435e+02
2.320000e-06	1.464579e-06	5.276070e-09	9.990816e+00	3.519550e+02
2.330000e-06	1.382242e-06	5.155427e-09	9.429145e+00	3.414432e+02
2.340000e-06	1.299560e-06	5.020021e-09	8.865119e+00	3.306108e+02
2.350000e-06	1.216598e-06	4.857877e-09	8.299180e+00	3.194610e+02
2.360000e-06	1.133358e-06	4.695603e-09	7.731350e+00	3.079982e+02
2.370000e-06	1.049831e-06	4.556839e-09	7.161561e+00	2.962271e+02
2.380000e-06	9.659704e-07	4.412190e-09	6.589493e+00	2.841534e+02
2.390000e-06	8.817598e-07	4.246651e-09	6.015040e+00	2.717836e+02
2.400000e-06	7.971115e-07	4.067744e-09	5.437600e+00	2.591247e+02
2.410000e-06	7.119607e-07	3.900327e-09	4.856733e+00	2.461846e+02
2.420000e-06	6.263940e-07	3.743133e-09	4.273028e+00	2.329718e+02
2.430000e-06	5.406198e-07	3.569386e-09	3.687908e+00	2.194956e+02
2.440000e-06	4.546293e-07	3.370106e-09	3.101313e+00	2.057660e+02
2.450000e-06	3.683326e-07	3.163886e-09	2.512629e+00	1.917934e+02
2.460000e-06	2.818966e-07	2.972300e-09	1.922994e+00	1.775891e+02
2.470000e-06	1.953539e-07	2.781794e-09	1.332632e+00	1.631650e+02
2.480000e-06	1.087246e-07	2.573955e-09	7.416791e-01	1.485333e+02
2.490000e-06	2.201993e-08	2.352509e-09	1.502118e-01	1.337072e+02
2.500000e-06	-6.467223e-08	2.137135e-09	-4.411701e-01	1.187000e+02
2.510000e-06	-1.512303e-07	1.931701e-09	-1.031637e+00	1.035258e+02
2.520000e-06	-2.377071e-07	1.710460e-09	-1.621550e+00	8.819891e+01
2.530000e-06	-3.241813e-07	1.463081e-09	-2.211445e+00	7.273430e+01
2.540000e-06	-4.104755e-07	1.205571e-09	-2.800112e+00	5.714720e+01
2.550000e-06	-4.964667e-07	9.566089e-10	-3.386712e+00	4.145322e+01
2.560000e-06	-5.821932e-07	7.117593e-10	-3.971507e+00	2.566830e+01
2.570000e-06	-6.675786e-07	4.511117e-10	-4.553975e+00	9.808640e+00
2.580000e-06	-7.525524e-07	1.745119e-10	-5.133634e+00	-6.109300e+00
2.590000e-06	-8.371163e-07	-9.987515e-11	-5.710498e+00	-2.206887e+01
2.600000e-06	-9.213584e-07	-3.634657e-10	-6.285166e+00	-3.805328e+01
2.610000e-06	-1.005238e-06	-6.322838e-10	-6.857359e+00	-5.404559e+01
2.620000e-06	-1.088765e-06	-9.210672e-10	-7.427151e+00	-7.002882e+01
2.630000e-06	-1.172017e-06	-1.218460e-09	-7.995068e+00	-8.598594e+01
2.640000e-06	-1.254914e-06	-1.506591e-09	-8.560557e+00	-1.018999e+02
2.650000e-06	-1.337370e-06	-1.788373e-09	-9.123041e+00	-1.177539e+02
2.660000e-06	-1.419354e-06	-2.077699e-09	-9.682309e+00	-1.335308e+02
2.670000e-06	-1.500890e-06	-2.372399e-09	-1.023852e+01	-1.492141e+02
2.680000e-06	-1.581938e-06	-2.657025e-09	-1.079140e+01	-1.647872e+02
2.690000e-06	-1.662419e-06	-2.925456e-09	-1.134041e+01	-1.802338e+02
2.700000e-06	-1.742382e-06	-3.188107e-09	-1.188588e+01	-1.955377e+02
2.710000e-06	-1.821910e-06	-3.455321e-09	-1.242840e+01	-2.106833e+02
2.720000e-06	-1.900982e-06	-3.722358e-09	-1.296780e+01	-2.256551e+02
2.730000e-06	-1.979222e-06	-3.976085e-09	-1.350152e+01	-2.404381e+02
2.740000e-06	-2.056324e-06	-4.214493e-09	-1.402748e+01	-2.550177e+02
2.750000e-06	-2.132427e-06	-4.449513e-09	-1.454663e+01	-2.693796e+02
2.760000e-06	-2.207666e-06	-4.685062e-09	-1.505988e+01	-2.835102e+02
2.770000e-06	-2.282096e-06	-4.911559e-09	-1.556762e+01	-2.973963e+02
2.780000e-06	-2.355778e-06	-5.119028e-09	-1.607025e+01	-3.110253e+02
2.790000e-06	-2.428619e-06	-5.312947e-09	-1.656714e+01	-3.243851e+02
2.800000e-06	-2.500617e-06	-5.504432e-09	-1.705829e+01	-3.374642e+02
2.810000e-06	-2.571949e-06	-5.693949e-09	-1.754488e+01	-3.502518e+02
2.820000e-06	-2.642421e-06	-5.871893e-09	-1.802562e+01	-3.627379e+02
2.830000e-06	-2.711673e-06	-6.034006e-09	-1.849803e+01	-3.749127e+02
2.840000e-06	-2.779737e-06	-6.189314e-09	-1.896234e+01	-3.867677e+02
2.850000e-06	-2.846841e-06	-6.345982e-09	-1.942010e+01	-3.982946e+02
2.860000e-06	-2.913037e-06	-6.499328e-09	-1.987166e+01	-4.094861e+02
2.870000e-06	-2.978274e-06	-6.637666e-09	-2.031668e+01	-4.203355e+02
2.880000e-06	-3.042536e-06	-6.762723e-09	-2.075506e+01	-4.308371e+02
2.890000e-06	-3.105853e-06	-6.884758e-09	-2.118698e+01	-4.409857e+02
2.900000e-06	-3.168053e-06	-7.007698e-09	-2.161128e+01	-4.507768e+02
2.910000e-06	-3.228826e-06	-7.124451e-09	-2.202586e+01	-4.602071e+02
2.920000e-06	-3.288359e-06	-7.228365e-09	-2.243197e+01	-4.692735e+02
2.930000e-06	-3.346900e-06	-7.325589e-09	-2.283131e+01	-4.779742e+02
2.940000e-06	-3.404320e-06	-7.425843e-09	-2.322301e+01	-4.863077e+02
