# Temperatura_=_20.0
# Concentracion g/m^3_=_10000.0
# C_Vs_to_Am_M_A/Vsm_=_65563218390.804596
# pendiente_HvsI_1/m_=_3716.3
# ordenada_HvsI_A/m_=_1297.0
# frecuencia_Hz_=_300948.10225156025

Tiempo_(s)	Campo_(V.s)	Magnetizacion_(V.s)	Campo_(kA/m)	Magnetizacion_(A/m)
0.000000e+00	-4.556559e-06	-8.867657e-09	-3.087841e+01	-5.774929e+02
1.000000e-08	-4.554354e-06	-8.865950e-09	-3.086347e+01	-5.763729e+02
2.000000e-08	-4.550516e-06	-8.862012e-09	-3.083746e+01	-5.752036e+02
3.000000e-08	-4.545277e-06	-8.856913e-09	-3.080195e+01	-5.739919e+02
4.000000e-08	-4.538681e-06	-8.852657e-09	-3.075725e+01	-5.727442e+02
5.000000e-08	-4.530680e-06	-8.849298e-09	-3.070303e+01	-5.714663e+02
6.000000e-08	-4.521121e-06	-8.844608e-09	-3.063826e+01	-5.701636e+02
7.000000e-08	-4.509779e-06	-8.833084e-09	-3.056140e+01	-5.688409e+02
8.000000e-08	-4.496583e-06	-8.817349e-09	-3.047197e+01	-5.675023e+02
9.000000e-08	-4.481283e-06	-8.814626e-09	-3.036829e+01	-5.661514e+02
1.000000e-07	-4.463788e-06	-8.799978e-09	-3.024973e+01	-5.647910e+02
1.100000e-07	-4.444591e-06	-8.780307e-09	-3.011964e+01	-5.634237e+02
1.200000e-07	-4.424294e-06	-8.747547e-09	-2.998209e+01	-5.620510e+02
1.300000e-07	-4.403044e-06	-8.703443e-09	-2.983808e+01	-5.606741e+02
1.400000e-07	-4.380498e-06	-8.733239e-09	-2.968530e+01	-5.592934e+02
1.500000e-07	-4.356643e-06	-8.720010e-09	-2.952364e+01	-5.579086e+02
1.600000e-07	-4.331434e-06	-8.654305e-09	-2.935280e+01	-5.565191e+02
1.700000e-07	-4.304388e-06	-8.674887e-09	-2.916953e+01	-5.551233e+02
1.800000e-07	-4.275611e-06	-8.655723e-09	-2.897451e+01	-5.537192e+02
1.900000e-07	-4.245588e-06	-8.590614e-09	-2.877105e+01	-5.523041e+02
2.000000e-07	-4.214295e-06	-8.604595e-09	-2.855899e+01	-5.508747e+02
2.100000e-07	-4.181450e-06	-8.560057e-09	-2.833641e+01	-5.494272e+02
2.200000e-07	-4.146876e-06	-8.481250e-09	-2.810212e+01	-5.479572e+02
2.300000e-07	-4.110779e-06	-8.483015e-09	-2.785750e+01	-5.464595e+02
2.400000e-07	-4.073383e-06	-8.454222e-09	-2.760407e+01	-5.449288e+02
2.500000e-07	-4.034535e-06	-8.423455e-09	-2.734082e+01	-5.433591e+02
2.600000e-07	-3.994191e-06	-8.393421e-09	-2.706742e+01	-5.417437e+02
2.700000e-07	-3.952413e-06	-8.328136e-09	-2.678430e+01	-5.400756e+02
2.800000e-07	-3.909108e-06	-8.308199e-09	-2.649083e+01	-5.383476e+02
2.900000e-07	-3.864289e-06	-8.272688e-09	-2.618711e+01	-5.365517e+02
3.000000e-07	-3.818040e-06	-8.188833e-09	-2.587370e+01	-5.346798e+02
3.100000e-07	-3.770398e-06	-8.146739e-09	-2.555084e+01	-5.327233e+02
3.200000e-07	-3.721347e-06	-8.112385e-09	-2.521843e+01	-5.306732e+02
3.300000e-07	-3.670692e-06	-8.062809e-09	-2.487516e+01	-5.285206e+02
3.400000e-07	-3.618395e-06	-8.023107e-09	-2.452076e+01	-5.262559e+02
3.500000e-07	-3.564632e-06	-7.970565e-09	-2.415643e+01	-5.238696e+02
3.600000e-07	-3.509575e-06	-7.901030e-09	-2.378332e+01	-5.213519e+02
3.700000e-07	-3.453488e-06	-7.848473e-09	-2.340324e+01	-5.186929e+02
3.800000e-07	-3.396271e-06	-7.801584e-09	-2.301549e+01	-5.158826e+02
3.900000e-07	-3.337540e-06	-7.718658e-09	-2.261749e+01	-5.129109e+02
4.000000e-07	-3.277445e-06	-7.641970e-09	-2.221025e+01	-5.097677e+02
4.100000e-07	-3.216324e-06	-7.583672e-09	-2.179605e+01	-5.064430e+02
4.200000e-07	-3.154206e-06	-7.521895e-09	-2.137509e+01	-5.029268e+02
4.300000e-07	-3.091010e-06	-7.459925e-09	-2.094683e+01	-4.992091e+02
4.400000e-07	-3.026787e-06	-7.383170e-09	-2.051161e+01	-4.952802e+02
4.500000e-07	-2.961466e-06	-7.304617e-09	-2.006895e+01	-4.911306e+02
4.600000e-07	-2.894753e-06	-7.235960e-09	-1.961686e+01	-4.867509e+02
4.700000e-07	-2.826849e-06	-7.159047e-09	-1.915669e+01	-4.821319e+02
4.800000e-07	-2.758102e-06	-7.071346e-09	-1.869082e+01	-4.772648e+02
4.900000e-07	-2.688485e-06	-6.979792e-09	-1.821904e+01	-4.721412e+02
5.000000e-07	-2.617971e-06	-6.891270e-09	-1.774119e+01	-4.667530e+02
5.100000e-07	-2.546616e-06	-6.807488e-09	-1.725764e+01	-4.610924e+02
5.200000e-07	-2.474493e-06	-6.720889e-09	-1.676889e+01	-4.551521e+02
5.300000e-07	-2.401455e-06	-6.622281e-09	-1.627393e+01	-4.489254e+02
5.400000e-07	-2.327192e-06	-6.516415e-09	-1.577067e+01	-4.424059e+02
5.500000e-07	-2.251799e-06	-6.423300e-09	-1.525975e+01	-4.355878e+02
5.600000e-07	-2.175581e-06	-6.330633e-09	-1.474325e+01	-4.284659e+02
5.700000e-07	-2.098524e-06	-6.221694e-09	-1.422106e+01	-4.210355e+02
5.800000e-07	-2.020637e-06	-6.105380e-09	-1.369324e+01	-4.132927e+02
5.900000e-07	-1.942053e-06	-5.988860e-09	-1.316070e+01	-4.052340e+02
6.000000e-07	-1.862713e-06	-5.876486e-09	-1.262303e+01	-3.968567e+02
6.100000e-07	-1.782475e-06	-5.761349e-09	-1.207929e+01	-3.881586e+02
6.200000e-07	-1.701354e-06	-5.636128e-09	-1.152956e+01	-3.791384e+02
6.300000e-07	-1.619643e-06	-5.506483e-09	-1.097582e+01	-3.697953e+02
6.400000e-07	-1.537558e-06	-5.383347e-09	-1.041956e+01	-3.601295e+02
6.500000e-07	-1.455052e-06	-5.260983e-09	-9.860447e+00	-3.501416e+02
6.600000e-07	-1.372051e-06	-5.126992e-09	-9.297972e+00	-3.398332e+02
6.700000e-07	-1.288488e-06	-4.981923e-09	-8.731692e+00	-3.292064e+02
6.800000e-07	-1.204502e-06	-4.834549e-09	-8.162540e+00	-3.182642e+02
6.900000e-07	-1.120301e-06	-4.692284e-09	-7.591939e+00	-3.070105e+02
7.000000e-07	-1.035883e-06	-4.546577e-09	-7.019864e+00	-2.954495e+02
7.100000e-07	-9.511393e-07	-4.389344e-09	-6.445581e+00	-2.835866e+02
7.200000e-07	-8.660164e-07	-4.227886e-09	-5.868729e+00	-2.714276e+02
7.300000e-07	-7.805946e-07	-4.069681e-09	-5.289852e+00	-2.589793e+02
7.400000e-07	-6.949586e-07	-3.909698e-09	-4.709523e+00	-2.462491e+02
7.500000e-07	-6.091200e-07	-3.740741e-09	-4.127820e+00	-2.332450e+02
7.600000e-07	-5.230927e-07	-3.561400e-09	-3.544840e+00	-2.199759e+02
7.700000e-07	-4.368723e-07	-3.376274e-09	-2.960550e+00	-2.064512e+02
7.800000e-07	-3.505050e-07	-3.190439e-09	-2.375266e+00	-1.926811e+02
7.900000e-07	-2.640533e-07	-2.999790e-09	-1.789408e+00	-1.786763e+02
8.000000e-07	-1.775145e-07	-2.799428e-09	-1.202962e+00	-1.644483e+02
8.100000e-07	-9.090368e-08	-2.591890e-09	-6.160265e-01	-1.500090e+02
8.200000e-07	-4.277972e-09	-2.385228e-09	-2.899051e-02	-1.353709e+02
8.300000e-07	8.232831e-08	-2.177382e-09	5.579139e-01	-1.205472e+02
8.400000e-07	1.689553e-07	-1.960380e-09	1.144959e+00	-1.055514e+02
8.500000e-07	2.555384e-07	-1.732302e-09	1.731706e+00	-9.039764e+01
8.600000e-07	3.420310e-07	-1.496889e-09	2.317840e+00	-7.510034e+01
8.700000e-07	4.284268e-07	-1.260094e-09	2.903318e+00	-5.967444e+01
8.800000e-07	5.147061e-07	-1.017359e-09	3.488006e+00	-4.413524e+01
8.900000e-07	6.008258e-07	-7.640991e-10	4.071613e+00	-2.849834e+01
9.000000e-07	6.867312e-07	-5.044733e-10	4.653768e+00	-1.277967e+01
9.100000e-07	7.723827e-07	-2.435316e-10	5.234202e+00	3.004614e+00
9.200000e-07	8.576801e-07	2.046163e-11	5.812237e+00	1.883811e+01
9.300000e-07	9.426485e-07	2.912641e-10	6.388042e+00	3.470425e+01
9.400000e-07	1.027344e-06	5.701873e-10	6.961996e+00	5.058634e+01
9.500000e-07	1.111777e-06	8.525370e-10	7.534171e+00	6.646756e+01
9.600000e-07	1.195985e-06	1.133328e-09	8.104827e+00	8.233107e+01
9.700000e-07	1.279933e-06	1.415763e-09	8.673717e+00	9.816001e+01
9.800000e-07	1.363497e-06	1.702131e-09	9.240001e+00	1.139375e+02
9.900000e-07	1.446482e-06	1.990890e-09	9.802365e+00	1.296469e+02
1.000000e-06	1.528788e-06	2.274845e-09	1.036013e+01	1.452714e+02
1.010000e-06	1.610505e-06	2.551710e-09	1.091390e+01	1.607946e+02
1.020000e-06	1.691778e-06	2.827426e-09	1.146467e+01	1.762002e+02
1.030000e-06	1.772552e-06	3.103290e-09	1.201204e+01	1.914721e+02
1.040000e-06	1.852607e-06	3.373491e-09	1.255455e+01	2.065946e+02
1.050000e-06	1.931907e-06	3.634857e-09	1.309194e+01	2.215521e+02
1.060000e-06	2.010527e-06	3.887120e-09	1.362473e+01	2.363296e+02
1.070000e-06	2.088440e-06	4.131750e-09	1.415272e+01	2.509124e+02
1.080000e-06	2.165592e-06	4.371732e-09	1.467556e+01	2.652861e+02
1.090000e-06	2.241949e-06	4.603777e-09	1.519301e+01	2.794369e+02
1.100000e-06	2.317438e-06	4.825619e-09	1.570457e+01	2.933515e+02
1.110000e-06	2.391872e-06	5.038548e-09	1.620899e+01	3.070171e+02
1.120000e-06	2.465119e-06	5.246009e-09	1.670536e+01	3.204213e+02
1.130000e-06	2.537413e-06	5.445655e-09	1.719528e+01	3.335525e+02
1.140000e-06	2.608923e-06	5.631365e-09	1.767987e+01	3.463997e+02
1.150000e-06	2.679520e-06	5.803996e-09	1.815829e+01	3.589523e+02
1.160000e-06	2.749155e-06	5.970039e-09	1.863019e+01	3.712007e+02
1.170000e-06	2.817912e-06	6.134050e-09	1.909613e+01	3.831357e+02
1.180000e-06	2.885873e-06	6.293841e-09	1.955668e+01	3.947488e+02
1.190000e-06	2.952786e-06	6.444924e-09	2.001013e+01	4.060325e+02
1.200000e-06	3.018345e-06	6.587044e-09	2.045440e+01	4.169796e+02
1.210000e-06	3.082787e-06	6.725010e-09	2.089111e+01	4.275841e+02
1.220000e-06	3.146299e-06	6.857132e-09	2.132151e+01	4.378403e+02
1.230000e-06	3.208800e-06	6.979887e-09	2.174506e+01	4.477435e+02
1.240000e-06	3.270252e-06	7.091822e-09	2.216150e+01	4.572899e+02
1.250000e-06	3.330712e-06	7.198015e-09	2.257122e+01	4.664760e+02
1.260000e-06	3.390114e-06	7.305565e-09	2.297377e+01	4.752996e+02
1.270000e-06	3.448076e-06	7.410403e-09	2.336656e+01	4.837589e+02
1.280000e-06	3.504579e-06	7.506739e-09	2.374947e+01	4.918530e+02
1.290000e-06	3.559895e-06	7.597140e-09	2.412432e+01	4.995817e+02
1.300000e-06	3.614045e-06	7.685521e-09	2.449128e+01	5.069455e+02
1.310000e-06	3.666894e-06	7.770291e-09	2.484942e+01	5.139458e+02
1.320000e-06	3.718164e-06	7.849838e-09	2.519686e+01	5.205845e+02
1.330000e-06	3.767702e-06	7.922437e-09	2.553257e+01	5.268644e+02
1.340000e-06	3.815756e-06	7.989716e-09	2.585821e+01	5.327888e+02
1.350000e-06	3.862504e-06	8.053451e-09	2.617501e+01	5.383619e+02
1.360000e-06	3.907952e-06	8.112872e-09	2.648300e+01	5.435883e+02
1.370000e-06	3.952184e-06	8.169132e-09	2.678275e+01	5.484733e+02
1.380000e-06	3.994943e-06	8.224227e-09	2.707251e+01	5.530230e+02
1.390000e-06	4.036106e-06	8.281185e-09	2.735146e+01	5.572437e+02
1.400000e-06	4.075894e-06	8.337883e-09	2.762109e+01	5.611425e+02
1.410000e-06	4.114317e-06	8.389500e-09	2.788147e+01	5.647270e+02
1.420000e-06	4.151413e-06	8.435049e-09	2.813286e+01	5.680051e+02
1.430000e-06	4.187192e-06	8.476741e-09	2.837532e+01	5.709854e+02
1.440000e-06	4.221336e-06	8.516127e-09	2.860670e+01	5.736768e+02
1.450000e-06	4.253861e-06	8.552326e-09	2.882712e+01	5.760885e+02
1.460000e-06	4.284983e-06	8.585453e-09	2.903802e+01	5.782301e+02
1.470000e-06	4.314695e-06	8.616344e-09	2.923938e+01	5.801115e+02
1.480000e-06	4.343076e-06	8.647023e-09	2.943170e+01	5.817429e+02
1.490000e-06	4.369822e-06	8.678421e-09	2.961295e+01	5.831347e+02
1.500000e-06	4.394757e-06	8.709727e-09	2.978193e+01	5.842975e+02
1.510000e-06	4.418137e-06	8.738235e-09	2.994037e+01	5.852421e+02
1.520000e-06	4.440051e-06	8.761059e-09	3.008887e+01	5.859792e+02
1.530000e-06	4.460586e-06	8.780058e-09	3.022803e+01	5.865199e+02
1.540000e-06	4.479691e-06	8.796906e-09	3.035750e+01	5.868750e+02
1.550000e-06	4.497107e-06	8.813705e-09	3.047552e+01	5.870555e+02
1.560000e-06	4.512805e-06	8.828666e-09	3.058191e+01	5.870723e+02
1.570000e-06	4.526872e-06	8.839494e-09	3.067723e+01	5.869363e+02
1.580000e-06	4.539252e-06	8.851155e-09	3.076113e+01	5.866580e+02
1.590000e-06	4.549783e-06	8.865584e-09	3.083249e+01	5.862479e+02
1.600000e-06	4.558498e-06	8.879826e-09	3.089155e+01	5.857165e+02
1.610000e-06	4.565607e-06	8.891886e-09	3.093973e+01	5.850738e+02
1.620000e-06	4.571205e-06	8.899495e-09	3.097766e+01	5.843295e+02
1.630000e-06	4.575355e-06	8.904320e-09	3.100578e+01	5.834931e+02
1.640000e-06	4.577825e-06	8.907373e-09	3.102253e+01	5.825738e+02
1.650000e-06	4.578545e-06	8.904749e-09	3.102740e+01	5.815804e+02
1.660000e-06	4.577735e-06	8.897628e-09	3.102191e+01	5.805213e+02
1.670000e-06	4.575498e-06	8.891156e-09	3.100676e+01	5.794042e+02
1.680000e-06	4.571947e-06	8.889394e-09	3.098269e+01	5.782369e+02
1.690000e-06	4.566885e-06	8.890323e-09	3.094839e+01	5.770261e+02
1.700000e-06	4.560169e-06	8.888786e-09	3.090287e+01	5.757785e+02
1.710000e-06	4.552030e-06	8.882837e-09	3.084772e+01	5.745000e+02
1.720000e-06	4.542534e-06	8.875370e-09	3.078337e+01	5.731959e+02
1.730000e-06	4.531597e-06	8.879457e-09	3.070925e+01	5.718711e+02
1.740000e-06	4.519003e-06	8.863746e-09	3.062390e+01	5.705298e+02
1.750000e-06	4.504194e-06	8.827657e-09	3.052355e+01	5.691758e+02
1.760000e-06	4.486932e-06	8.801953e-09	3.040657e+01	5.678120e+02
1.770000e-06	4.467858e-06	8.779814e-09	3.027731e+01	5.664409e+02
1.780000e-06	4.447955e-06	8.812148e-09	3.014244e+01	5.650642e+02
1.790000e-06	4.427585e-06	8.786487e-09	3.000439e+01	5.636832e+02
1.800000e-06	4.405713e-06	8.711981e-09	2.985617e+01	5.622983e+02
1.810000e-06	4.381612e-06	8.763779e-09	2.969285e+01	5.609095e+02
1.820000e-06	4.356147e-06	8.741883e-09	2.952028e+01	5.595161e+02
1.830000e-06	4.329447e-06	8.665559e-09	2.933934e+01	5.581166e+02
1.840000e-06	4.300708e-06	8.707449e-09	2.914459e+01	5.567092e+02
1.850000e-06	4.270182e-06	8.655905e-09	2.893772e+01	5.552912e+02
1.860000e-06	4.238308e-06	8.575019e-09	2.872172e+01	5.538594e+02
1.870000e-06	4.205077e-06	8.642959e-09	2.849653e+01	5.524101e+02
1.880000e-06	4.170593e-06	8.615833e-09	2.826284e+01	5.509389e+02
1.890000e-06	4.134520e-06	8.539388e-09	2.801838e+01	5.494408e+02
1.900000e-06	4.096706e-06	8.528154e-09	2.776212e+01	5.479106e+02
1.910000e-06	4.057489e-06	8.462783e-09	2.749637e+01	5.463421e+02
1.920000e-06	4.016795e-06	8.467555e-09	2.722059e+01	5.447289e+02
1.930000e-06	3.974732e-06	8.434757e-09	2.693555e+01	5.430642e+02
1.940000e-06	3.931544e-06	8.321046e-09	2.664287e+01	5.413406e+02
1.950000e-06	3.886980e-06	8.323798e-09	2.634088e+01	5.395502e+02
1.960000e-06	3.841002e-06	8.292007e-09	2.602930e+01	5.376850e+02
1.970000e-06	3.793586e-06	8.216254e-09	2.570797e+01	5.357364e+02
1.980000e-06	3.744716e-06	8.180017e-09	2.537680e+01	5.336956e+02
1.990000e-06	3.694539e-06	8.109020e-09	2.503676e+01	5.315535e+02
2.000000e-06	3.642969e-06	8.068176e-09	2.468729e+01	5.293008e+02
2.010000e-06	3.589998e-06	8.029256e-09	2.432832e+01	5.269278e+02
2.020000e-06	3.535459e-06	7.976459e-09	2.395873e+01	5.244248e+02
2.030000e-06	3.479399e-06	7.906446e-09	2.357882e+01	5.217819e+02
2.040000e-06	3.422167e-06	7.817361e-09	2.319098e+01	5.189892e+02
2.050000e-06	3.363814e-06	7.786345e-09	2.279554e+01	5.160365e+02
2.060000e-06	3.304426e-06	7.723404e-09	2.239308e+01	5.129137e+02
2.070000e-06	3.243815e-06	7.645190e-09	2.198235e+01	5.096109e+02
2.080000e-06	3.181773e-06	7.574073e-09	2.156190e+01	5.061180e+02
2.090000e-06	3.118578e-06	7.492932e-09	2.113365e+01	5.024250e+02
2.100000e-06	3.054349e-06	7.447352e-09	2.069839e+01	4.985223e+02
2.110000e-06	2.989093e-06	7.363962e-09	2.025617e+01	4.944001e+02
2.120000e-06	2.922844e-06	7.277883e-09	1.980722e+01	4.900491e+02
2.130000e-06	2.855680e-06	7.198586e-09	1.935207e+01	4.854602e+02
2.140000e-06	2.787507e-06	7.115725e-09	1.889008e+01	4.806244e+02
2.150000e-06	2.718031e-06	7.051290e-09	1.841926e+01	4.755333e+02
2.160000e-06	2.647395e-06	6.949872e-09	1.794059e+01	4.701787e+02
2.170000e-06	2.575906e-06	6.847829e-09	1.745613e+01	4.645528e+02
2.180000e-06	2.503599e-06	6.754141e-09	1.696613e+01	4.586482e+02
2.190000e-06	2.430428e-06	6.670527e-09	1.647027e+01	4.524582e+02
2.200000e-06	2.356374e-06	6.585965e-09	1.596843e+01	4.459762e+02
2.210000e-06	2.281448e-06	6.473138e-09	1.546068e+01	4.391964e+02
2.220000e-06	2.205671e-06	6.371736e-09	1.494716e+01	4.321135e+02
2.230000e-06	2.128921e-06	6.272239e-09	1.442705e+01	4.247229e+02
2.240000e-06	2.051058e-06	6.168903e-09	1.389939e+01	4.170202e+02
2.250000e-06	1.972267e-06	6.051811e-09	1.336545e+01	4.090022e+02
2.260000e-06	1.892840e-06	5.920266e-09	1.282720e+01	4.006658e+02
2.270000e-06	1.812866e-06	5.800476e-09	1.228524e+01	3.920090e+02
2.280000e-06	1.732317e-06	5.687549e-09	1.173938e+01	3.830302e+02
2.290000e-06	1.651214e-06	5.573129e-09	1.118977e+01	3.737286e+02
2.300000e-06	1.569580e-06	5.440183e-09	1.063656e+01	3.641042e+02
2.310000e-06	1.487388e-06	5.303072e-09	1.007957e+01	3.541576e+02
2.320000e-06	1.404716e-06	5.175339e-09	9.519329e+00	3.438901e+02
2.330000e-06	1.321673e-06	5.046276e-09	8.956574e+00	3.333040e+02
2.340000e-06	1.238342e-06	4.904618e-09	8.391864e+00	3.224020e+02
2.350000e-06	1.154746e-06	4.745325e-09	7.825362e+00	3.111878e+02
2.360000e-06	1.070773e-06	4.591644e-09	7.256300e+00	2.996658e+02
2.370000e-06	9.863398e-07	4.442964e-09	6.684124e+00	2.878410e+02
2.380000e-06	9.014315e-07	4.287898e-09	6.108726e+00	2.757193e+02
2.390000e-06	8.159909e-07	4.123873e-09	5.529722e+00	2.633072e+02
2.400000e-06	7.299908e-07	3.953342e-09	4.946925e+00	2.506121e+02
2.410000e-06	6.435811e-07	3.786838e-09	4.361353e+00	2.376420e+02
2.420000e-06	5.570054e-07	3.618710e-09	3.774656e+00	2.244055e+02
2.430000e-06	4.702859e-07	3.437246e-09	3.186984e+00	2.109120e+02
2.440000e-06	3.833631e-07	3.241803e-09	2.597935e+00	1.971717e+02
2.450000e-06	2.963296e-07	3.044363e-09	2.008135e+00	1.831951e+02
2.460000e-06	2.092591e-07	2.850210e-09	1.418085e+00	1.689936e+02
2.470000e-06	1.221467e-07	2.653027e-09	8.277509e-01	1.545790e+02
2.480000e-06	3.498446e-08	2.443879e-09	2.370790e-01	1.399639e+02
2.490000e-06	-5.221006e-08	2.228513e-09	-3.538117e-01	1.251612e+02
2.500000e-06	-1.393583e-07	2.017370e-09	-9.443887e-01	1.101845e+02
2.510000e-06	-2.264578e-07	1.802600e-09	-1.534635e+00	9.504771e+01
2.520000e-06	-3.134888e-07	1.572782e-09	-2.124418e+00	7.976534e+01
2.530000e-06	-4.003724e-07	1.327291e-09	-2.713201e+00	6.435222e+01
2.540000e-06	-4.870996e-07	1.078372e-09	-3.300925e+00	4.882359e+01
2.550000e-06	-5.736136e-07	8.317256e-10	-3.887204e+00	3.319501e+01
2.560000e-06	-6.598632e-07	5.800427e-10	-4.471692e+00	1.748237e+01
2.570000e-06	-7.458128e-07	3.167709e-10	-5.054146e+00	1.701793e+00
2.580000e-06	-8.313021e-07	4.596015e-11	-5.633481e+00	-1.413035e+01
2.590000e-06	-9.162245e-07	-2.233907e-10	-6.208974e+00	-2.999752e+01
2.600000e-06	-1.000666e-06	-4.913785e-10	-6.781209e+00	-4.588302e+01
2.610000e-06	-1.084694e-06	-7.670369e-10	-7.350643e+00	-6.177006e+01
2.620000e-06	-1.168373e-06	-1.054804e-09	-7.917706e+00	-7.764180e+01
2.630000e-06	-1.251783e-06	-1.344247e-09	-8.482949e+00	-9.348138e+01
2.640000e-06	-1.334884e-06	-1.628995e-09	-9.046102e+00	-1.092719e+02
2.650000e-06	-1.417559e-06	-1.912201e-09	-9.606363e+00	-1.249967e+02
2.660000e-06	-1.499724e-06	-2.198237e-09	-1.016317e+01	-1.406390e+02
2.670000e-06	-1.581357e-06	-2.484086e-09	-1.071637e+01	-1.561824e+02
2.680000e-06	-1.662457e-06	-2.760895e-09	-1.126596e+01	-1.716104e+02
2.690000e-06	-1.742962e-06	-3.028296e-09	-1.181152e+01	-1.869071e+02
2.700000e-06	-1.822894e-06	-3.292852e-09	-1.235320e+01	-2.020565e+02
2.710000e-06	-1.902403e-06	-3.557458e-09	-1.289200e+01	-2.170432e+02
2.720000e-06	-1.981403e-06	-3.816847e-09	-1.342737e+01	-2.318520e+02
2.730000e-06	-2.059477e-06	-4.064179e-09	-1.395645e+01	-2.464682e+02
2.740000e-06	-2.136391e-06	-4.300782e-09	-1.447767e+01	-2.608773e+02
2.750000e-06	-2.212297e-06	-4.532853e-09	-1.499207e+01	-2.750654e+02
2.760000e-06	-2.287338e-06	-4.759379e-09	-1.550059e+01	-2.890192e+02
2.770000e-06	-2.361520e-06	-4.974973e-09	-1.600330e+01	-3.027258e+02
2.780000e-06	-2.434880e-06	-5.178004e-09	-1.650044e+01	-3.161727e+02
2.790000e-06	-2.507391e-06	-5.371516e-09	-1.699182e+01	-3.293483e+02
2.800000e-06	-2.579117e-06	-5.559919e-09	-1.747789e+01	-3.422414e+02
2.810000e-06	-2.650138e-06	-5.742698e-09	-1.795918e+01	-3.548414e+02
2.820000e-06	-2.720135e-06	-5.914134e-09	-1.843353e+01	-3.671385e+02
2.830000e-06	-2.788880e-06	-6.074318e-09	-1.889939e+01	-3.791234e+02
2.840000e-06	-2.856551e-06	-6.229255e-09	-1.935798e+01	-3.907877e+02
2.850000e-06	-2.923343e-06	-6.382250e-09	-1.981061e+01	-4.021235e+02
2.860000e-06	-2.989197e-06	-6.528846e-09	-2.025688e+01	-4.131238e+02
2.870000e-06	-3.053967e-06	-6.664690e-09	-2.069580e+01	-4.237822e+02
2.880000e-06	-3.117761e-06	-6.791813e-09	-2.112812e+01	-4.340932e+02
2.890000e-06	-3.180557e-06	-6.914062e-09	-2.155366e+01	-4.440518e+02
2.900000e-06	-3.241915e-06	-7.033431e-09	-2.196947e+01	-4.536540e+02
2.910000e-06	-3.301938e-06	-7.146046e-09	-2.237623e+01	-4.628964e+02
2.920000e-06	-3.361015e-06	-7.249593e-09	-2.277658e+01	-4.717766e+02
2.930000e-06	-3.418994e-06	-7.348556e-09	-2.316948e+01	-4.802927e+02
2.940000e-06	-3.475679e-06	-7.445108e-09	-2.355362e+01	-4.884436e+02
