# Temperatura_=_20.0
# Concentracion g/m^3_=_10000.0
# C_Vs_to_Am_M_A/Vsm_=_65563218390.804596
# pendiente_HvsI_1/m_=_3716.3
# ordenada_HvsI_A/m_=_1297.0
# frecuencia_Hz_=_300948.32761965157

Tiempo_(s)	Campo_(V.s)	Magnetizacion_(V.s)	Campo_(kA/m)	Magnetizacion_(A/m)
0.000000e+00	-4.549993e-06	-8.911869e-09	-3.088167e+01	-5.793531e+02
1.000000e-08	-4.548903e-06	-8.912093e-09	-3.087427e+01	-5.782771e+02
2.000000e-08	-4.546131e-06	-8.911915e-09	-3.085546e+01	-5.771516e+02
3.000000e-08	-4.541776e-06	-8.909745e-09	-3.082590e+01	-5.759837e+02
4.000000e-08	-4.536056e-06	-8.904584e-09	-3.078708e+01	-5.747800e+02
5.000000e-08	-4.528948e-06	-8.895454e-09	-3.073884e+01	-5.735465e+02
6.000000e-08	-4.520526e-06	-8.885415e-09	-3.068167e+01	-5.722888e+02
7.000000e-08	-4.510595e-06	-8.865417e-09	-3.061427e+01	-5.710117e+02
8.000000e-08	-4.498863e-06	-8.844232e-09	-3.053464e+01	-5.697195e+02
9.000000e-08	-4.485250e-06	-8.895302e-09	-3.044225e+01	-5.684161e+02
1.000000e-07	-4.469367e-06	-8.909089e-09	-3.033445e+01	-5.671044e+02
1.100000e-07	-4.451291e-06	-8.866192e-09	-3.021176e+01	-5.657870e+02
1.200000e-07	-4.431688e-06	-8.798039e-09	-3.007871e+01	-5.644657e+02
1.300000e-07	-4.411106e-06	-8.646866e-09	-2.993902e+01	-5.631416e+02
1.400000e-07	-4.389596e-06	-8.787708e-09	-2.979303e+01	-5.618155e+02
1.500000e-07	-4.366640e-06	-8.874107e-09	-2.963722e+01	-5.604871e+02
1.600000e-07	-4.342346e-06	-8.595690e-09	-2.947233e+01	-5.591559e+02
1.700000e-07	-4.316765e-06	-8.705613e-09	-2.929871e+01	-5.578203e+02
1.800000e-07	-4.289308e-06	-8.792804e-09	-2.911235e+01	-5.564784e+02
1.900000e-07	-4.260143e-06	-8.553239e-09	-2.891440e+01	-5.551277e+02
2.000000e-07	-4.229769e-06	-8.689301e-09	-2.870825e+01	-5.537649e+02
2.100000e-07	-4.198026e-06	-8.700153e-09	-2.849281e+01	-5.523861e+02
2.200000e-07	-4.164657e-06	-8.423305e-09	-2.826632e+01	-5.509871e+02
2.300000e-07	-4.129655e-06	-8.514119e-09	-2.802876e+01	-5.495628e+02
2.400000e-07	-4.093241e-06	-8.571419e-09	-2.778161e+01	-5.481077e+02
2.500000e-07	-4.055488e-06	-8.467497e-09	-2.752537e+01	-5.466158e+02
2.600000e-07	-4.016155e-06	-8.458429e-09	-2.725841e+01	-5.450806e+02
2.700000e-07	-3.975441e-06	-8.343185e-09	-2.698207e+01	-5.434951e+02
2.800000e-07	-3.933419e-06	-8.319365e-09	-2.669687e+01	-5.418517e+02
2.900000e-07	-3.889782e-06	-8.370134e-09	-2.640069e+01	-5.401427e+02
3.000000e-07	-3.844613e-06	-8.256518e-09	-2.609412e+01	-5.383598e+02
3.100000e-07	-3.798034e-06	-8.156175e-09	-2.577798e+01	-5.364943e+02
3.200000e-07	-3.750039e-06	-8.146395e-09	-2.545223e+01	-5.345373e+02
3.300000e-07	-3.700688e-06	-8.142373e-09	-2.511727e+01	-5.324796e+02
3.400000e-07	-3.649752e-06	-8.095593e-09	-2.477156e+01	-5.303116e+02
3.500000e-07	-3.597114e-06	-8.024352e-09	-2.441430e+01	-5.280236e+02
3.600000e-07	-3.543009e-06	-7.927742e-09	-2.404708e+01	-5.256058e+02
3.700000e-07	-3.487691e-06	-7.859913e-09	-2.367162e+01	-5.230481e+02
3.800000e-07	-3.431339e-06	-7.881761e-09	-2.328915e+01	-5.203403e+02
3.900000e-07	-3.373792e-06	-7.816074e-09	-2.289857e+01	-5.174722e+02
4.000000e-07	-3.314773e-06	-7.681331e-09	-2.249799e+01	-5.144336e+02
4.100000e-07	-3.254445e-06	-7.629829e-09	-2.208854e+01	-5.112142e+02
4.200000e-07	-3.193114e-06	-7.599137e-09	-2.167227e+01	-5.078038e+02
4.300000e-07	-3.130788e-06	-7.549189e-09	-2.124926e+01	-5.041925e+02
4.400000e-07	-3.067346e-06	-7.449295e-09	-2.081867e+01	-5.003701e+02
4.500000e-07	-3.002893e-06	-7.327871e-09	-2.038121e+01	-4.963270e+02
4.600000e-07	-2.937351e-06	-7.277012e-09	-1.993636e+01	-4.920535e+02
4.700000e-07	-2.870457e-06	-7.243801e-09	-1.948234e+01	-4.875404e+02
4.800000e-07	-2.802391e-06	-7.168109e-09	-1.902036e+01	-4.827785e+02
4.900000e-07	-2.733471e-06	-7.046903e-09	-1.855259e+01	-4.777593e+02
5.000000e-07	-2.663719e-06	-6.945400e-09	-1.807917e+01	-4.724743e+02
5.100000e-07	-2.593036e-06	-6.886436e-09	-1.759943e+01	-4.669156e+02
5.200000e-07	-2.521498e-06	-6.813194e-09	-1.711389e+01	-4.610758e+02
5.300000e-07	-2.449213e-06	-6.704091e-09	-1.662328e+01	-4.549476e+02
5.400000e-07	-2.376021e-06	-6.572158e-09	-1.612651e+01	-4.485247e+02
5.500000e-07	-2.301630e-06	-6.485863e-09	-1.562160e+01	-4.418010e+02
5.600000e-07	-2.226113e-06	-6.427204e-09	-1.510905e+01	-4.347710e+02
5.700000e-07	-2.149734e-06	-6.328436e-09	-1.459065e+01	-4.274299e+02
5.800000e-07	-2.072549e-06	-6.188793e-09	-1.406679e+01	-4.197734e+02
5.900000e-07	-1.994528e-06	-6.055530e-09	-1.353724e+01	-4.117978e+02
6.000000e-07	-1.915836e-06	-5.959638e-09	-1.300315e+01	-4.035003e+02
6.100000e-07	-1.836499e-06	-5.864922e-09	-1.246467e+01	-3.948784e+02
6.200000e-07	-1.756241e-06	-5.735966e-09	-1.191994e+01	-3.859306e+02
6.300000e-07	-1.675036e-06	-5.585754e-09	-1.136879e+01	-3.766560e+02
6.400000e-07	-1.593225e-06	-5.461505e-09	-1.081352e+01	-3.670544e+02
6.500000e-07	-1.511060e-06	-5.361627e-09	-1.025585e+01	-3.571264e+02
6.600000e-07	-1.428481e-06	-5.238233e-09	-9.695374e+00	-3.468733e+02
6.700000e-07	-1.345356e-06	-5.077270e-09	-9.131190e+00	-3.362972e+02
6.800000e-07	-1.261714e-06	-4.916429e-09	-8.563493e+00	-3.254007e+02
6.900000e-07	-1.177684e-06	-4.783976e-09	-7.993163e+00	-3.141876e+02
7.000000e-07	-1.093365e-06	-4.656865e-09	-7.420879e+00	-3.026622e+02
7.100000e-07	-1.008851e-06	-4.497441e-09	-6.847263e+00	-2.908294e+02
7.200000e-07	-9.241222e-07	-4.314486e-09	-6.272194e+00	-2.786951e+02
7.300000e-07	-8.390973e-07	-4.149357e-09	-5.695113e+00	-2.662659e+02
7.400000e-07	-7.537948e-07	-4.002768e-09	-5.116149e+00	-2.535491e+02
7.500000e-07	-6.682219e-07	-3.843106e-09	-4.535350e+00	-2.405528e+02
7.600000e-07	-5.823717e-07	-3.652898e-09	-3.952668e+00	-2.272855e+02
7.700000e-07	-4.963110e-07	-3.456114e-09	-3.368558e+00	-2.137568e+02
7.800000e-07	-4.101078e-07	-3.277542e-09	-2.783480e+00	-1.999766e+02
7.900000e-07	-3.238038e-07	-3.102274e-09	-2.197718e+00	-1.859559e+02
8.000000e-07	-2.374201e-07	-2.902427e-09	-1.611416e+00	-1.717058e+02
8.100000e-07	-1.509596e-07	-2.679162e-09	-1.024592e+00	-1.572384e+02
8.200000e-07	-6.443564e-08	-2.463398e-09	-4.373370e-01	-1.425663e+02
8.300000e-07	2.207912e-08	-2.265372e-09	1.498552e-01	-1.277024e+02
8.400000e-07	1.085743e-07	-2.060773e-09	7.369147e-01	-1.126605e+02
8.500000e-07	1.950822e-07	-1.827614e-09	1.324060e+00	-9.745466e+01
8.600000e-07	2.815123e-07	-1.580280e-09	1.910678e+00	-8.209938e+01
8.700000e-07	3.678284e-07	-1.341674e-09	2.496522e+00	-6.660967e+01
8.800000e-07	4.540563e-07	-1.107229e-09	3.081767e+00	-5.100089e+01
8.900000e-07	5.401740e-07	-8.560861e-10	3.666264e+00	-3.528874e+01
9.000000e-07	6.261164e-07	-5.851428e-10	4.249572e+00	-1.948925e+01
9.100000e-07	7.117773e-07	-3.155935e-10	4.830968e+00	-3.618706e+00
9.200000e-07	7.971585e-07	-5.864358e-11	5.410467e+00	1.230638e+01
9.300000e-07	8.822549e-07	2.010446e-10	5.988032e+00	2.826930e+01
9.400000e-07	9.670418e-07	4.838711e-10	6.563498e+00	4.425319e+01
9.500000e-07	1.051602e-06	7.807265e-10	7.137425e+00	6.024110e+01
9.600000e-07	1.135959e-06	1.068368e-09	7.709973e+00	7.621600e+01
9.700000e-07	1.220034e-06	1.344032e-09	8.280602e+00	9.216085e+01
9.800000e-07	1.303745e-06	1.627411e-09	8.848765e+00	1.080586e+02
9.900000e-07	1.386994e-06	1.926453e-09	9.413794e+00	1.238924e+02
1.000000e-06	1.469651e-06	2.221523e-09	9.974804e+00	1.396452e+02
1.010000e-06	1.551696e-06	2.497128e-09	1.053166e+01	1.553004e+02
1.020000e-06	1.633238e-06	2.763979e-09	1.108510e+01	1.708416e+02
1.030000e-06	1.714352e-06	3.042796e-09	1.163564e+01	1.862523e+02
1.040000e-06	1.794826e-06	3.327112e-09	1.218183e+01	2.015166e+02
1.050000e-06	1.874445e-06	3.595098e-09	1.272222e+01	2.166188e+02
1.060000e-06	1.953306e-06	3.843485e-09	1.325746e+01	2.315435e+02
1.070000e-06	2.031529e-06	4.088158e-09	1.378837e+01	2.462758e+02
1.080000e-06	2.109074e-06	4.338328e-09	1.431469e+01	2.608011e+02
1.090000e-06	2.185867e-06	4.580657e-09	1.483590e+01	2.751054e+02
1.100000e-06	2.261867e-06	4.800118e-09	1.535172e+01	2.891750e+02
1.110000e-06	2.336854e-06	5.004351e-09	1.586067e+01	3.029968e+02
1.120000e-06	2.410637e-06	5.211030e-09	1.636145e+01	3.165585e+02
1.130000e-06	2.483385e-06	5.420269e-09	1.685521e+01	3.298479e+02
1.140000e-06	2.555384e-06	5.613798e-09	1.734388e+01	3.428538e+02
1.150000e-06	2.626596e-06	5.786418e-09	1.782721e+01	3.555656e+02
1.160000e-06	2.696860e-06	5.952595e-09	1.830410e+01	3.679731e+02
1.170000e-06	2.766201e-06	6.122649e-09	1.877474e+01	3.800671e+02
1.180000e-06	2.834745e-06	6.288346e-09	1.923995e+01	3.918389e+02
1.190000e-06	2.902404e-06	6.435924e-09	1.969917e+01	4.032805e+02
1.200000e-06	2.968725e-06	6.569197e-09	2.014930e+01	4.143848e+02
1.210000e-06	3.033708e-06	6.703948e-09	2.059035e+01	4.251453e+02
1.220000e-06	3.097767e-06	6.842846e-09	2.102513e+01	4.355563e+02
1.230000e-06	3.160874e-06	6.971813e-09	2.145346e+01	4.456129e+02
1.240000e-06	3.222874e-06	7.083346e-09	2.187426e+01	4.553108e+02
1.250000e-06	3.283885e-06	7.186357e-09	2.228835e+01	4.646468e+02
1.260000e-06	3.344009e-06	7.294702e-09	2.269643e+01	4.736180e+02
1.270000e-06	3.402861e-06	7.404291e-09	2.309587e+01	4.822228e+02
1.280000e-06	3.460170e-06	7.501756e-09	2.348484e+01	4.904599e+02
1.290000e-06	3.516216e-06	7.588656e-09	2.386523e+01	4.983292e+02
1.300000e-06	3.571110e-06	7.676343e-09	2.423781e+01	5.058309e+02
1.310000e-06	3.624741e-06	7.766461e-09	2.460181e+01	5.129662e+02
1.320000e-06	3.676968e-06	7.850058e-09	2.495628e+01	5.197371e+02
1.330000e-06	3.727531e-06	7.919600e-09	2.529946e+01	5.261461e+02
1.340000e-06	3.776481e-06	7.982279e-09	2.563170e+01	5.321965e+02
1.350000e-06	3.824087e-06	8.048790e-09	2.595481e+01	5.378924e+02
1.360000e-06	3.870366e-06	8.117834e-09	2.626891e+01	5.432384e+02
1.370000e-06	3.915419e-06	8.180476e-09	2.657470e+01	5.482396e+02
1.380000e-06	3.959202e-06	8.233420e-09	2.687186e+01	5.529021e+02
1.390000e-06	4.001361e-06	8.286114e-09	2.715800e+01	5.572323e+02
1.400000e-06	4.041988e-06	8.344151e-09	2.743375e+01	5.612371e+02
1.410000e-06	4.081359e-06	8.398763e-09	2.770097e+01	5.649242e+02
1.420000e-06	4.119409e-06	8.442384e-09	2.795921e+01	5.683016e+02
1.430000e-06	4.156124e-06	8.480110e-09	2.820841e+01	5.713777e+02
1.440000e-06	4.191353e-06	8.520686e-09	2.844751e+01	5.741614e+02
1.450000e-06	4.224879e-06	8.564585e-09	2.867506e+01	5.766621e+02
1.460000e-06	4.256910e-06	8.603407e-09	2.889246e+01	5.788895e+02
1.470000e-06	4.287561e-06	8.634825e-09	2.910050e+01	5.808534e+02
1.480000e-06	4.316832e-06	8.664857e-09	2.929916e+01	5.825642e+02
1.490000e-06	4.344678e-06	8.698861e-09	2.948816e+01	5.840323e+02
1.500000e-06	4.370755e-06	8.733444e-09	2.966515e+01	5.852684e+02
1.510000e-06	4.395115e-06	8.760304e-09	2.983048e+01	5.862834e+02
1.520000e-06	4.417972e-06	8.780262e-09	2.998562e+01	5.870882e+02
1.530000e-06	4.439437e-06	8.800501e-09	3.013130e+01	5.876939e+02
1.540000e-06	4.459617e-06	8.822828e-09	3.026827e+01	5.881115e+02
1.550000e-06	4.478246e-06	8.842983e-09	3.039471e+01	5.883522e+02
1.560000e-06	4.495188e-06	8.857968e-09	3.050970e+01	5.884269e+02
1.570000e-06	4.510468e-06	8.869962e-09	3.061341e+01	5.883466e+02
1.580000e-06	4.524033e-06	8.883465e-09	3.070548e+01	5.881222e+02
1.590000e-06	4.535765e-06	8.898799e-09	3.078511e+01	5.877643e+02
1.600000e-06	4.545625e-06	8.910823e-09	3.085202e+01	5.872834e+02
1.610000e-06	4.553831e-06	8.918092e-09	3.090772e+01	5.866897e+02
1.620000e-06	4.560499e-06	8.924703e-09	3.095298e+01	5.859932e+02
1.630000e-06	4.565715e-06	8.932528e-09	3.098838e+01	5.852036e+02
1.640000e-06	4.569375e-06	8.939327e-09	3.101322e+01	5.843302e+02
1.650000e-06	4.571229e-06	8.942118e-09	3.102581e+01	5.833819e+02
1.660000e-06	4.571464e-06	8.938736e-09	3.102740e+01	5.823673e+02
1.670000e-06	4.570252e-06	8.930855e-09	3.101918e+01	5.812945e+02
1.680000e-06	4.567651e-06	8.929361e-09	3.100152e+01	5.801711e+02
1.690000e-06	4.563684e-06	8.927814e-09	3.097460e+01	5.790044e+02
1.700000e-06	4.558069e-06	8.922622e-09	3.093649e+01	5.778009e+02
1.710000e-06	4.550826e-06	8.917526e-09	3.088732e+01	5.765669e+02
1.720000e-06	4.542246e-06	8.917403e-09	3.082909e+01	5.753078e+02
1.730000e-06	4.532353e-06	8.942008e-09	3.076194e+01	5.740287e+02
1.740000e-06	4.521022e-06	8.923685e-09	3.068504e+01	5.727340e+02
1.750000e-06	4.507808e-06	8.817659e-09	3.059535e+01	5.714275e+02
1.760000e-06	4.492194e-06	8.796013e-09	3.048938e+01	5.701123e+02
1.770000e-06	4.474283e-06	8.798293e-09	3.036781e+01	5.687911e+02
1.780000e-06	4.454845e-06	8.934660e-09	3.023588e+01	5.674658e+02
1.790000e-06	4.434860e-06	8.896011e-09	3.010024e+01	5.661377e+02
1.800000e-06	4.414172e-06	8.626464e-09	2.995983e+01	5.648073e+02
1.810000e-06	4.391482e-06	8.833466e-09	2.980583e+01	5.634748e+02
1.820000e-06	4.366844e-06	8.864200e-09	2.963860e+01	5.621396e+02
1.830000e-06	4.341200e-06	8.596734e-09	2.946455e+01	5.608002e+02
1.840000e-06	4.314033e-06	8.783089e-09	2.928016e+01	5.594549e+02
1.850000e-06	4.284719e-06	8.749184e-09	2.908121e+01	5.581012e+02
1.860000e-06	4.253824e-06	8.465034e-09	2.887151e+01	5.567358e+02
1.870000e-06	4.221617e-06	8.708426e-09	2.865292e+01	5.553552e+02
1.880000e-06	4.188092e-06	8.717204e-09	2.842538e+01	5.539548e+02
1.890000e-06	4.153237e-06	8.479706e-09	2.818881e+01	5.525300e+02
1.900000e-06	4.116635e-06	8.570801e-09	2.794039e+01	5.510752e+02
1.910000e-06	4.078390e-06	8.471275e-09	2.768081e+01	5.495845e+02
1.920000e-06	4.038773e-06	8.481971e-09	2.741192e+01	5.480514e+02
1.930000e-06	3.997690e-06	8.551231e-09	2.713308e+01	5.464690e+02
1.940000e-06	3.955363e-06	8.294430e-09	2.684580e+01	5.448299e+02
1.950000e-06	3.911837e-06	8.320760e-09	2.655039e+01	5.431263e+02
1.960000e-06	3.866885e-06	8.376508e-09	2.624529e+01	5.413500e+02
1.970000e-06	3.820518e-06	8.262957e-09	2.593058e+01	5.394923e+02
1.980000e-06	3.772731e-06	8.228055e-09	2.560625e+01	5.375445e+02
1.990000e-06	3.723594e-06	8.105706e-09	2.527274e+01	5.354972e+02
2.000000e-06	3.673080e-06	8.104063e-09	2.492989e+01	5.333411e+02
2.010000e-06	3.621101e-06	8.095263e-09	2.457710e+01	5.310664e+02
2.020000e-06	3.567587e-06	8.042568e-09	2.421390e+01	5.286633e+02
2.030000e-06	3.512537e-06	7.976800e-09	2.384026e+01	5.261217e+02
2.040000e-06	3.456274e-06	7.813793e-09	2.345839e+01	5.234315e+02
2.050000e-06	3.398899e-06	7.849691e-09	2.306898e+01	5.205824e+02
2.060000e-06	3.340433e-06	7.809052e-09	2.267215e+01	5.175643e+02
2.070000e-06	3.280922e-06	7.680793e-09	2.226824e+01	5.143669e+02
2.080000e-06	3.219999e-06	7.620840e-09	2.185475e+01	5.109800e+02
2.090000e-06	3.157639e-06	7.524603e-09	2.143150e+01	5.073935e+02
2.100000e-06	3.094207e-06	7.544279e-09	2.100098e+01	5.035974e+02
2.110000e-06	3.029768e-06	7.470273e-09	2.056361e+01	4.995819e+02
2.120000e-06	2.964298e-06	7.332576e-09	2.011926e+01	4.953375e+02
2.130000e-06	2.897864e-06	7.252061e-09	1.966836e+01	4.908546e+02
2.140000e-06	2.830565e-06	7.165777e-09	1.921158e+01	4.861244e+02
2.150000e-06	2.762113e-06	7.136423e-09	1.874699e+01	4.811380e+02
2.160000e-06	2.692248e-06	7.022930e-09	1.827280e+01	4.758870e+02
2.170000e-06	2.621300e-06	6.906215e-09	1.779126e+01	4.703634e+02
2.180000e-06	2.549605e-06	6.828910e-09	1.730466e+01	4.645596e+02
2.190000e-06	2.477169e-06	6.760504e-09	1.681302e+01	4.584686e+02
2.200000e-06	2.403926e-06	6.697226e-09	1.631590e+01	4.520837e+02
2.210000e-06	2.329835e-06	6.545343e-09	1.581304e+01	4.453989e+02
2.220000e-06	2.254815e-06	6.425305e-09	1.530386e+01	4.384085e+02
2.230000e-06	2.178883e-06	6.338773e-09	1.478850e+01	4.311076e+02
2.240000e-06	2.102007e-06	6.257305e-09	1.426672e+01	4.234919e+02
2.250000e-06	2.024082e-06	6.150288e-09	1.373783e+01	4.155576e+02
2.260000e-06	1.945274e-06	5.998961e-09	1.320295e+01	4.073017e+02
2.270000e-06	1.865845e-06	5.886203e-09	1.266384e+01	3.987218e+02
2.280000e-06	1.785909e-06	5.789107e-09	1.212131e+01	3.898162e+02
2.290000e-06	1.705423e-06	5.687170e-09	1.157503e+01	3.805838e+02
2.300000e-06	1.624272e-06	5.535702e-09	1.102425e+01	3.710245e+02
2.310000e-06	1.542498e-06	5.374651e-09	1.046923e+01	3.611386e+02
2.320000e-06	1.460190e-06	5.256742e-09	9.910591e+00	3.509274e+02
2.330000e-06	1.377465e-06	5.143925e-09	9.349118e+00	3.403927e+02
2.340000e-06	1.294451e-06	5.006745e-09	8.785686e+00	3.295374e+02
2.350000e-06	1.211173e-06	4.830608e-09	8.220463e+00	3.183648e+02
2.360000e-06	1.127574e-06	4.673717e-09	7.653063e+00	3.068791e+02
2.370000e-06	1.043531e-06	4.544288e-09	7.082645e+00	2.950854e+02
2.380000e-06	9.589977e-07	4.402278e-09	6.508901e+00	2.829894e+02
2.390000e-06	8.740234e-07	4.229515e-09	5.932164e+00	2.705974e+02
2.400000e-06	7.885203e-07	4.043725e-09	5.351838e+00	2.579168e+02
2.410000e-06	7.024718e-07	3.880795e-09	4.767810e+00	2.449553e+02
2.420000e-06	6.161197e-07	3.727314e-09	4.181722e+00	2.317217e+02
2.430000e-06	5.296226e-07	3.548561e-09	3.594649e+00	2.182253e+02
2.440000e-06	4.429651e-07	3.338994e-09	3.006489e+00	2.044759e+02
2.450000e-06	3.561390e-07	3.135391e-09	2.417183e+00	1.904844e+02
2.460000e-06	2.692194e-07	2.954068e-09	1.827244e+00	1.762619e+02
2.470000e-06	1.822650e-07	2.769865e-09	1.237067e+00	1.618203e+02
2.480000e-06	9.528255e-08	2.556734e-09	6.467008e-01	1.471722e+02
2.490000e-06	8.255579e-09	2.325597e-09	5.603219e-02	1.323304e+02
2.500000e-06	-7.876213e-08	2.109047e-09	-5.345736e-01	1.173086e+02
2.510000e-06	-1.656995e-07	1.906080e-09	-1.124634e+00	1.021208e+02
2.520000e-06	-2.525902e-07	1.683906e-09	-1.714378e+00	8.678148e+01
2.530000e-06	-3.394152e-07	1.432520e-09	-2.303676e+00	7.130557e+01
2.540000e-06	-4.261496e-07	1.177641e-09	-2.892359e+00	5.570836e+01
2.550000e-06	-5.127086e-07	9.365316e-10	-3.479851e+00	4.000553e+01
2.560000e-06	-5.989900e-07	6.951617e-10	-4.065459e+00	2.421305e+01
2.570000e-06	-6.849896e-07	4.271143e-10	-4.649155e+00	8.347173e+00
2.580000e-06	-7.706363e-07	1.416063e-10	-5.230456e+00	-7.575617e+00
2.590000e-06	-8.558524e-07	-1.307250e-10	-5.808833e+00	-2.353864e+01
2.600000e-06	-9.405971e-07	-3.878995e-10	-6.384012e+00	-3.952505e+01
2.610000e-06	-1.024850e-06	-6.566948e-10	-6.955852e+00	-5.551790e+01
2.620000e-06	-1.108643e-06	-9.518791e-10	-7.524571e+00	-7.150018e+01
2.630000e-06	-1.192082e-06	-1.251689e-09	-8.090887e+00	-8.745484e+01
2.640000e-06	-1.275205e-06	-1.536713e-09	-8.655063e+00	-1.033649e+02
2.650000e-06	-1.357965e-06	-1.816210e-09	-9.216765e+00	-1.192132e+02
2.660000e-06	-1.440351e-06	-2.107963e-09	-9.775939e+00	-1.349831e+02
2.670000e-06	-1.522270e-06	-2.406017e-09	-1.033194e+01	-1.506578e+02
2.680000e-06	-1.603639e-06	-2.686655e-09	-1.088420e+01	-1.662207e+02
2.690000e-06	-1.684404e-06	-2.947405e-09	-1.143237e+01	-1.816556e+02
2.700000e-06	-1.764555e-06	-3.207937e-09	-1.197637e+01	-1.969462e+02
2.710000e-06	-1.844198e-06	-3.481394e-09	-1.251693e+01	-2.120770e+02
2.720000e-06	-1.923404e-06	-3.754022e-09	-1.305451e+01	-2.270325e+02
2.730000e-06	-2.002021e-06	-4.006664e-09	-1.358810e+01	-2.417977e+02
2.740000e-06	-2.079637e-06	-4.241334e-09	-1.411489e+01	-2.563579e+02
2.750000e-06	-2.156116e-06	-4.474773e-09	-1.463397e+01	-2.706991e+02
2.760000e-06	-2.231676e-06	-4.710103e-09	-1.514681e+01	-2.848075e+02
2.770000e-06	-2.306402e-06	-4.931036e-09	-1.565399e+01	-2.986700e+02
2.780000e-06	-2.380297e-06	-5.129282e-09	-1.615553e+01	-3.122740e+02
2.790000e-06	-2.453376e-06	-5.319684e-09	-1.665153e+01	-3.256075e+02
2.800000e-06	-2.525610e-06	-5.516376e-09	-1.714180e+01	-3.386591e+02
2.810000e-06	-2.597045e-06	-5.710207e-09	-1.762664e+01	-3.514180e+02
2.820000e-06	-2.667680e-06	-5.886053e-09	-1.810605e+01	-3.638740e+02
2.830000e-06	-2.737112e-06	-6.043980e-09	-1.857730e+01	-3.760178e+02
2.840000e-06	-2.805254e-06	-6.198444e-09	-1.903979e+01	-3.878406e+02
2.850000e-06	-2.872463e-06	-6.357096e-09	-1.949596e+01	-3.993343e+02
2.860000e-06	-2.938778e-06	-6.507958e-09	-1.994604e+01	-4.104917e+02
2.870000e-06	-3.004099e-06	-6.640084e-09	-2.038940e+01	-4.213062e+02
2.880000e-06	-3.068399e-06	-6.763417e-09	-2.082581e+01	-4.317719e+02
2.890000e-06	-3.131764e-06	-6.890587e-09	-2.125588e+01	-4.418839e+02
2.900000e-06	-3.194127e-06	-7.017277e-09	-2.167915e+01	-4.516377e+02
2.910000e-06	-3.255055e-06	-7.131628e-09	-2.209268e+01	-4.610300e+02
2.920000e-06	-3.314687e-06	-7.232576e-09	-2.249742e+01	-4.700580e+02
2.930000e-06	-3.373371e-06	-7.331613e-09	-2.289571e+01	-4.787197e+02
2.940000e-06	-3.430880e-06	-7.434910e-09	-2.328604e+01	-4.870139e+02
