# Temperatura_=_20.0
# Concentracion g/m^3_=_10000.0
# C_Vs_to_Am_M_A/Vsm_=_65563218390.804596
# pendiente_HvsI_1/m_=_3716.3
# ordenada_HvsI_A/m_=_1297.0
# frecuencia_Hz_=_81140.71442744382

Tiempo_(s)	Campo_(V.s)	Magnetizacion_(V.s)	Campo_(kA/m)	Magnetizacion_(A/m)
0.000000e+00	-2.075358e-06	-3.088820e-09	-1.577573e+01	-2.133127e+02
1.000000e-08	-2.075338e-06	-3.058893e-09	-1.577558e+01	-2.135295e+02
2.000000e-08	-2.075313e-06	-3.124821e-09	-1.577539e+01	-2.137518e+02
3.000000e-08	-2.075239e-06	-3.286150e-09	-1.577483e+01	-2.139784e+02
4.000000e-08	-2.075087e-06	-3.393449e-09	-1.577368e+01	-2.142078e+02
5.000000e-08	-2.074840e-06	-3.196778e-09	-1.577180e+01	-2.144386e+02
6.000000e-08	-2.074533e-06	-3.076389e-09	-1.576946e+01	-2.146691e+02
7.000000e-08	-2.074180e-06	-3.126268e-09	-1.576678e+01	-2.148976e+02
8.000000e-08	-2.073780e-06	-3.239758e-09	-1.576374e+01	-2.151225e+02
9.000000e-08	-2.073330e-06	-3.166535e-09	-1.576032e+01	-2.153420e+02
1.000000e-07	-2.072839e-06	-3.123392e-09	-1.575659e+01	-2.155544e+02
1.100000e-07	-2.072335e-06	-3.297134e-09	-1.575275e+01	-2.157580e+02
1.200000e-07	-2.071758e-06	-3.338899e-09	-1.574837e+01	-2.159511e+02
1.300000e-07	-2.071102e-06	-3.296910e-09	-1.574338e+01	-2.161321e+02
1.400000e-07	-2.070393e-06	-3.122031e-09	-1.573800e+01	-2.162994e+02
1.500000e-07	-2.069653e-06	-3.094335e-09	-1.573237e+01	-2.164516e+02
1.600000e-07	-2.068873e-06	-3.186396e-09	-1.572644e+01	-2.165872e+02
1.700000e-07	-2.068001e-06	-3.257260e-09	-1.571981e+01	-2.167051e+02
1.800000e-07	-2.067073e-06	-3.336474e-09	-1.571276e+01	-2.168040e+02
1.900000e-07	-2.066095e-06	-3.233061e-09	-1.570532e+01	-2.168829e+02
2.000000e-07	-2.065078e-06	-3.231131e-09	-1.569759e+01	-2.169410e+02
2.100000e-07	-2.063994e-06	-3.197190e-09	-1.568935e+01	-2.169776e+02
2.200000e-07	-2.062835e-06	-3.204111e-09	-1.568054e+01	-2.169921e+02
2.300000e-07	-2.061623e-06	-3.217811e-09	-1.567133e+01	-2.169844e+02
2.400000e-07	-2.060345e-06	-3.190218e-09	-1.566161e+01	-2.169542e+02
2.500000e-07	-2.059009e-06	-3.270245e-09	-1.565146e+01	-2.169019e+02
2.600000e-07	-2.057605e-06	-3.255384e-09	-1.564079e+01	-2.168277e+02
2.700000e-07	-2.056150e-06	-3.275247e-09	-1.562973e+01	-2.167324e+02
2.800000e-07	-2.054625e-06	-3.208740e-09	-1.561813e+01	-2.166168e+02
2.900000e-07	-2.053031e-06	-3.161981e-09	-1.560602e+01	-2.164821e+02
3.000000e-07	-2.051394e-06	-3.183714e-09	-1.559357e+01	-2.163296e+02
3.100000e-07	-2.049687e-06	-3.192415e-09	-1.558060e+01	-2.161608e+02
3.200000e-07	-2.047931e-06	-3.258923e-09	-1.556725e+01	-2.159774e+02
3.300000e-07	-2.046117e-06	-3.214249e-09	-1.555346e+01	-2.157812e+02
3.400000e-07	-2.044239e-06	-3.207432e-09	-1.553919e+01	-2.155741e+02
3.500000e-07	-2.042313e-06	-3.184226e-09	-1.552455e+01	-2.153580e+02
3.600000e-07	-2.040349e-06	-3.185582e-09	-1.550962e+01	-2.151349e+02
3.700000e-07	-2.038339e-06	-3.204450e-09	-1.549434e+01	-2.149065e+02
3.800000e-07	-2.036269e-06	-3.162924e-09	-1.547860e+01	-2.146746e+02
3.900000e-07	-2.034161e-06	-3.185084e-09	-1.546258e+01	-2.144409e+02
4.000000e-07	-2.032003e-06	-3.166741e-09	-1.544617e+01	-2.142068e+02
4.100000e-07	-2.029806e-06	-3.194051e-09	-1.542948e+01	-2.139734e+02
4.200000e-07	-2.027568e-06	-3.176099e-09	-1.541246e+01	-2.137419e+02
4.300000e-07	-2.025274e-06	-3.143632e-09	-1.539502e+01	-2.135131e+02
4.400000e-07	-2.022928e-06	-3.153225e-09	-1.537719e+01	-2.132874e+02
4.500000e-07	-2.020532e-06	-3.146830e-09	-1.535898e+01	-2.130654e+02
4.600000e-07	-2.018094e-06	-3.181051e-09	-1.534044e+01	-2.128470e+02
4.700000e-07	-2.015603e-06	-3.139647e-09	-1.532151e+01	-2.126325e+02
4.800000e-07	-2.013059e-06	-3.129254e-09	-1.530217e+01	-2.124216e+02
4.900000e-07	-2.010455e-06	-3.135451e-09	-1.528238e+01	-2.122142e+02
5.000000e-07	-2.007789e-06	-3.150245e-09	-1.526211e+01	-2.120099e+02
5.100000e-07	-2.005072e-06	-3.159935e-09	-1.524146e+01	-2.118086e+02
5.200000e-07	-2.002285e-06	-3.110495e-09	-1.522027e+01	-2.116100e+02
5.300000e-07	-1.999438e-06	-3.120133e-09	-1.519863e+01	-2.114139e+02
5.400000e-07	-1.996538e-06	-3.121175e-09	-1.517659e+01	-2.112203e+02
5.500000e-07	-1.993585e-06	-3.136173e-09	-1.515414e+01	-2.110292e+02
5.600000e-07	-1.990596e-06	-3.113087e-09	-1.513142e+01	-2.108409e+02
5.700000e-07	-1.987555e-06	-3.088758e-09	-1.510830e+01	-2.106555e+02
5.800000e-07	-1.984468e-06	-3.120290e-09	-1.508484e+01	-2.104735e+02
5.900000e-07	-1.981333e-06	-3.122002e-09	-1.506101e+01	-2.102955e+02
6.000000e-07	-1.978152e-06	-3.121944e-09	-1.503683e+01	-2.101221e+02
6.100000e-07	-1.974916e-06	-3.081654e-09	-1.501223e+01	-2.099538e+02
6.200000e-07	-1.971642e-06	-3.087143e-09	-1.498734e+01	-2.097912e+02
6.300000e-07	-1.968331e-06	-3.111150e-09	-1.496218e+01	-2.096351e+02
6.400000e-07	-1.964961e-06	-3.108932e-09	-1.493656e+01	-2.094857e+02
6.500000e-07	-1.961541e-06	-3.104739e-09	-1.491056e+01	-2.093435e+02
6.600000e-07	-1.958054e-06	-3.084230e-09	-1.488406e+01	-2.092086e+02
6.700000e-07	-1.954512e-06	-3.109510e-09	-1.485713e+01	-2.090809e+02
6.800000e-07	-1.950903e-06	-3.104628e-09	-1.482970e+01	-2.089600e+02
6.900000e-07	-1.947229e-06	-3.086232e-09	-1.480177e+01	-2.088453e+02
7.000000e-07	-1.943516e-06	-3.073632e-09	-1.477354e+01	-2.087359e+02
7.100000e-07	-1.939754e-06	-3.079216e-09	-1.474495e+01	-2.086305e+02
7.200000e-07	-1.935955e-06	-3.105661e-09	-1.471607e+01	-2.085277e+02
7.300000e-07	-1.932105e-06	-3.087738e-09	-1.468680e+01	-2.084256e+02
7.400000e-07	-1.928199e-06	-3.079500e-09	-1.465711e+01	-2.083224e+02
7.500000e-07	-1.924254e-06	-3.075430e-09	-1.462712e+01	-2.082158e+02
7.600000e-07	-1.920261e-06	-3.094393e-09	-1.459677e+01	-2.081034e+02
7.700000e-07	-1.916221e-06	-3.100288e-09	-1.456606e+01	-2.079829e+02
7.800000e-07	-1.912144e-06	-3.074529e-09	-1.453507e+01	-2.078518e+02
7.900000e-07	-1.908032e-06	-3.067462e-09	-1.450382e+01	-2.077077e+02
8.000000e-07	-1.903864e-06	-3.064205e-09	-1.447213e+01	-2.075483e+02
8.100000e-07	-1.899648e-06	-3.079682e-09	-1.444008e+01	-2.073715e+02
8.200000e-07	-1.895378e-06	-3.067043e-09	-1.440763e+01	-2.071752e+02
8.300000e-07	-1.891051e-06	-3.053836e-09	-1.437473e+01	-2.069578e+02
8.400000e-07	-1.886663e-06	-3.060673e-09	-1.434138e+01	-2.067177e+02
8.500000e-07	-1.882214e-06	-3.065871e-09	-1.430756e+01	-2.064540e+02
8.600000e-07	-1.877717e-06	-3.067191e-09	-1.427338e+01	-2.061657e+02
8.700000e-07	-1.873162e-06	-3.041817e-09	-1.423875e+01	-2.058525e+02
8.800000e-07	-1.868577e-06	-3.038407e-09	-1.420390e+01	-2.055143e+02
8.900000e-07	-1.863949e-06	-3.042065e-09	-1.416872e+01	-2.051513e+02
9.000000e-07	-1.859258e-06	-3.039825e-09	-1.413306e+01	-2.047641e+02
9.100000e-07	-1.854525e-06	-3.022288e-09	-1.409708e+01	-2.043537e+02
9.200000e-07	-1.849750e-06	-3.000084e-09	-1.406079e+01	-2.039212e+02
9.300000e-07	-1.844943e-06	-3.005762e-09	-1.402425e+01	-2.034679e+02
9.400000e-07	-1.840082e-06	-3.004016e-09	-1.398729e+01	-2.029957e+02
9.500000e-07	-1.835152e-06	-3.000478e-09	-1.394982e+01	-2.025062e+02
9.600000e-07	-1.830176e-06	-2.987843e-09	-1.391200e+01	-2.020013e+02
9.700000e-07	-1.825168e-06	-2.983731e-09	-1.387393e+01	-2.014832e+02
9.800000e-07	-1.820110e-06	-2.984758e-09	-1.383548e+01	-2.009540e+02
9.900000e-07	-1.814968e-06	-2.965452e-09	-1.379639e+01	-2.004156e+02
1.000000e-06	-1.809762e-06	-2.944109e-09	-1.375682e+01	-1.998702e+02
1.010000e-06	-1.804489e-06	-2.924167e-09	-1.371673e+01	-1.993199e+02
1.020000e-06	-1.799156e-06	-2.925882e-09	-1.367620e+01	-1.987665e+02
1.030000e-06	-1.793775e-06	-2.926476e-09	-1.363529e+01	-1.982120e+02
1.040000e-06	-1.788338e-06	-2.918840e-09	-1.359397e+01	-1.976582e+02
1.050000e-06	-1.782854e-06	-2.911845e-09	-1.355228e+01	-1.971065e+02
1.060000e-06	-1.777331e-06	-2.904582e-09	-1.351029e+01	-1.965585e+02
1.070000e-06	-1.771782e-06	-2.900941e-09	-1.346812e+01	-1.960155e+02
1.080000e-06	-1.766202e-06	-2.879666e-09	-1.342570e+01	-1.954786e+02
1.090000e-06	-1.760575e-06	-2.861901e-09	-1.338292e+01	-1.949488e+02
1.100000e-06	-1.754902e-06	-2.852989e-09	-1.333980e+01	-1.944270e+02
1.110000e-06	-1.749188e-06	-2.851894e-09	-1.329637e+01	-1.939136e+02
1.120000e-06	-1.743421e-06	-2.851443e-09	-1.325253e+01	-1.934093e+02
1.130000e-06	-1.737596e-06	-2.841455e-09	-1.320826e+01	-1.929144e+02
1.140000e-06	-1.731716e-06	-2.838877e-09	-1.316356e+01	-1.924291e+02
1.150000e-06	-1.725779e-06	-2.832237e-09	-1.311843e+01	-1.919534e+02
1.160000e-06	-1.719799e-06	-2.824785e-09	-1.307297e+01	-1.914874e+02
1.170000e-06	-1.713769e-06	-2.810224e-09	-1.302713e+01	-1.910308e+02
1.180000e-06	-1.707682e-06	-2.795727e-09	-1.298086e+01	-1.905835e+02
1.190000e-06	-1.701556e-06	-2.793008e-09	-1.293430e+01	-1.901451e+02
1.200000e-06	-1.695400e-06	-2.792767e-09	-1.288750e+01	-1.897153e+02
1.210000e-06	-1.689213e-06	-2.793652e-09	-1.284047e+01	-1.892937e+02
1.220000e-06	-1.682988e-06	-2.785385e-09	-1.279315e+01	-1.888797e+02
1.230000e-06	-1.676722e-06	-2.780322e-09	-1.274552e+01	-1.884729e+02
1.240000e-06	-1.670416e-06	-2.770338e-09	-1.269758e+01	-1.880728e+02
1.250000e-06	-1.664061e-06	-2.754861e-09	-1.264928e+01	-1.876787e+02
1.260000e-06	-1.657662e-06	-2.741368e-09	-1.260064e+01	-1.872902e+02
1.270000e-06	-1.651223e-06	-2.730865e-09	-1.255169e+01	-1.869066e+02
1.280000e-06	-1.644752e-06	-2.734556e-09	-1.250250e+01	-1.865272e+02
1.290000e-06	-1.638242e-06	-2.738276e-09	-1.245302e+01	-1.861513e+02
1.300000e-06	-1.631675e-06	-2.740663e-09	-1.240310e+01	-1.857784e+02
1.310000e-06	-1.625068e-06	-2.736466e-09	-1.235287e+01	-1.854075e+02
1.320000e-06	-1.618429e-06	-2.727485e-09	-1.230241e+01	-1.850378e+02
1.330000e-06	-1.611748e-06	-2.714495e-09	-1.225162e+01	-1.846686e+02
1.340000e-06	-1.605013e-06	-2.695604e-09	-1.220043e+01	-1.842988e+02
1.350000e-06	-1.598224e-06	-2.686122e-09	-1.214883e+01	-1.839273e+02
1.360000e-06	-1.591387e-06	-2.684095e-09	-1.209685e+01	-1.835532e+02
1.370000e-06	-1.584508e-06	-2.688066e-09	-1.204456e+01	-1.831753e+02
1.380000e-06	-1.577594e-06	-2.686696e-09	-1.199201e+01	-1.827924e+02
1.390000e-06	-1.570638e-06	-2.678529e-09	-1.193913e+01	-1.824032e+02
1.400000e-06	-1.563658e-06	-2.670293e-09	-1.188607e+01	-1.820066e+02
1.410000e-06	-1.556660e-06	-2.657757e-09	-1.183288e+01	-1.816011e+02
1.420000e-06	-1.549625e-06	-2.645822e-09	-1.177940e+01	-1.811858e+02
1.430000e-06	-1.542544e-06	-2.632526e-09	-1.172558e+01	-1.807593e+02
1.440000e-06	-1.535413e-06	-2.626447e-09	-1.167137e+01	-1.803206e+02
1.450000e-06	-1.528225e-06	-2.626226e-09	-1.161673e+01	-1.798686e+02
1.460000e-06	-1.521002e-06	-2.621905e-09	-1.156182e+01	-1.794026e+02
1.470000e-06	-1.513749e-06	-2.617507e-09	-1.150669e+01	-1.789218e+02
1.480000e-06	-1.506471e-06	-2.606457e-09	-1.145137e+01	-1.784257e+02
1.490000e-06	-1.499170e-06	-2.596402e-09	-1.139587e+01	-1.779140e+02
1.500000e-06	-1.491824e-06	-2.588107e-09	-1.134003e+01	-1.773866e+02
1.510000e-06	-1.484432e-06	-2.575409e-09	-1.128384e+01	-1.768434e+02
1.520000e-06	-1.476998e-06	-2.563472e-09	-1.122733e+01	-1.762850e+02
1.530000e-06	-1.469511e-06	-2.548956e-09	-1.117042e+01	-1.757116e+02
1.540000e-06	-1.461960e-06	-2.540797e-09	-1.111302e+01	-1.751241e+02
1.550000e-06	-1.454367e-06	-2.534269e-09	-1.105530e+01	-1.745231e+02
1.560000e-06	-1.446739e-06	-2.527687e-09	-1.099732e+01	-1.739098e+02
1.570000e-06	-1.439070e-06	-2.523444e-09	-1.093903e+01	-1.732851e+02
1.580000e-06	-1.431359e-06	-2.513116e-09	-1.088041e+01	-1.726502e+02
1.590000e-06	-1.423604e-06	-2.503157e-09	-1.082145e+01	-1.720063e+02
1.600000e-06	-1.415815e-06	-2.489528e-09	-1.076225e+01	-1.713546e+02
1.610000e-06	-1.408002e-06	-2.476609e-09	-1.070286e+01	-1.706963e+02
1.620000e-06	-1.400154e-06	-2.464284e-09	-1.064320e+01	-1.700325e+02
1.630000e-06	-1.392250e-06	-2.455635e-09	-1.058312e+01	-1.693643e+02
1.640000e-06	-1.384307e-06	-2.451134e-09	-1.052274e+01	-1.686927e+02
1.650000e-06	-1.376337e-06	-2.440813e-09	-1.046216e+01	-1.680185e+02
1.660000e-06	-1.368324e-06	-2.428759e-09	-1.040125e+01	-1.673426e+02
1.670000e-06	-1.360255e-06	-2.409571e-09	-1.033992e+01	-1.666656e+02
1.680000e-06	-1.352141e-06	-2.392019e-09	-1.027824e+01	-1.659881e+02
1.690000e-06	-1.343983e-06	-2.378737e-09	-1.021622e+01	-1.653108e+02
1.700000e-06	-1.335792e-06	-2.369237e-09	-1.015396e+01	-1.646341e+02
1.710000e-06	-1.327571e-06	-2.364973e-09	-1.009146e+01	-1.639583e+02
1.720000e-06	-1.319314e-06	-2.354601e-09	-1.002870e+01	-1.632841e+02
1.730000e-06	-1.311031e-06	-2.345102e-09	-9.965736e+00	-1.626118e+02
1.740000e-06	-1.302717e-06	-2.333548e-09	-9.902542e+00	-1.619418e+02
1.750000e-06	-1.294376e-06	-2.325974e-09	-9.839135e+00	-1.612747e+02
1.760000e-06	-1.286001e-06	-2.320245e-09	-9.775472e+00	-1.606111e+02
1.770000e-06	-1.277587e-06	-2.312686e-09	-9.711520e+00	-1.599513e+02
1.780000e-06	-1.269144e-06	-2.306856e-09	-9.647339e+00	-1.592962e+02
1.790000e-06	-1.260677e-06	-2.295459e-09	-9.582979e+00	-1.586462e+02
1.800000e-06	-1.252185e-06	-2.286674e-09	-9.518421e+00	-1.580022e+02
1.810000e-06	-1.243666e-06	-2.274013e-09	-9.453671e+00	-1.573646e+02
1.820000e-06	-1.235122e-06	-2.261736e-09	-9.388718e+00	-1.567341e+02
1.830000e-06	-1.226555e-06	-2.252305e-09	-9.323597e+00	-1.561113e+02
1.840000e-06	-1.217959e-06	-2.243823e-09	-9.258254e+00	-1.554964e+02
1.850000e-06	-1.209337e-06	-2.238929e-09	-9.192716e+00	-1.548899e+02
1.860000e-06	-1.200684e-06	-2.231589e-09	-9.126940e+00	-1.542919e+02
1.870000e-06	-1.191994e-06	-2.223801e-09	-9.060884e+00	-1.537022e+02
1.880000e-06	-1.183274e-06	-2.211291e-09	-8.994598e+00	-1.531206e+02
1.890000e-06	-1.174522e-06	-2.200619e-09	-8.928072e+00	-1.525467e+02
1.900000e-06	-1.165746e-06	-2.194861e-09	-8.861366e+00	-1.519798e+02
1.910000e-06	-1.156948e-06	-2.188575e-09	-8.794482e+00	-1.514188e+02
1.920000e-06	-1.148117e-06	-2.186037e-09	-8.727355e+00	-1.508629e+02
1.930000e-06	-1.139256e-06	-2.181300e-09	-8.660001e+00	-1.503106e+02
1.940000e-06	-1.130373e-06	-2.177999e-09	-8.592474e+00	-1.497605e+02
1.950000e-06	-1.121471e-06	-2.171072e-09	-8.524809e+00	-1.492112e+02
1.960000e-06	-1.112558e-06	-2.159601e-09	-8.457059e+00	-1.486610e+02
1.970000e-06	-1.103625e-06	-2.149473e-09	-8.389151e+00	-1.481084e+02
1.980000e-06	-1.094666e-06	-2.138886e-09	-8.321053e+00	-1.475517e+02
1.990000e-06	-1.085680e-06	-2.129592e-09	-8.252747e+00	-1.469894e+02
2.000000e-06	-1.076650e-06	-2.119266e-09	-8.184102e+00	-1.464203e+02
2.010000e-06	-1.067576e-06	-2.112052e-09	-8.115132e+00	-1.458429e+02
2.020000e-06	-1.058462e-06	-2.102953e-09	-8.045851e+00	-1.452561e+02
2.030000e-06	-1.049297e-06	-2.094042e-09	-7.976180e+00	-1.446592e+02
2.040000e-06	-1.040103e-06	-2.085009e-09	-7.906292e+00	-1.440512e+02
2.050000e-06	-1.030874e-06	-2.074106e-09	-7.836142e+00	-1.434318e+02
2.060000e-06	-1.021607e-06	-2.065620e-09	-7.765694e+00	-1.428005e+02
2.070000e-06	-1.012326e-06	-2.053564e-09	-7.695150e+00	-1.421572e+02
2.080000e-06	-1.003030e-06	-2.041996e-09	-7.624484e+00	-1.415017e+02
2.090000e-06	-9.937117e-07	-2.031715e-09	-7.553652e+00	-1.408342e+02
2.100000e-06	-9.843728e-07	-2.019666e-09	-7.482663e+00	-1.401546e+02
2.110000e-06	-9.750249e-07	-2.005919e-09	-7.411605e+00	-1.394632e+02
2.120000e-06	-9.656649e-07	-1.992495e-09	-7.340455e+00	-1.387600e+02
2.130000e-06	-9.562711e-07	-1.981789e-09	-7.269049e+00	-1.380452e+02
2.140000e-06	-9.468528e-07	-1.968046e-09	-7.197457e+00	-1.373187e+02
2.150000e-06	-9.374126e-07	-1.957513e-09	-7.125697e+00	-1.365804e+02
2.160000e-06	-9.279467e-07	-1.949433e-09	-7.053742e+00	-1.358304e+02
2.170000e-06	-9.184576e-07	-1.936583e-09	-6.981612e+00	-1.350681e+02
2.180000e-06	-9.089395e-07	-1.922476e-09	-6.909260e+00	-1.342934e+02
2.190000e-06	-8.993998e-07	-1.911713e-09	-6.836745e+00	-1.335058e+02
2.200000e-06	-8.898373e-07	-1.903232e-09	-6.764056e+00	-1.327049e+02
2.210000e-06	-8.802596e-07	-1.888746e-09	-6.691252e+00	-1.318901e+02
2.220000e-06	-8.706743e-07	-1.871419e-09	-6.618389e+00	-1.310610e+02
2.230000e-06	-8.610565e-07	-1.855717e-09	-6.545280e+00	-1.302173e+02
2.240000e-06	-8.513984e-07	-1.845826e-09	-6.471864e+00	-1.293587e+02
2.250000e-06	-8.417206e-07	-1.838407e-09	-6.398299e+00	-1.284851e+02
2.260000e-06	-8.320331e-07	-1.826629e-09	-6.324660e+00	-1.275966e+02
2.270000e-06	-8.223325e-07	-1.813529e-09	-6.250921e+00	-1.266934e+02
2.280000e-06	-8.126186e-07	-1.798658e-09	-6.177082e+00	-1.257761e+02
2.290000e-06	-8.028943e-07	-1.783130e-09	-6.103163e+00	-1.248456e+02
2.300000e-06	-7.931496e-07	-1.765458e-09	-6.029089e+00	-1.239029e+02
2.310000e-06	-7.833857e-07	-1.747717e-09	-5.954869e+00	-1.229492e+02
2.320000e-06	-7.736135e-07	-1.733395e-09	-5.880586e+00	-1.219863e+02
2.330000e-06	-7.638179e-07	-1.722737e-09	-5.806126e+00	-1.210157e+02
2.340000e-06	-7.539740e-07	-1.712903e-09	-5.731297e+00	-1.200395e+02
2.350000e-06	-7.440863e-07	-1.698297e-09	-5.656137e+00	-1.190596e+02
2.360000e-06	-7.341717e-07	-1.681942e-09	-5.580771e+00	-1.180782e+02
2.370000e-06	-7.242364e-07	-1.665303e-09	-5.505248e+00	-1.170973e+02
2.380000e-06	-7.142661e-07	-1.649805e-09	-5.429460e+00	-1.161191e+02
2.390000e-06	-7.042645e-07	-1.631526e-09	-5.353433e+00	-1.151455e+02
2.400000e-06	-6.942424e-07	-1.612036e-09	-5.277250e+00	-1.141783e+02
2.410000e-06	-6.841982e-07	-1.597713e-09	-5.200900e+00	-1.132191e+02
2.420000e-06	-6.741437e-07	-1.587643e-09	-5.124471e+00	-1.122693e+02
2.430000e-06	-6.640800e-07	-1.579089e-09	-5.047972e+00	-1.113300e+02
2.440000e-06	-6.539977e-07	-1.569872e-09	-4.971332e+00	-1.104020e+02
2.450000e-06	-6.439018e-07	-1.561053e-09	-4.894589e+00	-1.094860e+02
2.460000e-06	-6.337951e-07	-1.548777e-09	-4.817763e+00	-1.085823e+02
2.470000e-06	-6.236849e-07	-1.532374e-09	-4.740911e+00	-1.076907e+02
2.480000e-06	-6.135714e-07	-1.512624e-09	-4.664034e+00	-1.068111e+02
2.490000e-06	-6.034467e-07	-1.494189e-09	-4.587071e+00	-1.059431e+02
2.500000e-06	-5.933076e-07	-1.481897e-09	-4.510000e+00	-1.050861e+02
2.510000e-06	-5.831541e-07	-1.472722e-09	-4.432818e+00	-1.042392e+02
2.520000e-06	-5.729849e-07	-1.465067e-09	-4.355517e+00	-1.034015e+02
2.530000e-06	-5.627851e-07	-1.456552e-09	-4.277984e+00	-1.025722e+02
2.540000e-06	-5.525629e-07	-1.448107e-09	-4.200280e+00	-1.017501e+02
2.550000e-06	-5.423324e-07	-1.440357e-09	-4.122514e+00	-1.009343e+02
2.560000e-06	-5.320973e-07	-1.428403e-09	-4.044712e+00	-1.001237e+02
2.570000e-06	-5.218545e-07	-1.414853e-09	-3.966852e+00	-9.931743e+01
2.580000e-06	-5.115941e-07	-1.400241e-09	-3.888858e+00	-9.851443e+01
2.590000e-06	-5.013316e-07	-1.385543e-09	-3.810848e+00	-9.771383e+01
2.600000e-06	-4.910576e-07	-1.373470e-09	-3.732751e+00	-9.691476e+01
2.610000e-06	-4.807637e-07	-1.359861e-09	-3.654502e+00	-9.611640e+01
2.620000e-06	-4.704534e-07	-1.344341e-09	-3.576129e+00	-9.531795e+01
2.630000e-06	-4.601276e-07	-1.329262e-09	-3.497638e+00	-9.451863e+01
2.640000e-06	-4.497921e-07	-1.321702e-09	-3.419074e+00	-9.371766e+01
2.650000e-06	-4.394428e-07	-1.319066e-09	-3.340403e+00	-9.291427e+01
2.660000e-06	-4.290798e-07	-1.313063e-09	-3.261629e+00	-9.210765e+01
2.670000e-06	-4.186961e-07	-1.303468e-09	-3.182698e+00	-9.129698e+01
2.680000e-06	-4.083029e-07	-1.291014e-09	-3.103695e+00	-9.048138e+01
2.690000e-06	-3.979074e-07	-1.274178e-09	-3.024674e+00	-8.965999e+01
2.700000e-06	-3.874817e-07	-1.256015e-09	-2.945424e+00	-8.883187e+01
2.710000e-06	-3.770417e-07	-1.239785e-09	-2.866064e+00	-8.799609e+01
2.720000e-06	-3.666057e-07	-1.227364e-09	-2.786736e+00	-8.715172e+01
2.730000e-06	-3.561607e-07	-1.222655e-09	-2.707339e+00	-8.629781e+01
2.740000e-06	-3.457158e-07	-1.221624e-09	-2.627942e+00	-8.543348e+01
2.750000e-06	-3.352660e-07	-1.217235e-09	-2.548509e+00	-8.455786e+01
2.760000e-06	-3.248123e-07	-1.203892e-09	-2.469045e+00	-8.367016e+01
2.770000e-06	-3.143498e-07	-1.182305e-09	-2.389515e+00	-8.276969e+01
2.780000e-06	-3.038793e-07	-1.158303e-09	-2.309924e+00	-8.185585e+01
2.790000e-06	-2.934028e-07	-1.137526e-09	-2.230287e+00	-8.092816e+01
2.800000e-06	-2.829229e-07	-1.120328e-09	-2.150625e+00	-7.998626e+01
2.810000e-06	-2.724431e-07	-1.108361e-09	-2.070963e+00	-7.902993e+01
2.820000e-06	-2.619547e-07	-1.102682e-09	-1.991236e+00	-7.805910e+01
2.830000e-06	-2.514609e-07	-1.098645e-09	-1.911468e+00	-7.707379e+01
2.840000e-06	-2.409621e-07	-1.089710e-09	-1.831662e+00	-7.607419e+01
