# Temperatura_=_20.0
# Concentracion g/m^3_=_10000.0
# C_Vs_to_Am_M_A/Vsm_=_65563218390.804596
# pendiente_HvsI_1/m_=_3716.3
# ordenada_HvsI_A/m_=_1297.0
# frecuencia_Hz_=_81138.90440060824

Tiempo_(s)	Campo_(V.s)	Magnetizacion_(V.s)	Campo_(kA/m)	Magnetizacion_(A/m)
0.000000e+00	-2.073727e-06	-4.404200e-09	-1.577762e+01	-2.926027e+02
1.000000e-08	-2.073753e-06	-4.368023e-09	-1.577781e+01	-2.927398e+02
2.000000e-08	-2.073690e-06	-4.369139e-09	-1.577733e+01	-2.928881e+02
3.000000e-08	-2.073628e-06	-4.478369e-09	-1.577686e+01	-2.930471e+02
4.000000e-08	-2.073533e-06	-4.725433e-09	-1.577614e+01	-2.932159e+02
5.000000e-08	-2.073355e-06	-4.727276e-09	-1.577478e+01	-2.933934e+02
6.000000e-08	-2.073082e-06	-4.399905e-09	-1.577271e+01	-2.935783e+02
7.000000e-08	-2.072762e-06	-4.299063e-09	-1.577027e+01	-2.937690e+02
8.000000e-08	-2.072398e-06	-4.473221e-09	-1.576751e+01	-2.939641e+02
9.000000e-08	-2.071983e-06	-4.542076e-09	-1.576434e+01	-2.941619e+02
1.000000e-07	-2.071498e-06	-4.429241e-09	-1.576066e+01	-2.943608e+02
1.100000e-07	-2.070974e-06	-4.493350e-09	-1.575667e+01	-2.945593e+02
1.200000e-07	-2.070446e-06	-4.685232e-09	-1.575266e+01	-2.947558e+02
1.300000e-07	-2.069836e-06	-4.684992e-09	-1.574801e+01	-2.949489e+02
1.400000e-07	-2.069141e-06	-4.534417e-09	-1.574272e+01	-2.951371e+02
1.500000e-07	-2.068401e-06	-4.358242e-09	-1.573709e+01	-2.953192e+02
1.600000e-07	-2.067639e-06	-4.371534e-09	-1.573130e+01	-2.954940e+02
1.700000e-07	-2.066818e-06	-4.511676e-09	-1.572505e+01	-2.956603e+02
1.800000e-07	-2.065910e-06	-4.635376e-09	-1.571814e+01	-2.958171e+02
1.900000e-07	-2.064961e-06	-4.642494e-09	-1.571092e+01	-2.959635e+02
2.000000e-07	-2.063955e-06	-4.531170e-09	-1.570327e+01	-2.960984e+02
2.100000e-07	-2.062909e-06	-4.507231e-09	-1.569531e+01	-2.962209e+02
2.200000e-07	-2.061812e-06	-4.502096e-09	-1.568696e+01	-2.963304e+02
2.300000e-07	-2.060648e-06	-4.526951e-09	-1.567811e+01	-2.964259e+02
2.400000e-07	-2.059407e-06	-4.514441e-09	-1.566866e+01	-2.965066e+02
2.500000e-07	-2.058097e-06	-4.518105e-09	-1.565870e+01	-2.965717e+02
2.600000e-07	-2.056739e-06	-4.576813e-09	-1.564836e+01	-2.966206e+02
2.700000e-07	-2.055318e-06	-4.581596e-09	-1.563755e+01	-2.966525e+02
2.800000e-07	-2.053858e-06	-4.563703e-09	-1.562645e+01	-2.966667e+02
2.900000e-07	-2.052335e-06	-4.477111e-09	-1.561486e+01	-2.966625e+02
3.000000e-07	-2.050729e-06	-4.451661e-09	-1.560264e+01	-2.966394e+02
3.100000e-07	-2.049069e-06	-4.493109e-09	-1.559001e+01	-2.965967e+02
3.200000e-07	-2.047356e-06	-4.550227e-09	-1.557697e+01	-2.965340e+02
3.300000e-07	-2.045579e-06	-4.579188e-09	-1.556346e+01	-2.964508e+02
3.400000e-07	-2.043730e-06	-4.525594e-09	-1.554939e+01	-2.963469e+02
3.500000e-07	-2.041827e-06	-4.507226e-09	-1.553491e+01	-2.962219e+02
3.600000e-07	-2.039876e-06	-4.493990e-09	-1.552006e+01	-2.960756e+02
3.700000e-07	-2.037880e-06	-4.504908e-09	-1.550488e+01	-2.959080e+02
3.800000e-07	-2.035848e-06	-4.501424e-09	-1.548942e+01	-2.957192e+02
3.900000e-07	-2.033777e-06	-4.481497e-09	-1.547366e+01	-2.955092e+02
4.000000e-07	-2.031664e-06	-4.494633e-09	-1.545758e+01	-2.952783e+02
4.100000e-07	-2.029490e-06	-4.493597e-09	-1.544105e+01	-2.950268e+02
4.200000e-07	-2.027278e-06	-4.506569e-09	-1.542422e+01	-2.947553e+02
4.300000e-07	-2.025027e-06	-4.473034e-09	-1.540709e+01	-2.944643e+02
4.400000e-07	-2.022713e-06	-4.447733e-09	-1.538949e+01	-2.941545e+02
4.500000e-07	-2.020340e-06	-4.449703e-09	-1.537143e+01	-2.938268e+02
4.600000e-07	-2.017929e-06	-4.456412e-09	-1.535309e+01	-2.934823e+02
4.700000e-07	-2.015482e-06	-4.456725e-09	-1.533446e+01	-2.931219e+02
4.800000e-07	-2.012968e-06	-4.409561e-09	-1.531534e+01	-2.927470e+02
4.900000e-07	-2.010388e-06	-4.403329e-09	-1.529571e+01	-2.923591e+02
5.000000e-07	-2.007756e-06	-4.421045e-09	-1.527568e+01	-2.919595e+02
5.100000e-07	-2.005070e-06	-4.444992e-09	-1.525525e+01	-2.915502e+02
5.200000e-07	-2.002322e-06	-4.427943e-09	-1.523434e+01	-2.911327e+02
5.300000e-07	-1.999528e-06	-4.382862e-09	-1.521309e+01	-2.907090e+02
5.400000e-07	-1.996690e-06	-4.385290e-09	-1.519149e+01	-2.902812e+02
5.500000e-07	-1.993782e-06	-4.391019e-09	-1.516937e+01	-2.898512e+02
5.600000e-07	-1.990815e-06	-4.389702e-09	-1.514679e+01	-2.894212e+02
5.700000e-07	-1.987808e-06	-4.354343e-09	-1.512392e+01	-2.889932e+02
5.800000e-07	-1.984778e-06	-4.345947e-09	-1.510086e+01	-2.885692e+02
5.900000e-07	-1.981702e-06	-4.372651e-09	-1.507745e+01	-2.881512e+02
6.000000e-07	-1.978554e-06	-4.373908e-09	-1.505351e+01	-2.877410e+02
6.100000e-07	-1.975364e-06	-4.347771e-09	-1.502923e+01	-2.873403e+02
6.200000e-07	-1.972127e-06	-4.306701e-09	-1.500461e+01	-2.869505e+02
6.300000e-07	-1.968841e-06	-4.321296e-09	-1.497961e+01	-2.865729e+02
6.400000e-07	-1.965503e-06	-4.343174e-09	-1.495421e+01	-2.862084e+02
6.500000e-07	-1.962101e-06	-4.333910e-09	-1.492832e+01	-2.858577e+02
6.600000e-07	-1.958645e-06	-4.309249e-09	-1.490203e+01	-2.855211e+02
6.700000e-07	-1.955144e-06	-4.299305e-09	-1.487540e+01	-2.851986e+02
6.800000e-07	-1.951589e-06	-4.320554e-09	-1.484835e+01	-2.848900e+02
6.900000e-07	-1.947971e-06	-4.309876e-09	-1.482082e+01	-2.845946e+02
7.000000e-07	-1.944297e-06	-4.288197e-09	-1.479286e+01	-2.843114e+02
7.100000e-07	-1.940571e-06	-4.278696e-09	-1.476452e+01	-2.840394e+02
7.200000e-07	-1.936802e-06	-4.298493e-09	-1.473584e+01	-2.837770e+02
7.300000e-07	-1.932986e-06	-4.314084e-09	-1.470681e+01	-2.835226e+02
7.400000e-07	-1.929111e-06	-4.289408e-09	-1.467733e+01	-2.832744e+02
7.500000e-07	-1.925199e-06	-4.270734e-09	-1.464756e+01	-2.830304e+02
7.600000e-07	-1.921251e-06	-4.267712e-09	-1.461753e+01	-2.827888e+02
7.700000e-07	-1.917251e-06	-4.283597e-09	-1.458709e+01	-2.825474e+02
7.800000e-07	-1.913199e-06	-4.275689e-09	-1.455626e+01	-2.823043e+02
7.900000e-07	-1.909114e-06	-4.250924e-09	-1.452518e+01	-2.820577e+02
8.000000e-07	-1.904983e-06	-4.246806e-09	-1.449376e+01	-2.818056e+02
8.100000e-07	-1.900776e-06	-4.256484e-09	-1.446175e+01	-2.815465e+02
8.200000e-07	-1.896506e-06	-4.265884e-09	-1.442925e+01	-2.812788e+02
8.300000e-07	-1.892181e-06	-4.245921e-09	-1.439636e+01	-2.810012e+02
8.400000e-07	-1.887829e-06	-4.231760e-09	-1.436324e+01	-2.807124e+02
8.500000e-07	-1.883434e-06	-4.234524e-09	-1.432980e+01	-2.804115e+02
8.600000e-07	-1.878972e-06	-4.238908e-09	-1.429585e+01	-2.800976e+02
8.700000e-07	-1.874461e-06	-4.226740e-09	-1.426153e+01	-2.797699e+02
8.800000e-07	-1.869900e-06	-4.198845e-09	-1.422683e+01	-2.794280e+02
8.900000e-07	-1.865301e-06	-4.196043e-09	-1.419184e+01	-2.790712e+02
9.000000e-07	-1.860667e-06	-4.203545e-09	-1.415658e+01	-2.786991e+02
9.100000e-07	-1.855984e-06	-4.202414e-09	-1.412095e+01	-2.783115e+02
9.200000e-07	-1.851236e-06	-4.180645e-09	-1.408483e+01	-2.779078e+02
9.300000e-07	-1.846432e-06	-4.167073e-09	-1.404828e+01	-2.774879e+02
9.400000e-07	-1.841584e-06	-4.174284e-09	-1.401139e+01	-2.770514e+02
9.500000e-07	-1.836695e-06	-4.171261e-09	-1.397419e+01	-2.765980e+02
9.600000e-07	-1.831775e-06	-4.157453e-09	-1.393676e+01	-2.761272e+02
9.700000e-07	-1.826793e-06	-4.136076e-09	-1.389886e+01	-2.756388e+02
9.800000e-07	-1.821735e-06	-4.134970e-09	-1.386037e+01	-2.751325e+02
9.900000e-07	-1.816612e-06	-4.138964e-09	-1.382140e+01	-2.746079e+02
1.000000e-06	-1.811433e-06	-4.125248e-09	-1.378200e+01	-2.740648e+02
1.010000e-06	-1.806200e-06	-4.105257e-09	-1.374218e+01	-2.735028e+02
1.020000e-06	-1.800893e-06	-4.092180e-09	-1.370180e+01	-2.729220e+02
1.030000e-06	-1.795552e-06	-4.095451e-09	-1.366117e+01	-2.723224e+02
1.040000e-06	-1.790178e-06	-4.090692e-09	-1.362028e+01	-2.717039e+02
1.050000e-06	-1.784752e-06	-4.075526e-09	-1.357899e+01	-2.710670e+02
1.060000e-06	-1.779276e-06	-4.059227e-09	-1.353733e+01	-2.704121e+02
1.070000e-06	-1.773743e-06	-4.051089e-09	-1.349523e+01	-2.697399e+02
1.080000e-06	-1.768179e-06	-4.045523e-09	-1.345291e+01	-2.690513e+02
1.090000e-06	-1.762583e-06	-4.026636e-09	-1.341032e+01	-2.683473e+02
1.100000e-06	-1.756945e-06	-4.009203e-09	-1.336743e+01	-2.676292e+02
1.110000e-06	-1.751264e-06	-3.997837e-09	-1.332421e+01	-2.668984e+02
1.120000e-06	-1.745540e-06	-3.993575e-09	-1.328066e+01	-2.661567e+02
1.130000e-06	-1.739770e-06	-3.981855e-09	-1.323676e+01	-2.654057e+02
1.140000e-06	-1.733949e-06	-3.963960e-09	-1.319247e+01	-2.646475e+02
1.150000e-06	-1.728073e-06	-3.954626e-09	-1.314777e+01	-2.638839e+02
1.160000e-06	-1.722136e-06	-3.946665e-09	-1.310259e+01	-2.631172e+02
1.170000e-06	-1.716146e-06	-3.935714e-09	-1.305702e+01	-2.623492e+02
1.180000e-06	-1.710104e-06	-3.914707e-09	-1.301105e+01	-2.615822e+02
1.190000e-06	-1.704018e-06	-3.897974e-09	-1.296475e+01	-2.608182e+02
1.200000e-06	-1.697883e-06	-3.893615e-09	-1.291807e+01	-2.600589e+02
1.210000e-06	-1.691705e-06	-3.891622e-09	-1.287106e+01	-2.593064e+02
1.220000e-06	-1.685515e-06	-3.880611e-09	-1.282397e+01	-2.585621e+02
1.230000e-06	-1.679290e-06	-3.861777e-09	-1.277660e+01	-2.578277e+02
1.240000e-06	-1.673010e-06	-3.850100e-09	-1.272882e+01	-2.571044e+02
1.250000e-06	-1.666689e-06	-3.840239e-09	-1.268073e+01	-2.563932e+02
1.260000e-06	-1.660324e-06	-3.827280e-09	-1.263230e+01	-2.556952e+02
1.270000e-06	-1.653918e-06	-3.811491e-09	-1.258356e+01	-2.550108e+02
1.280000e-06	-1.647476e-06	-3.800472e-09	-1.253455e+01	-2.543406e+02
1.290000e-06	-1.640998e-06	-3.798344e-09	-1.248526e+01	-2.536846e+02
1.300000e-06	-1.634477e-06	-3.791091e-09	-1.243566e+01	-2.530429e+02
1.310000e-06	-1.627919e-06	-3.778050e-09	-1.238576e+01	-2.524152e+02
1.320000e-06	-1.621316e-06	-3.766113e-09	-1.233552e+01	-2.518010e+02
1.330000e-06	-1.614657e-06	-3.762025e-09	-1.228485e+01	-2.511996e+02
1.340000e-06	-1.607946e-06	-3.758213e-09	-1.223379e+01	-2.506103e+02
1.350000e-06	-1.601189e-06	-3.747298e-09	-1.218239e+01	-2.500321e+02
1.360000e-06	-1.594398e-06	-3.736482e-09	-1.213072e+01	-2.494638e+02
1.370000e-06	-1.587560e-06	-3.729352e-09	-1.207869e+01	-2.489042e+02
1.380000e-06	-1.580675e-06	-3.722026e-09	-1.202631e+01	-2.483519e+02
1.390000e-06	-1.573750e-06	-3.705816e-09	-1.197362e+01	-2.478056e+02
1.400000e-06	-1.566797e-06	-3.688510e-09	-1.192072e+01	-2.472637e+02
1.410000e-06	-1.559819e-06	-3.681188e-09	-1.186763e+01	-2.467249e+02
1.420000e-06	-1.552807e-06	-3.684277e-09	-1.181428e+01	-2.461875e+02
1.430000e-06	-1.545755e-06	-3.686956e-09	-1.176063e+01	-2.456502e+02
1.440000e-06	-1.538653e-06	-3.679081e-09	-1.170659e+01	-2.451114e+02
1.450000e-06	-1.531511e-06	-3.666008e-09	-1.165225e+01	-2.445698e+02
1.460000e-06	-1.524327e-06	-3.655627e-09	-1.159759e+01	-2.440240e+02
1.470000e-06	-1.517104e-06	-3.644582e-09	-1.154264e+01	-2.434727e+02
1.480000e-06	-1.509856e-06	-3.625989e-09	-1.148749e+01	-2.429147e+02
1.490000e-06	-1.502570e-06	-3.609113e-09	-1.143206e+01	-2.423491e+02
1.500000e-06	-1.495243e-06	-3.606471e-09	-1.137631e+01	-2.417747e+02
1.510000e-06	-1.487881e-06	-3.606445e-09	-1.132030e+01	-2.411907e+02
1.520000e-06	-1.480482e-06	-3.595797e-09	-1.126400e+01	-2.405963e+02
1.530000e-06	-1.473027e-06	-3.579771e-09	-1.120729e+01	-2.399908e+02
1.540000e-06	-1.465522e-06	-3.568420e-09	-1.115019e+01	-2.393736e+02
1.550000e-06	-1.457985e-06	-3.564925e-09	-1.109285e+01	-2.387441e+02
1.560000e-06	-1.450401e-06	-3.556986e-09	-1.103514e+01	-2.381019e+02
1.570000e-06	-1.442758e-06	-3.540543e-09	-1.097699e+01	-2.374465e+02
1.580000e-06	-1.435076e-06	-3.525358e-09	-1.091854e+01	-2.367776e+02
1.590000e-06	-1.427360e-06	-3.514910e-09	-1.085983e+01	-2.360947e+02
1.600000e-06	-1.419612e-06	-3.506800e-09	-1.080089e+01	-2.353976e+02
1.610000e-06	-1.411821e-06	-3.493487e-09	-1.074161e+01	-2.346859e+02
1.620000e-06	-1.404000e-06	-3.479157e-09	-1.068210e+01	-2.339593e+02
1.630000e-06	-1.396146e-06	-3.472502e-09	-1.062235e+01	-2.332174e+02
1.640000e-06	-1.388241e-06	-3.468996e-09	-1.056220e+01	-2.324599e+02
1.650000e-06	-1.380296e-06	-3.456042e-09	-1.050176e+01	-2.316865e+02
1.660000e-06	-1.372303e-06	-3.433921e-09	-1.044095e+01	-2.308969e+02
1.670000e-06	-1.364259e-06	-3.414565e-09	-1.037974e+01	-2.300910e+02
1.680000e-06	-1.356179e-06	-3.399261e-09	-1.031827e+01	-2.292684e+02
1.690000e-06	-1.348059e-06	-3.386950e-09	-1.025648e+01	-2.284291e+02
1.700000e-06	-1.339887e-06	-3.373186e-09	-1.019431e+01	-2.275730e+02
1.710000e-06	-1.331679e-06	-3.360102e-09	-1.013186e+01	-2.267003e+02
1.720000e-06	-1.323445e-06	-3.348802e-09	-1.006921e+01	-2.258111e+02
1.730000e-06	-1.315189e-06	-3.334134e-09	-1.000640e+01	-2.249059e+02
1.740000e-06	-1.306909e-06	-3.319768e-09	-9.943402e+00	-2.239850e+02
1.750000e-06	-1.298593e-06	-3.304231e-09	-9.880131e+00	-2.230493e+02
1.760000e-06	-1.290248e-06	-3.293130e-09	-9.816645e+00	-2.220995e+02
1.770000e-06	-1.281870e-06	-3.283464e-09	-9.752902e+00	-2.211367e+02
1.780000e-06	-1.273454e-06	-3.266625e-09	-9.688870e+00	-2.201620e+02
1.790000e-06	-1.265013e-06	-3.246920e-09	-9.624643e+00	-2.191769e+02
1.800000e-06	-1.256541e-06	-3.229561e-09	-9.560190e+00	-2.181826e+02
1.810000e-06	-1.248042e-06	-3.218067e-09	-9.495525e+00	-2.171808e+02
1.820000e-06	-1.239518e-06	-3.205009e-09	-9.430669e+00	-2.161731e+02
1.830000e-06	-1.230972e-06	-3.189029e-09	-9.365652e+00	-2.151611e+02
1.840000e-06	-1.222410e-06	-3.173609e-09	-9.300510e+00	-2.141464e+02
1.850000e-06	-1.213814e-06	-3.160916e-09	-9.235103e+00	-2.131307e+02
1.860000e-06	-1.205189e-06	-3.147336e-09	-9.169488e+00	-2.121155e+02
1.870000e-06	-1.196537e-06	-3.131179e-09	-9.103660e+00	-2.111022e+02
1.880000e-06	-1.187844e-06	-3.115421e-09	-9.037519e+00	-2.100922e+02
1.890000e-06	-1.179127e-06	-3.099225e-09	-8.971194e+00	-2.090867e+02
1.900000e-06	-1.170381e-06	-3.085272e-09	-8.904651e+00	-2.080865e+02
1.910000e-06	-1.161609e-06	-3.072725e-09	-8.837910e+00	-2.070926e+02
1.920000e-06	-1.152806e-06	-3.058503e-09	-8.770935e+00	-2.061056e+02
1.930000e-06	-1.143967e-06	-3.045348e-09	-8.703686e+00	-2.051259e+02
1.940000e-06	-1.135114e-06	-3.032880e-09	-8.636328e+00	-2.041537e+02
1.950000e-06	-1.126248e-06	-3.022239e-09	-8.568876e+00	-2.031893e+02
1.960000e-06	-1.117367e-06	-3.008431e-09	-8.501303e+00	-2.022325e+02
1.970000e-06	-1.108454e-06	-2.992804e-09	-8.433495e+00	-2.012832e+02
1.980000e-06	-1.099510e-06	-2.978799e-09	-8.365442e+00	-2.003409e+02
1.990000e-06	-1.090533e-06	-2.964605e-09	-8.297144e+00	-1.994055e+02
2.000000e-06	-1.081527e-06	-2.948495e-09	-8.228619e+00	-1.984762e+02
2.010000e-06	-1.072486e-06	-2.930266e-09	-8.159834e+00	-1.975527e+02
2.020000e-06	-1.063398e-06	-2.915029e-09	-8.090690e+00	-1.966344e+02
2.030000e-06	-1.054274e-06	-2.902211e-09	-8.021270e+00	-1.957205e+02
2.040000e-06	-1.045125e-06	-2.894909e-09	-7.951661e+00	-1.948105e+02
2.050000e-06	-1.035939e-06	-2.886506e-09	-7.881773e+00	-1.939037e+02
2.060000e-06	-1.026715e-06	-2.875145e-09	-7.811591e+00	-1.929994e+02
2.070000e-06	-1.017461e-06	-2.861335e-09	-7.741189e+00	-1.920968e+02
2.080000e-06	-1.008179e-06	-2.842372e-09	-7.670565e+00	-1.911953e+02
2.090000e-06	-9.988695e-07	-2.823990e-09	-7.599736e+00	-1.902939e+02
2.100000e-06	-9.895400e-07	-2.801070e-09	-7.528754e+00	-1.893918e+02
2.110000e-06	-9.802049e-07	-2.779775e-09	-7.457730e+00	-1.884880e+02
2.120000e-06	-9.708575e-07	-2.767526e-09	-7.386611e+00	-1.875816e+02
2.130000e-06	-9.614766e-07	-2.761784e-09	-7.315238e+00	-1.866715e+02
2.140000e-06	-9.520660e-07	-2.760285e-09	-7.243640e+00	-1.857564e+02
2.150000e-06	-9.426324e-07	-2.751579e-09	-7.171866e+00	-1.848352e+02
2.160000e-06	-9.331806e-07	-2.736895e-09	-7.099953e+00	-1.839065e+02
2.170000e-06	-9.237039e-07	-2.718658e-09	-7.027851e+00	-1.829689e+02
2.180000e-06	-9.142072e-07	-2.696652e-09	-6.955597e+00	-1.820212e+02
2.190000e-06	-9.046943e-07	-2.673600e-09	-6.883220e+00	-1.810617e+02
2.200000e-06	-8.951544e-07	-2.653509e-09	-6.810637e+00	-1.800893e+02
2.210000e-06	-8.855930e-07	-2.641077e-09	-6.737891e+00	-1.791024e+02
2.220000e-06	-8.760070e-07	-2.633079e-09	-6.664957e+00	-1.780999e+02
2.230000e-06	-8.664004e-07	-2.623687e-09	-6.591867e+00	-1.770806e+02
2.240000e-06	-8.567748e-07	-2.611857e-09	-6.518632e+00	-1.760434e+02
2.250000e-06	-8.471356e-07	-2.600939e-09	-6.445294e+00	-1.749874e+02
2.260000e-06	-8.374801e-07	-2.586456e-09	-6.371832e+00	-1.739120e+02
2.270000e-06	-8.278017e-07	-2.565279e-09	-6.298195e+00	-1.728167e+02
2.280000e-06	-8.181133e-07	-2.540519e-09	-6.224482e+00	-1.717012e+02
2.290000e-06	-8.084061e-07	-2.516203e-09	-6.150626e+00	-1.705654e+02
2.300000e-06	-7.986732e-07	-2.499000e-09	-6.076575e+00	-1.694095e+02
2.310000e-06	-7.889298e-07	-2.484810e-09	-6.002445e+00	-1.682339e+02
2.320000e-06	-7.791696e-07	-2.470279e-09	-5.928185e+00	-1.670392e+02
2.330000e-06	-7.693851e-07	-2.456902e-09	-5.853741e+00	-1.658261e+02
2.340000e-06	-7.595721e-07	-2.443886e-09	-5.779081e+00	-1.645956e+02
2.350000e-06	-7.497179e-07	-2.426735e-09	-5.704107e+00	-1.633487e+02
2.360000e-06	-7.398426e-07	-2.402987e-09	-5.628972e+00	-1.620866e+02
2.370000e-06	-7.299398e-07	-2.376472e-09	-5.553628e+00	-1.608108e+02
2.380000e-06	-7.199973e-07	-2.351776e-09	-5.477982e+00	-1.595225e+02
2.390000e-06	-7.100313e-07	-2.331981e-09	-5.402158e+00	-1.582231e+02
2.400000e-06	-7.000363e-07	-2.314210e-09	-5.326113e+00	-1.569142e+02
2.410000e-06	-6.900154e-07	-2.296091e-09	-5.249870e+00	-1.555972e+02
2.420000e-06	-6.799853e-07	-2.275753e-09	-5.173558e+00	-1.542736e+02
2.430000e-06	-6.699441e-07	-2.255834e-09	-5.097161e+00	-1.529449e+02
2.440000e-06	-6.598811e-07	-2.235861e-09	-5.020598e+00	-1.516125e+02
2.450000e-06	-6.498041e-07	-2.215549e-09	-4.943929e+00	-1.502778e+02
2.460000e-06	-6.397199e-07	-2.197850e-09	-4.867205e+00	-1.489424e+02
2.470000e-06	-6.296250e-07	-2.177683e-09	-4.790400e+00	-1.476076e+02
2.480000e-06	-6.195221e-07	-2.155607e-09	-4.713533e+00	-1.462748e+02
2.490000e-06	-6.094113e-07	-2.131915e-09	-4.636607e+00	-1.449453e+02
2.500000e-06	-5.992877e-07	-2.108123e-09	-4.559583e+00	-1.436205e+02
2.510000e-06	-5.891489e-07	-2.088952e-09	-4.482444e+00	-1.423016e+02
2.520000e-06	-5.790023e-07	-2.074475e-09	-4.405245e+00	-1.409897e+02
2.530000e-06	-5.688433e-07	-2.063234e-09	-4.327952e+00	-1.396862e+02
2.540000e-06	-5.586571e-07	-2.049785e-09	-4.250452e+00	-1.383920e+02
2.550000e-06	-5.484593e-07	-2.035172e-09	-4.172863e+00	-1.371081e+02
2.560000e-06	-5.382558e-07	-2.018339e-09	-4.095232e+00	-1.358353e+02
2.570000e-06	-5.280305e-07	-1.995123e-09	-4.017434e+00	-1.345743e+02
2.580000e-06	-5.177862e-07	-1.967949e-09	-3.939492e+00	-1.333257e+02
2.590000e-06	-5.075347e-07	-1.943441e-09	-3.861495e+00	-1.320897e+02
2.600000e-06	-4.972705e-07	-1.926369e-09	-3.783402e+00	-1.308665e+02
2.610000e-06	-4.869848e-07	-1.914125e-09	-3.705145e+00	-1.296561e+02
2.620000e-06	-4.766876e-07	-1.902299e-09	-3.626800e+00	-1.284580e+02
2.630000e-06	-4.663854e-07	-1.887503e-09	-3.548418e+00	-1.272718e+02
2.640000e-06	-4.560680e-07	-1.873121e-09	-3.469919e+00	-1.260966e+02
2.650000e-06	-4.457274e-07	-1.861801e-09	-3.391245e+00	-1.249316e+02
2.660000e-06	-4.353797e-07	-1.847590e-09	-3.312515e+00	-1.237756e+02
2.670000e-06	-4.250303e-07	-1.826161e-09	-3.233774e+00	-1.226274e+02
2.680000e-06	-4.146618e-07	-1.803341e-09	-3.154887e+00	-1.214854e+02
2.690000e-06	-4.042706e-07	-1.784864e-09	-3.075827e+00	-1.203482e+02
2.700000e-06	-3.938718e-07	-1.772473e-09	-2.996709e+00	-1.192142e+02
2.710000e-06	-3.834702e-07	-1.762172e-09	-2.917571e+00	-1.180819e+02
2.720000e-06	-3.730512e-07	-1.748677e-09	-2.838300e+00	-1.169497e+02
2.730000e-06	-3.626157e-07	-1.734389e-09	-2.758903e+00	-1.158162e+02
2.740000e-06	-3.521701e-07	-1.723113e-09	-2.679429e+00	-1.146800e+02
2.750000e-06	-3.417278e-07	-1.709620e-09	-2.599980e+00	-1.135398e+02
2.760000e-06	-3.312904e-07	-1.689029e-09	-2.520569e+00	-1.123945e+02
2.770000e-06	-3.208446e-07	-1.665791e-09	-2.441094e+00	-1.112431e+02
2.780000e-06	-3.103951e-07	-1.645683e-09	-2.361591e+00	-1.100847e+02
2.790000e-06	-2.999314e-07	-1.627253e-09	-2.281980e+00	-1.089186e+02
2.800000e-06	-2.894519e-07	-1.608258e-09	-2.202247e+00	-1.077441e+02
2.810000e-06	-2.789720e-07	-1.590335e-09	-2.122513e+00	-1.065606e+02
2.820000e-06	-2.684935e-07	-1.574301e-09	-2.042789e+00	-1.053677e+02
2.830000e-06	-2.580127e-07	-1.561083e-09	-1.963047e+00	-1.041649e+02
2.840000e-06	-2.475234e-07	-1.547391e-09	-1.883242e+00	-1.029515e+02
