# Temperatura_=_20.0
# Concentracion g/m^3_=_10000.0
# C_Vs_to_Am_M_A/Vsm_=_65563218390.804596
# pendiente_HvsI_1/m_=_3716.3
# ordenada_HvsI_A/m_=_1297.0
# frecuencia_Hz_=_135354.93297911013

Tiempo_(s)	Campo_(V.s)	Magnetizacion_(V.s)	Campo_(kA/m)	Magnetizacion_(A/m)
0.000000e+00	-5.276451e-06	-9.629673e-09	-3.844067e+01	-6.290111e+02
1.000000e-08	-5.276458e-06	-9.631731e-09	-3.844072e+01	-6.290056e+02
2.000000e-08	-5.276118e-06	-9.631985e-09	-3.843824e+01	-6.290037e+02
3.000000e-08	-5.275288e-06	-9.629830e-09	-3.843220e+01	-6.290036e+02
4.000000e-08	-5.274022e-06	-9.626435e-09	-3.842297e+01	-6.290004e+02
5.000000e-08	-5.272417e-06	-9.624742e-09	-3.841128e+01	-6.289866e+02
6.000000e-08	-5.270519e-06	-9.624641e-09	-3.839745e+01	-6.289531e+02
7.000000e-08	-5.268307e-06	-9.623365e-09	-3.838134e+01	-6.288903e+02
8.000000e-08	-5.265678e-06	-9.607790e-09	-3.836218e+01	-6.287899e+02
9.000000e-08	-5.262463e-06	-9.625102e-09	-3.833877e+01	-6.286461e+02
1.000000e-07	-5.258419e-06	-9.653158e-09	-3.830930e+01	-6.284567e+02
1.100000e-07	-5.253684e-06	-9.610647e-09	-3.827480e+01	-6.282239e+02
1.200000e-07	-5.248932e-06	-9.570352e-09	-3.824019e+01	-6.279542e+02
1.300000e-07	-5.244234e-06	-9.603899e-09	-3.820596e+01	-6.276580e+02
1.400000e-07	-5.238993e-06	-9.659354e-09	-3.816778e+01	-6.273486e+02
1.500000e-07	-5.233067e-06	-9.575611e-09	-3.812460e+01	-6.270404e+02
1.600000e-07	-5.226973e-06	-9.522660e-09	-3.808021e+01	-6.267470e+02
1.700000e-07	-5.220688e-06	-9.625597e-09	-3.803441e+01	-6.264799e+02
1.800000e-07	-5.213741e-06	-9.609164e-09	-3.798381e+01	-6.262460e+02
1.900000e-07	-5.206386e-06	-9.560784e-09	-3.793022e+01	-6.260476e+02
2.000000e-07	-5.198929e-06	-9.550713e-09	-3.787590e+01	-6.258806e+02
2.100000e-07	-5.191079e-06	-9.624474e-09	-3.781870e+01	-6.257361e+02
2.200000e-07	-5.182714e-06	-9.556239e-09	-3.775776e+01	-6.256001e+02
2.300000e-07	-5.174200e-06	-9.564985e-09	-3.769574e+01	-6.254558e+02
2.400000e-07	-5.165452e-06	-9.611592e-09	-3.763201e+01	-6.252852e+02
2.500000e-07	-5.156140e-06	-9.581229e-09	-3.756416e+01	-6.250711e+02
2.600000e-07	-5.146385e-06	-9.527337e-09	-3.749309e+01	-6.247991e+02
2.700000e-07	-5.136371e-06	-9.576978e-09	-3.742014e+01	-6.244591e+02
2.800000e-07	-5.125862e-06	-9.595833e-09	-3.734358e+01	-6.240463e+02
2.900000e-07	-5.114895e-06	-9.503471e-09	-3.726368e+01	-6.235613e+02
3.000000e-07	-5.103701e-06	-9.511739e-09	-3.718213e+01	-6.230099e+02
3.100000e-07	-5.092226e-06	-9.551653e-09	-3.709853e+01	-6.224021e+02
3.200000e-07	-5.080370e-06	-9.516591e-09	-3.701216e+01	-6.217501e+02
3.300000e-07	-5.068219e-06	-9.473634e-09	-3.692363e+01	-6.210670e+02
3.400000e-07	-5.055737e-06	-9.520985e-09	-3.683269e+01	-6.203651e+02
3.500000e-07	-5.042905e-06	-9.465444e-09	-3.673921e+01	-6.196541e+02
3.600000e-07	-5.029810e-06	-9.467082e-09	-3.664381e+01	-6.189400e+02
3.700000e-07	-5.016244e-06	-9.479951e-09	-3.654497e+01	-6.182250e+02
3.800000e-07	-5.002138e-06	-9.461535e-09	-3.644221e+01	-6.175075e+02
3.900000e-07	-4.987667e-06	-9.411188e-09	-3.633678e+01	-6.167825e+02
4.000000e-07	-4.972880e-06	-9.446622e-09	-3.622905e+01	-6.160429e+02
4.100000e-07	-4.957657e-06	-9.416948e-09	-3.611815e+01	-6.152810e+02
4.200000e-07	-4.942122e-06	-9.386187e-09	-3.600497e+01	-6.144894e+02
4.300000e-07	-4.926337e-06	-9.374645e-09	-3.588997e+01	-6.136625e+02
4.400000e-07	-4.910223e-06	-9.358026e-09	-3.577258e+01	-6.127973e+02
4.500000e-07	-4.893765e-06	-9.344170e-09	-3.565268e+01	-6.118935e+02
4.600000e-07	-4.876940e-06	-9.346140e-09	-3.553010e+01	-6.109537e+02
4.700000e-07	-4.859658e-06	-9.315725e-09	-3.540419e+01	-6.099826e+02
4.800000e-07	-4.842003e-06	-9.294896e-09	-3.527558e+01	-6.089862e+02
4.900000e-07	-4.824015e-06	-9.306107e-09	-3.514453e+01	-6.079707e+02
5.000000e-07	-4.805638e-06	-9.275121e-09	-3.501064e+01	-6.069418e+02
5.100000e-07	-4.786896e-06	-9.253377e-09	-3.487410e+01	-6.059033e+02
5.200000e-07	-4.767849e-06	-9.240315e-09	-3.473534e+01	-6.048571e+02
5.300000e-07	-4.748470e-06	-9.220227e-09	-3.459416e+01	-6.038026e+02
5.400000e-07	-4.728592e-06	-9.202632e-09	-3.444934e+01	-6.027375e+02
5.500000e-07	-4.708155e-06	-9.206336e-09	-3.430045e+01	-6.016577e+02
5.600000e-07	-4.687294e-06	-9.173890e-09	-3.414846e+01	-6.005586e+02
5.700000e-07	-4.666129e-06	-9.157831e-09	-3.399427e+01	-5.994358e+02
5.800000e-07	-4.644672e-06	-9.149255e-09	-3.383795e+01	-5.982856e+02
5.900000e-07	-4.622905e-06	-9.126327e-09	-3.367937e+01	-5.971062e+02
6.000000e-07	-4.600838e-06	-9.091242e-09	-3.351861e+01	-5.958973e+02
6.100000e-07	-4.578499e-06	-9.074443e-09	-3.335586e+01	-5.946604e+02
6.200000e-07	-4.555845e-06	-9.054964e-09	-3.319082e+01	-5.933984e+02
6.300000e-07	-4.532787e-06	-9.042349e-09	-3.302283e+01	-5.921149e+02
6.400000e-07	-4.509279e-06	-9.022880e-09	-3.285157e+01	-5.908133e+02
6.500000e-07	-4.485429e-06	-9.000759e-09	-3.267781e+01	-5.894965e+02
6.600000e-07	-4.461296e-06	-8.985067e-09	-3.250200e+01	-5.881659e+02
6.700000e-07	-4.436841e-06	-8.970770e-09	-3.232384e+01	-5.868210e+02
6.800000e-07	-4.412070e-06	-8.946855e-09	-3.214337e+01	-5.854597e+02
6.900000e-07	-4.386995e-06	-8.920579e-09	-3.196069e+01	-5.840783e+02
7.000000e-07	-4.361644e-06	-8.898101e-09	-3.177600e+01	-5.826721e+02
7.100000e-07	-4.336073e-06	-8.875877e-09	-3.158971e+01	-5.812360e+02
7.200000e-07	-4.310225e-06	-8.853518e-09	-3.140140e+01	-5.797658e+02
7.300000e-07	-4.283987e-06	-8.824072e-09	-3.121025e+01	-5.782580e+02
7.400000e-07	-4.257322e-06	-8.796329e-09	-3.101598e+01	-5.767112e+02
7.500000e-07	-4.230334e-06	-8.772068e-09	-3.081937e+01	-5.751258e+02
7.600000e-07	-4.203135e-06	-8.751383e-09	-3.062121e+01	-5.735043e+02
7.700000e-07	-4.175690e-06	-8.724276e-09	-3.042127e+01	-5.718505e+02
7.800000e-07	-4.147934e-06	-8.699894e-09	-3.021906e+01	-5.701694e+02
7.900000e-07	-4.119845e-06	-8.675592e-09	-3.001441e+01	-5.684659e+02
8.000000e-07	-4.091457e-06	-8.648739e-09	-2.980760e+01	-5.667444e+02
8.100000e-07	-4.062851e-06	-8.614002e-09	-2.959920e+01	-5.650081e+02
8.200000e-07	-4.034004e-06	-8.581750e-09	-2.938904e+01	-5.632582e+02
8.300000e-07	-4.004799e-06	-8.553227e-09	-2.917627e+01	-5.614941e+02
8.400000e-07	-3.975223e-06	-8.530365e-09	-2.896080e+01	-5.597136e+02
8.500000e-07	-3.945326e-06	-8.504227e-09	-2.874299e+01	-5.579127e+02
8.600000e-07	-3.915111e-06	-8.474360e-09	-2.852286e+01	-5.560868e+02
8.700000e-07	-3.884578e-06	-8.443247e-09	-2.830042e+01	-5.542314e+02
8.800000e-07	-3.853762e-06	-8.412815e-09	-2.807591e+01	-5.523424e+02
8.900000e-07	-3.822649e-06	-8.379568e-09	-2.784925e+01	-5.504171e+02
9.000000e-07	-3.791196e-06	-8.344081e-09	-2.762010e+01	-5.484543e+02
9.100000e-07	-3.759341e-06	-8.308714e-09	-2.738803e+01	-5.464546e+02
9.200000e-07	-3.727136e-06	-8.276185e-09	-2.715340e+01	-5.444201e+02
9.300000e-07	-3.694728e-06	-8.245969e-09	-2.691730e+01	-5.423539e+02
9.400000e-07	-3.662117e-06	-8.214995e-09	-2.667972e+01	-5.402597e+02
9.500000e-07	-3.629234e-06	-8.185006e-09	-2.644016e+01	-5.381409e+02
9.600000e-07	-3.596102e-06	-8.153993e-09	-2.619878e+01	-5.360000e+02
9.700000e-07	-3.562746e-06	-8.122313e-09	-2.595577e+01	-5.338382e+02
9.800000e-07	-3.529180e-06	-8.088598e-09	-2.571123e+01	-5.316551e+02
9.900000e-07	-3.495478e-06	-8.054071e-09	-2.546570e+01	-5.294486e+02
1.000000e-06	-3.461601e-06	-8.017703e-09	-2.521889e+01	-5.272150e+02
1.010000e-06	-3.427473e-06	-7.980810e-09	-2.497026e+01	-5.249497e+02
1.020000e-06	-3.393118e-06	-7.940540e-09	-2.471998e+01	-5.226476e+02
1.030000e-06	-3.358512e-06	-7.898902e-09	-2.446786e+01	-5.203037e+02
1.040000e-06	-3.323646e-06	-7.859076e-09	-2.421384e+01	-5.179139e+02
1.050000e-06	-3.288598e-06	-7.822107e-09	-2.395851e+01	-5.154751e+02
1.060000e-06	-3.253359e-06	-7.786158e-09	-2.370179e+01	-5.129854e+02
1.070000e-06	-3.217884e-06	-7.750381e-09	-2.344333e+01	-5.104447e+02
1.080000e-06	-3.182124e-06	-7.713292e-09	-2.318282e+01	-5.078538e+02
1.090000e-06	-3.146034e-06	-7.673224e-09	-2.291989e+01	-5.052145e+02
1.100000e-06	-3.109654e-06	-7.628624e-09	-2.265485e+01	-5.025292e+02
1.110000e-06	-3.073066e-06	-7.580439e-09	-2.238829e+01	-4.998000e+02
1.120000e-06	-3.036322e-06	-7.532402e-09	-2.212060e+01	-4.970291e+02
1.130000e-06	-2.999403e-06	-7.486724e-09	-2.185163e+01	-4.942176e+02
1.140000e-06	-2.962303e-06	-7.445512e-09	-2.158135e+01	-4.913665e+02
1.150000e-06	-2.925037e-06	-7.408290e-09	-2.130985e+01	-4.884757e+02
1.160000e-06	-2.887549e-06	-7.369912e-09	-2.103674e+01	-4.855449e+02
1.170000e-06	-2.849808e-06	-7.329375e-09	-2.076178e+01	-4.825737e+02
1.180000e-06	-2.811850e-06	-7.282896e-09	-2.048525e+01	-4.795617e+02
1.190000e-06	-2.773721e-06	-7.229128e-09	-2.020747e+01	-4.765090e+02
1.200000e-06	-2.735408e-06	-7.171991e-09	-1.992834e+01	-4.734162e+02
1.210000e-06	-2.696894e-06	-7.116344e-09	-1.964776e+01	-4.702842e+02
1.220000e-06	-2.658183e-06	-7.064262e-09	-1.936573e+01	-4.671146e+02
1.230000e-06	-2.619259e-06	-7.016313e-09	-1.908216e+01	-4.639089e+02
1.240000e-06	-2.580082e-06	-6.972227e-09	-1.879674e+01	-4.606684e+02
1.250000e-06	-2.540660e-06	-6.927479e-09	-1.850954e+01	-4.573939e+02
1.260000e-06	-2.501044e-06	-6.880809e-09	-1.822093e+01	-4.540854e+02
1.270000e-06	-2.461249e-06	-6.828868e-09	-1.793100e+01	-4.507419e+02
1.280000e-06	-2.421295e-06	-6.774652e-09	-1.763993e+01	-4.473617e+02
1.290000e-06	-2.381220e-06	-6.721417e-09	-1.734797e+01	-4.439419e+02
1.300000e-06	-2.341004e-06	-6.667164e-09	-1.705498e+01	-4.404796e+02
1.310000e-06	-2.300627e-06	-6.611298e-09	-1.676082e+01	-4.369714e+02
1.320000e-06	-2.260050e-06	-6.554417e-09	-1.646520e+01	-4.334145e+02
1.330000e-06	-2.219254e-06	-6.500535e-09	-1.616799e+01	-4.298068e+02
1.340000e-06	-2.178329e-06	-6.446103e-09	-1.586984e+01	-4.261473e+02
1.350000e-06	-2.137289e-06	-6.387174e-09	-1.557085e+01	-4.224360e+02
1.360000e-06	-2.096075e-06	-6.325681e-09	-1.527059e+01	-4.186743e+02
1.370000e-06	-2.054726e-06	-6.265911e-09	-1.496935e+01	-4.148641e+02
1.380000e-06	-2.013261e-06	-6.209198e-09	-1.466726e+01	-4.110081e+02
1.390000e-06	-1.971669e-06	-6.150382e-09	-1.436426e+01	-4.071089e+02
1.400000e-06	-1.929963e-06	-6.090189e-09	-1.406041e+01	-4.031684e+02
1.410000e-06	-1.888144e-06	-6.032173e-09	-1.375574e+01	-3.991879e+02
1.420000e-06	-1.846185e-06	-5.972828e-09	-1.345006e+01	-3.951672e+02
1.430000e-06	-1.804049e-06	-5.908920e-09	-1.314308e+01	-3.911049e+02
1.440000e-06	-1.761754e-06	-5.841468e-09	-1.283495e+01	-3.869980e+02
1.450000e-06	-1.719297e-06	-5.773788e-09	-1.252564e+01	-3.828429e+02
1.460000e-06	-1.676636e-06	-5.710462e-09	-1.221484e+01	-3.786349e+02
1.470000e-06	-1.633803e-06	-5.646806e-09	-1.190279e+01	-3.743696e+02
1.480000e-06	-1.590858e-06	-5.580216e-09	-1.158992e+01	-3.700428e+02
1.490000e-06	-1.547788e-06	-5.513915e-09	-1.127614e+01	-3.656510e+02
1.500000e-06	-1.504611e-06	-5.445297e-09	-1.096158e+01	-3.611918e+02
1.510000e-06	-1.461368e-06	-5.373569e-09	-1.064654e+01	-3.566643e+02
1.520000e-06	-1.418084e-06	-5.298991e-09	-1.033121e+01	-3.520685e+02
1.530000e-06	-1.374745e-06	-5.224150e-09	-1.001547e+01	-3.474053e+02
1.540000e-06	-1.331288e-06	-5.151499e-09	-9.698869e+00	-3.426763e+02
1.550000e-06	-1.287745e-06	-5.079208e-09	-9.381646e+00	-3.378830e+02
1.560000e-06	-1.244161e-06	-5.005498e-09	-9.064120e+00	-3.330267e+02
1.570000e-06	-1.200484e-06	-4.929038e-09	-8.745915e+00	-3.281078e+02
1.580000e-06	-1.156705e-06	-4.852874e-09	-8.426972e+00	-3.231260e+02
1.590000e-06	-1.112826e-06	-4.777279e-09	-8.107297e+00	-3.180798e+02
1.600000e-06	-1.068830e-06	-4.700785e-09	-7.786778e+00	-3.129667e+02
1.610000e-06	-1.024759e-06	-4.622706e-09	-7.465703e+00	-3.077837e+02
1.620000e-06	-9.806479e-07	-4.543499e-09	-7.144340e+00	-3.025273e+02
1.630000e-06	-9.365083e-07	-4.461991e-09	-6.822769e+00	-2.971941e+02
1.640000e-06	-8.923131e-07	-4.377616e-09	-6.500793e+00	-2.917809e+02
1.650000e-06	-8.480613e-07	-4.290217e-09	-6.178403e+00	-2.862853e+02
1.660000e-06	-8.037590e-07	-4.201164e-09	-5.855647e+00	-2.807059e+02
1.670000e-06	-7.594094e-07	-4.112069e-09	-5.532545e+00	-2.750419e+02
1.680000e-06	-7.150241e-07	-4.024304e-09	-5.209184e+00	-2.692933e+02
1.690000e-06	-6.705902e-07	-3.936434e-09	-4.885468e+00	-2.634608e+02
1.700000e-06	-6.261241e-07	-3.848118e-09	-4.561518e+00	-2.575454e+02
1.710000e-06	-5.815921e-07	-3.760600e-09	-4.237088e+00	-2.515477e+02
1.720000e-06	-5.369937e-07	-3.672908e-09	-3.912175e+00	-2.454685e+02
1.730000e-06	-4.923572e-07	-3.580106e-09	-3.586983e+00	-2.393076e+02
1.740000e-06	-4.476798e-07	-3.480339e-09	-3.261494e+00	-2.330647e+02
1.750000e-06	-4.029642e-07	-3.379948e-09	-2.935726e+00	-2.267384e+02
1.760000e-06	-3.582348e-07	-3.281078e-09	-2.609858e+00	-2.203273e+02
1.770000e-06	-3.135145e-07	-3.185054e-09	-2.284056e+00	-2.138292e+02
1.780000e-06	-2.687822e-07	-3.088848e-09	-1.958166e+00	-2.072422e+02
1.790000e-06	-2.240502e-07	-2.993178e-09	-1.632279e+00	-2.005642e+02
1.800000e-06	-1.793023e-07	-2.896500e-09	-1.306276e+00	-1.937934e+02
1.810000e-06	-1.345215e-07	-2.793665e-09	-9.800332e-01	-1.869281e+02
1.820000e-06	-8.974141e-08	-2.682474e-09	-6.537954e-01	-1.799670e+02
1.830000e-06	-4.495825e-08	-2.567401e-09	-3.275355e-01	-1.729087e+02
1.840000e-06	-1.837890e-10	-2.455334e-09	-1.338963e-03	-1.657518e+02
1.850000e-06	4.460809e-08	-2.346839e-09	3.249845e-01	-1.584948e+02
1.860000e-06	8.942655e-08	-2.239697e-09	6.515016e-01	-1.511357e+02
1.870000e-06	1.342389e-07	-2.132184e-09	9.779739e-01	-1.436723e+02
1.880000e-06	1.790575e-07	-2.022357e-09	1.304493e+00	-1.361018e+02
1.890000e-06	2.238637e-07	-1.907899e-09	1.630920e+00	-1.284211e+02
1.900000e-06	2.686503e-07	-1.787724e-09	1.957205e+00	-1.206271e+02
1.910000e-06	3.134003e-07	-1.663425e-09	2.283223e+00	-1.127169e+02
1.920000e-06	3.580809e-07	-1.537494e-09	2.608737e+00	-1.046879e+02
1.930000e-06	4.027230e-07	-1.412096e-09	2.933969e+00	-9.653798e+01
1.940000e-06	4.473537e-07	-1.288468e-09	3.259118e+00	-8.826625e+01
1.950000e-06	4.919695e-07	-1.162209e-09	3.584159e+00	-7.987254e+01
1.960000e-06	5.365751e-07	-1.031727e-09	3.909125e+00	-7.135774e+01
1.970000e-06	5.811498e-07	-8.986495e-10	4.233866e+00	-6.272360e+01
1.980000e-06	6.256866e-07	-7.653766e-10	4.558331e+00	-5.397262e+01
1.990000e-06	6.701711e-07	-6.311884e-10	4.882416e+00	-4.510782e+01
2.000000e-06	7.146137e-07	-4.939305e-10	5.206194e+00	-3.613254e+01
2.010000e-06	7.590122e-07	-3.542065e-10	5.529652e+00	-2.705027e+01
2.020000e-06	8.033535e-07	-2.151315e-10	5.852692e+00	-1.786456e+01
2.030000e-06	8.476533e-07	-7.660190e-11	6.175431e+00	-8.578979e+00
2.040000e-06	8.918776e-07	6.392804e-11	6.497620e+00	8.027360e-01
2.050000e-06	9.360271e-07	2.091268e-10	6.819263e+00	1.027655e+01
2.060000e-06	9.800983e-07	3.569941e-10	7.140336e+00	1.983788e+01
2.070000e-06	1.024078e-06	5.051837e-10	7.460745e+00	2.948138e+01
2.080000e-06	1.067994e-06	6.540966e-10	7.780688e+00	3.920071e+01
2.090000e-06	1.111829e-06	8.042521e-10	8.100035e+00	4.898844e+01
2.100000e-06	1.155600e-06	9.557860e-10	8.418926e+00	5.883596e+01
2.110000e-06	1.199313e-06	1.106525e-09	8.737389e+00	6.873362e+01
2.120000e-06	1.242966e-06	1.254977e-09	9.055410e+00	7.867087e+01
2.130000e-06	1.286552e-06	1.405169e-09	9.372953e+00	8.863653e+01
2.140000e-06	1.330035e-06	1.562904e-09	9.689737e+00	9.861912e+01
2.150000e-06	1.373417e-06	1.723664e-09	1.000579e+01	1.086071e+02
2.160000e-06	1.416728e-06	1.880104e-09	1.032132e+01	1.185893e+02
2.170000e-06	1.459970e-06	2.031463e-09	1.063636e+01	1.285548e+02
2.180000e-06	1.503108e-06	2.180912e-09	1.095063e+01	1.384933e+02
2.190000e-06	1.546148e-06	2.326421e-09	1.126420e+01	1.483950e+02
2.200000e-06	1.589108e-06	2.469303e-09	1.157717e+01	1.582504e+02
2.210000e-06	1.631969e-06	2.614062e-09	1.188943e+01	1.680504e+02
2.220000e-06	1.674667e-06	2.763365e-09	1.220049e+01	1.777855e+02
2.230000e-06	1.717183e-06	2.916850e-09	1.251024e+01	1.874464e+02
2.240000e-06	1.759497e-06	3.069869e-09	1.281851e+01	1.970235e+02
2.250000e-06	1.801639e-06	3.220125e-09	1.312553e+01	2.065068e+02
2.260000e-06	1.843644e-06	3.364400e-09	1.343155e+01	2.158861e+02
2.270000e-06	1.885526e-06	3.501206e-09	1.373667e+01	2.251516e+02
2.280000e-06	1.927264e-06	3.633112e-09	1.404075e+01	2.342934e+02
2.290000e-06	1.968856e-06	3.763700e-09	1.434376e+01	2.433027e+02
2.300000e-06	2.010353e-06	3.893556e-09	1.464608e+01	2.521712e+02
2.310000e-06	2.051713e-06	4.022078e-09	1.494740e+01	2.608922e+02
2.320000e-06	2.092909e-06	4.152238e-09	1.524752e+01	2.694603e+02
2.330000e-06	2.133952e-06	4.285916e-09	1.554654e+01	2.778715e+02
2.340000e-06	2.174856e-06	4.416965e-09	1.584454e+01	2.861232e+02
2.350000e-06	2.215584e-06	4.539056e-09	1.614125e+01	2.942140e+02
2.360000e-06	2.256144e-06	4.651014e-09	1.643674e+01	3.021435e+02
2.370000e-06	2.296562e-06	4.758720e-09	1.673121e+01	3.099119e+02
2.380000e-06	2.336813e-06	4.869591e-09	1.702445e+01	3.175199e+02
2.390000e-06	2.376916e-06	4.981108e-09	1.731661e+01	3.249683e+02
2.400000e-06	2.416909e-06	5.089210e-09	1.760797e+01	3.322578e+02
2.410000e-06	2.456807e-06	5.195266e-09	1.789864e+01	3.393892e+02
2.420000e-06	2.496573e-06	5.303010e-09	1.818835e+01	3.463633e+02
2.430000e-06	2.536085e-06	5.411227e-09	1.847621e+01	3.531810e+02
2.440000e-06	2.575297e-06	5.514330e-09	1.876188e+01	3.598435e+02
2.450000e-06	2.614217e-06	5.611679e-09	1.904542e+01	3.663525e+02
2.460000e-06	2.652921e-06	5.706585e-09	1.932740e+01	3.727103e+02
2.470000e-06	2.691445e-06	5.798489e-09	1.960806e+01	3.789199e+02
2.480000e-06	2.729771e-06	5.885016e-09	1.988728e+01	3.849851e+02
2.490000e-06	2.767906e-06	5.967643e-09	2.016510e+01	3.909105e+02
2.500000e-06	2.805832e-06	6.050948e-09	2.044140e+01	3.967008e+02
2.510000e-06	2.843588e-06	6.137354e-09	2.071647e+01	4.023612e+02
2.520000e-06	2.881182e-06	6.225552e-09	2.099035e+01	4.078970e+02
2.530000e-06	2.918593e-06	6.311012e-09	2.126290e+01	4.133130e+02
2.540000e-06	2.955820e-06	6.392740e-09	2.153411e+01	4.186137e+02
2.550000e-06	2.992859e-06	6.473381e-09	2.180396e+01	4.238029e+02
2.560000e-06	3.029715e-06	6.551471e-09	2.207246e+01	4.288840e+02
2.570000e-06	3.066394e-06	6.625562e-09	2.233968e+01	4.338594e+02
2.580000e-06	3.102859e-06	6.695048e-09	2.260534e+01	4.387314e+02
2.590000e-06	3.139042e-06	6.763075e-09	2.286894e+01	4.435015e+02
2.600000e-06	3.174863e-06	6.834119e-09	2.312991e+01	4.481714e+02
2.610000e-06	3.210376e-06	6.905291e-09	2.338863e+01	4.527425e+02
2.620000e-06	3.245669e-06	6.974850e-09	2.364576e+01	4.572160e+02
2.630000e-06	3.280768e-06	7.043699e-09	2.390147e+01	4.615936e+02
2.640000e-06	3.315694e-06	7.111457e-09	2.415591e+01	4.658768e+02
2.650000e-06	3.350402e-06	7.176110e-09	2.440877e+01	4.700670e+02
2.660000e-06	3.384888e-06	7.234876e-09	2.466002e+01	4.741659e+02
2.670000e-06	3.419168e-06	7.288937e-09	2.490976e+01	4.781747e+02
2.680000e-06	3.453203e-06	7.341095e-09	2.515771e+01	4.820948e+02
2.690000e-06	3.486994e-06	7.393271e-09	2.540389e+01	4.859271e+02
2.700000e-06	3.520590e-06	7.448448e-09	2.564865e+01	4.896726e+02
2.710000e-06	3.554041e-06	7.505883e-09	2.589235e+01	4.933323e+02
2.720000e-06	3.587253e-06	7.562410e-09	2.613431e+01	4.969073e+02
2.730000e-06	3.620114e-06	7.616638e-09	2.637371e+01	5.003987e+02
2.740000e-06	3.652690e-06	7.667948e-09	2.661104e+01	5.038082e+02
2.750000e-06	3.685050e-06	7.715893e-09	2.684679e+01	5.071380e+02
2.760000e-06	3.717160e-06	7.761583e-09	2.708073e+01	5.103904e+02
2.770000e-06	3.748972e-06	7.806687e-09	2.731249e+01	5.135684e+02
2.780000e-06	3.780508e-06	7.851164e-09	2.754223e+01	5.166750e+02
2.790000e-06	3.811783e-06	7.893602e-09	2.777008e+01	5.197134e+02
2.800000e-06	3.842784e-06	7.933918e-09	2.799594e+01	5.226867e+02
2.810000e-06	3.873532e-06	7.974654e-09	2.821995e+01	5.255977e+02
2.820000e-06	3.904020e-06	8.015331e-09	2.844206e+01	5.284486e+02
2.830000e-06	3.934184e-06	8.055271e-09	2.866182e+01	5.312413e+02
2.840000e-06	3.963961e-06	8.093849e-09	2.887875e+01	5.339770e+02
2.850000e-06	3.993329e-06	8.131430e-09	2.909270e+01	5.366568e+02
2.860000e-06	4.022348e-06	8.168450e-09	2.930412e+01	5.392813e+02
2.870000e-06	4.051090e-06	8.204599e-09	2.951351e+01	5.418512e+02
2.880000e-06	4.079562e-06	8.239111e-09	2.972094e+01	5.443675e+02
2.890000e-06	4.107748e-06	8.272464e-09	2.992629e+01	5.468315e+02
2.900000e-06	4.135663e-06	8.306254e-09	3.012965e+01	5.492448e+02
