# Temperatura_=_20.0
# Concentracion g/m^3_=_10000.0
# C_Vs_to_Am_M_A/Vsm_=_65563218390.804596
# pendiente_HvsI_1/m_=_3716.3
# ordenada_HvsI_A/m_=_1297.0
# frecuencia_Hz_=_135362.37209875544

Tiempo_(s)	Campo_(V.s)	Magnetizacion_(V.s)	Campo_(kA/m)	Magnetizacion_(A/m)
0.000000e+00	-5.262168e-06	-9.593742e-09	-3.843751e+01	-6.248671e+02
1.000000e-08	-5.262094e-06	-9.592327e-09	-3.843696e+01	-6.248900e+02
2.000000e-08	-5.261695e-06	-9.590210e-09	-3.843405e+01	-6.249005e+02
3.000000e-08	-5.260801e-06	-9.587792e-09	-3.842752e+01	-6.248973e+02
4.000000e-08	-5.259472e-06	-9.584392e-09	-3.841781e+01	-6.248790e+02
5.000000e-08	-5.257832e-06	-9.582630e-09	-3.840583e+01	-6.248439e+02
6.000000e-08	-5.255911e-06	-9.581694e-09	-3.839180e+01	-6.247905e+02
7.000000e-08	-5.253674e-06	-9.575129e-09	-3.837546e+01	-6.247179e+02
8.000000e-08	-5.251013e-06	-9.585994e-09	-3.835602e+01	-6.246256e+02
9.000000e-08	-5.247719e-06	-9.605012e-09	-3.833196e+01	-6.245139e+02
1.000000e-07	-5.243556e-06	-9.566314e-09	-3.830155e+01	-6.243834e+02
1.100000e-07	-5.238849e-06	-9.495923e-09	-3.826717e+01	-6.242354e+02
1.200000e-07	-5.234243e-06	-9.578134e-09	-3.823353e+01	-6.240713e+02
1.300000e-07	-5.229530e-06	-9.609376e-09	-3.819910e+01	-6.238923e+02
1.400000e-07	-5.224212e-06	-9.534966e-09	-3.816025e+01	-6.236991e+02
1.500000e-07	-5.218376e-06	-9.469662e-09	-3.811763e+01	-6.234920e+02
1.600000e-07	-5.212378e-06	-9.598023e-09	-3.807381e+01	-6.232700e+02
1.700000e-07	-5.206024e-06	-9.572995e-09	-3.802740e+01	-6.230314e+02
1.800000e-07	-5.199085e-06	-9.490928e-09	-3.797671e+01	-6.227737e+02
1.900000e-07	-5.191819e-06	-9.492555e-09	-3.792364e+01	-6.224935e+02
2.000000e-07	-5.184355e-06	-9.565047e-09	-3.786912e+01	-6.221873e+02
2.100000e-07	-5.176448e-06	-9.518033e-09	-3.781136e+01	-6.218516e+02
2.200000e-07	-5.168145e-06	-9.509197e-09	-3.775071e+01	-6.214831e+02
2.300000e-07	-5.159686e-06	-9.545254e-09	-3.768893e+01	-6.210799e+02
2.400000e-07	-5.150894e-06	-9.511587e-09	-3.762471e+01	-6.206409e+02
2.500000e-07	-5.141547e-06	-9.490326e-09	-3.755643e+01	-6.201664e+02
2.600000e-07	-5.131837e-06	-9.507443e-09	-3.748550e+01	-6.196582e+02
2.700000e-07	-5.121817e-06	-9.509274e-09	-3.741231e+01	-6.191192e+02
2.800000e-07	-5.111241e-06	-9.394521e-09	-3.733506e+01	-6.185534e+02
2.900000e-07	-5.100247e-06	-9.433370e-09	-3.725475e+01	-6.179650e+02
3.000000e-07	-5.089008e-06	-9.452203e-09	-3.717266e+01	-6.173583e+02
3.100000e-07	-5.077456e-06	-9.438582e-09	-3.708827e+01	-6.167370e+02
3.200000e-07	-5.065562e-06	-9.372713e-09	-3.700140e+01	-6.161040e+02
3.300000e-07	-5.053391e-06	-9.424005e-09	-3.691249e+01	-6.154607e+02
3.400000e-07	-5.040849e-06	-9.367112e-09	-3.682088e+01	-6.148071e+02
3.500000e-07	-5.028017e-06	-9.373538e-09	-3.672715e+01	-6.141419e+02
3.600000e-07	-5.014935e-06	-9.391318e-09	-3.663159e+01	-6.134624e+02
3.700000e-07	-5.001379e-06	-9.364147e-09	-3.653257e+01	-6.127652e+02
3.800000e-07	-4.987272e-06	-9.321421e-09	-3.642953e+01	-6.120468e+02
3.900000e-07	-4.972810e-06	-9.371244e-09	-3.632389e+01	-6.113036e+02
4.000000e-07	-4.957985e-06	-9.348421e-09	-3.621560e+01	-6.105328e+02
4.100000e-07	-4.942777e-06	-9.296069e-09	-3.610452e+01	-6.097329e+02
4.200000e-07	-4.927249e-06	-9.314058e-09	-3.599109e+01	-6.089036e+02
4.300000e-07	-4.911411e-06	-9.289795e-09	-3.587540e+01	-6.080461e+02
4.400000e-07	-4.895311e-06	-9.264680e-09	-3.575780e+01	-6.071627e+02
4.500000e-07	-4.878941e-06	-9.265271e-09	-3.563822e+01	-6.062568e+02
4.600000e-07	-4.862159e-06	-9.251690e-09	-3.551564e+01	-6.053322e+02
4.700000e-07	-4.844871e-06	-9.202708e-09	-3.538936e+01	-6.043926e+02
4.800000e-07	-4.827222e-06	-9.237031e-09	-3.526044e+01	-6.034411e+02
4.900000e-07	-4.809260e-06	-9.211010e-09	-3.512924e+01	-6.024797e+02
5.000000e-07	-4.790973e-06	-9.175137e-09	-3.499566e+01	-6.015090e+02
5.100000e-07	-4.772343e-06	-9.161012e-09	-3.485958e+01	-6.005282e+02
5.200000e-07	-4.753342e-06	-9.161762e-09	-3.472078e+01	-5.995349e+02
5.300000e-07	-4.733959e-06	-9.126904e-09	-3.457920e+01	-5.985259e+02
5.400000e-07	-4.714156e-06	-9.127052e-09	-3.443455e+01	-5.974973e+02
5.500000e-07	-4.693815e-06	-9.102617e-09	-3.428597e+01	-5.964448e+02
5.600000e-07	-4.673015e-06	-9.081241e-09	-3.413404e+01	-5.953651e+02
5.700000e-07	-4.651897e-06	-9.081545e-09	-3.397978e+01	-5.942554e+02
5.800000e-07	-4.630463e-06	-9.068076e-09	-3.382321e+01	-5.931145e+02
5.900000e-07	-4.608748e-06	-9.032132e-09	-3.366460e+01	-5.919426e+02
6.000000e-07	-4.586692e-06	-9.011169e-09	-3.350349e+01	-5.907413e+02
6.100000e-07	-4.564325e-06	-9.001764e-09	-3.334011e+01	-5.895136e+02
6.200000e-07	-4.541768e-06	-8.976969e-09	-3.317534e+01	-5.882631e+02
6.300000e-07	-4.518799e-06	-8.953873e-09	-3.300757e+01	-5.869934e+02
6.400000e-07	-4.495272e-06	-8.922879e-09	-3.283571e+01	-5.857083e+02
6.500000e-07	-4.471391e-06	-8.907267e-09	-3.266128e+01	-5.844101e+02
6.600000e-07	-4.447289e-06	-8.889795e-09	-3.248522e+01	-5.831003e+02
6.700000e-07	-4.422896e-06	-8.871122e-09	-3.230704e+01	-5.817787e+02
6.800000e-07	-4.398185e-06	-8.843185e-09	-3.212654e+01	-5.804436e+02
6.900000e-07	-4.373148e-06	-8.829236e-09	-3.194366e+01	-5.790922e+02
7.000000e-07	-4.347815e-06	-8.807703e-09	-3.175862e+01	-5.777207e+02
7.100000e-07	-4.322301e-06	-8.786816e-09	-3.157225e+01	-5.763249e+02
7.200000e-07	-4.296557e-06	-8.759537e-09	-3.138420e+01	-5.749011e+02
7.300000e-07	-4.270400e-06	-8.729872e-09	-3.119313e+01	-5.734460e+02
7.400000e-07	-4.243796e-06	-8.699654e-09	-3.099881e+01	-5.719577e+02
7.500000e-07	-4.216852e-06	-8.678234e-09	-3.080200e+01	-5.704355e+02
7.600000e-07	-4.189676e-06	-8.652092e-09	-3.060348e+01	-5.688803e+02
7.700000e-07	-4.162271e-06	-8.625285e-09	-3.040331e+01	-5.672942e+02
7.800000e-07	-4.134521e-06	-8.606905e-09	-3.020061e+01	-5.656801e+02
7.900000e-07	-4.106449e-06	-8.588941e-09	-2.999556e+01	-5.640414e+02
8.000000e-07	-4.078126e-06	-8.562427e-09	-2.978867e+01	-5.623812e+02
8.100000e-07	-4.049516e-06	-8.526255e-09	-2.957969e+01	-5.607020e+02
8.200000e-07	-4.020667e-06	-8.494238e-09	-2.936896e+01	-5.590052e+02
8.300000e-07	-3.991522e-06	-8.462259e-09	-2.915607e+01	-5.572906e+02
8.400000e-07	-3.962013e-06	-8.432793e-09	-2.894052e+01	-5.555567e+02
8.500000e-07	-3.932133e-06	-8.402907e-09	-2.872227e+01	-5.538007e+02
8.600000e-07	-3.901936e-06	-8.379432e-09	-2.850169e+01	-5.520187e+02
8.700000e-07	-3.871463e-06	-8.357440e-09	-2.827910e+01	-5.502063e+02
8.800000e-07	-3.840693e-06	-8.332441e-09	-2.805434e+01	-5.483591e+02
8.900000e-07	-3.809659e-06	-8.300828e-09	-2.782766e+01	-5.464733e+02
9.000000e-07	-3.778336e-06	-8.268806e-09	-2.759885e+01	-5.445458e+02
9.100000e-07	-3.746626e-06	-8.234299e-09	-2.736723e+01	-5.425752e+02
9.200000e-07	-3.714512e-06	-8.198852e-09	-2.713265e+01	-5.405611e+02
9.300000e-07	-3.682111e-06	-8.161728e-09	-2.689598e+01	-5.385047e+02
9.400000e-07	-3.649501e-06	-8.125939e-09	-2.665778e+01	-5.364082e+02
9.500000e-07	-3.616679e-06	-8.094168e-09	-2.641803e+01	-5.342747e+02
9.600000e-07	-3.583618e-06	-8.064515e-09	-2.617653e+01	-5.321075e+02
9.700000e-07	-3.550329e-06	-8.035194e-09	-2.593337e+01	-5.299096e+02
9.800000e-07	-3.516834e-06	-8.003921e-09	-2.568871e+01	-5.276837e+02
9.900000e-07	-3.483180e-06	-7.972590e-09	-2.544289e+01	-5.254316e+02
1.000000e-06	-3.449345e-06	-7.939640e-09	-2.519574e+01	-5.231538e+02
1.010000e-06	-3.415273e-06	-7.901753e-09	-2.494686e+01	-5.208501e+02
1.020000e-06	-3.380961e-06	-7.859844e-09	-2.469623e+01	-5.185192e+02
1.030000e-06	-3.346418e-06	-7.819375e-09	-2.444391e+01	-5.161591e+02
1.040000e-06	-3.311658e-06	-7.782157e-09	-2.419000e+01	-5.137672e+02
1.050000e-06	-3.276660e-06	-7.747627e-09	-2.393436e+01	-5.113413e+02
1.060000e-06	-3.241456e-06	-7.712002e-09	-2.367722e+01	-5.088787e+02
1.070000e-06	-3.206056e-06	-7.676784e-09	-2.341864e+01	-5.063777e+02
1.080000e-06	-3.170418e-06	-7.640688e-09	-2.315832e+01	-5.038367e+02
1.090000e-06	-3.134507e-06	-7.601553e-09	-2.289600e+01	-5.012547e+02
1.100000e-06	-3.098273e-06	-7.556003e-09	-2.263133e+01	-4.986315e+02
1.110000e-06	-3.061742e-06	-7.508011e-09	-2.236450e+01	-4.959670e+02
1.120000e-06	-3.025016e-06	-7.461714e-09	-2.209623e+01	-4.932614e+02
1.130000e-06	-2.988156e-06	-7.418356e-09	-2.182698e+01	-4.905150e+02
1.140000e-06	-2.951152e-06	-7.376971e-09	-2.155669e+01	-4.877283e+02
1.150000e-06	-2.913963e-06	-7.338784e-09	-2.128504e+01	-4.849016e+02
1.160000e-06	-2.876525e-06	-7.301430e-09	-2.101158e+01	-4.820353e+02
1.170000e-06	-2.838809e-06	-7.262002e-09	-2.073608e+01	-4.791297e+02
1.180000e-06	-2.800896e-06	-7.220553e-09	-2.045914e+01	-4.761853e+02
1.190000e-06	-2.762797e-06	-7.173870e-09	-2.018085e+01	-4.732025e+02
1.200000e-06	-2.724512e-06	-7.123093e-09	-1.990120e+01	-4.701820e+02
1.210000e-06	-2.686083e-06	-7.070139e-09	-1.962049e+01	-4.671247e+02
1.220000e-06	-2.647499e-06	-7.019066e-09	-1.933866e+01	-4.640312e+02
1.230000e-06	-2.608740e-06	-6.970874e-09	-1.905554e+01	-4.609022e+02
1.240000e-06	-2.569738e-06	-6.925039e-09	-1.877065e+01	-4.577381e+02
1.250000e-06	-2.530417e-06	-6.877162e-09	-1.848343e+01	-4.545388e+02
1.260000e-06	-2.490793e-06	-6.828327e-09	-1.819400e+01	-4.513034e+02
1.270000e-06	-2.451006e-06	-6.776166e-09	-1.790337e+01	-4.480305e+02
1.280000e-06	-2.411110e-06	-6.724359e-09	-1.761195e+01	-4.447179e+02
1.290000e-06	-2.371106e-06	-6.672637e-09	-1.731974e+01	-4.413628e+02
1.300000e-06	-2.330990e-06	-6.617775e-09	-1.702672e+01	-4.379621e+02
1.310000e-06	-2.290707e-06	-6.562959e-09	-1.673247e+01	-4.345124e+02
1.320000e-06	-2.250205e-06	-6.509305e-09	-1.643662e+01	-4.310108e+02
1.330000e-06	-2.209536e-06	-6.457883e-09	-1.613955e+01	-4.274550e+02
1.340000e-06	-2.168748e-06	-6.404127e-09	-1.584162e+01	-4.238434e+02
1.350000e-06	-2.127806e-06	-6.344832e-09	-1.554256e+01	-4.201755e+02
1.360000e-06	-2.086660e-06	-6.281849e-09	-1.524201e+01	-4.164521e+02
1.370000e-06	-2.045361e-06	-6.219448e-09	-1.494034e+01	-4.126748e+02
1.380000e-06	-2.003947e-06	-6.157595e-09	-1.463783e+01	-4.088458e+02
1.390000e-06	-1.962434e-06	-6.096800e-09	-1.433460e+01	-4.049679e+02
1.400000e-06	-1.920845e-06	-6.036877e-09	-1.403081e+01	-4.010437e+02
1.410000e-06	-1.879149e-06	-5.978947e-09	-1.372624e+01	-3.970752e+02
1.420000e-06	-1.837312e-06	-5.916566e-09	-1.342065e+01	-3.930637e+02
1.430000e-06	-1.795331e-06	-5.848656e-09	-1.311399e+01	-3.890092e+02
1.440000e-06	-1.753203e-06	-5.780086e-09	-1.280627e+01	-3.849106e+02
1.450000e-06	-1.710875e-06	-5.714859e-09	-1.249709e+01	-3.807653e+02
1.460000e-06	-1.668338e-06	-5.652608e-09	-1.218638e+01	-3.765701e+02
1.470000e-06	-1.625624e-06	-5.590007e-09	-1.187437e+01	-3.723213e+02
1.480000e-06	-1.582764e-06	-5.525424e-09	-1.156130e+01	-3.680150e+02
1.490000e-06	-1.539766e-06	-5.460740e-09	-1.124722e+01	-3.636477e+02
1.500000e-06	-1.496636e-06	-5.394753e-09	-1.093217e+01	-3.592169e+02
1.510000e-06	-1.453431e-06	-5.322979e-09	-1.061658e+01	-3.547211e+02
1.520000e-06	-1.410193e-06	-5.244694e-09	-1.030075e+01	-3.501603e+02
1.530000e-06	-1.366910e-06	-5.166308e-09	-9.984597e+00	-3.455356e+02
1.540000e-06	-1.323588e-06	-5.094614e-09	-9.668151e+00	-3.408488e+02
1.550000e-06	-1.280215e-06	-5.023634e-09	-9.351332e+00	-3.361027e+02
1.560000e-06	-1.236731e-06	-4.950349e-09	-9.033703e+00	-3.312998e+02
1.570000e-06	-1.193138e-06	-4.875667e-09	-8.715273e+00	-3.264422e+02
1.580000e-06	-1.149464e-06	-4.802206e-09	-8.396260e+00	-3.215313e+02
1.590000e-06	-1.105694e-06	-4.728398e-09	-8.076540e+00	-3.165669e+02
1.600000e-06	-1.061811e-06	-4.649526e-09	-7.755996e+00	-3.115474e+02
1.610000e-06	-1.017847e-06	-4.568213e-09	-7.434866e+00	-3.064702e+02
1.620000e-06	-9.738374e-07	-4.488926e-09	-7.113395e+00	-3.013309e+02
1.630000e-06	-9.297897e-07	-4.410238e-09	-6.791648e+00	-2.961247e+02
1.640000e-06	-8.856787e-07	-4.330174e-09	-6.469440e+00	-2.908464e+02
1.650000e-06	-8.415172e-07	-4.249710e-09	-6.146862e+00	-2.854910e+02
1.660000e-06	-7.973384e-07	-4.168907e-09	-5.824158e+00	-2.800540e+02
1.670000e-06	-7.530945e-07	-4.085201e-09	-5.500978e+00	-2.745320e+02
1.680000e-06	-7.087778e-07	-3.998088e-09	-5.177267e+00	-2.689231e+02
1.690000e-06	-6.644337e-07	-3.908511e-09	-4.853356e+00	-2.632261e+02
1.700000e-06	-6.200429e-07	-3.816691e-09	-4.529103e+00	-2.574415e+02
1.710000e-06	-5.755814e-07	-3.725230e-09	-4.204334e+00	-2.515701e+02
1.720000e-06	-5.310536e-07	-3.634239e-09	-3.879081e+00	-2.456134e+02
1.730000e-06	-4.864842e-07	-3.542127e-09	-3.553524e+00	-2.395728e+02
1.740000e-06	-4.419128e-07	-3.451295e-09	-3.227952e+00	-2.334492e+02
1.750000e-06	-3.973189e-07	-3.362903e-09	-2.902216e+00	-2.272427e+02
1.760000e-06	-3.526952e-07	-3.271922e-09	-2.576262e+00	-2.209525e+02
1.770000e-06	-3.080822e-07	-3.175760e-09	-2.250387e+00	-2.145769e+02
1.780000e-06	-2.634534e-07	-3.076878e-09	-1.924395e+00	-2.081131e+02
1.790000e-06	-2.187894e-07	-2.977617e-09	-1.598147e+00	-2.015580e+02
1.800000e-06	-1.741087e-07	-2.877007e-09	-1.271777e+00	-1.949079e+02
1.810000e-06	-1.294042e-07	-2.774875e-09	-9.452333e-01	-1.881593e+02
1.820000e-06	-8.472615e-08	-2.672306e-09	-6.188821e-01	-1.813092e+02
1.830000e-06	-4.002566e-08	-2.567802e-09	-2.923674e-01	-1.743549e+02
1.840000e-06	4.721859e-09	-2.461796e-09	3.449081e-02	-1.672946e+02
1.850000e-06	4.945082e-08	-2.355204e-09	3.612135e-01	-1.601270e+02
1.860000e-06	9.416863e-08	-2.245199e-09	6.878547e-01	-1.528517e+02
1.870000e-06	1.388835e-07	-2.132710e-09	1.014474e+00	-1.454685e+02
1.880000e-06	1.835851e-07	-2.017787e-09	1.340997e+00	-1.379773e+02
1.890000e-06	2.282618e-07	-1.901597e-09	1.667338e+00	-1.303780e+02
1.900000e-06	2.729098e-07	-1.785210e-09	1.993470e+00	-1.226703e+02
1.910000e-06	3.175598e-07	-1.667401e-09	2.319615e+00	-1.148535e+02
1.920000e-06	3.621760e-07	-1.549397e-09	2.645514e+00	-1.069264e+02
1.930000e-06	4.067379e-07	-1.428805e-09	2.971017e+00	-9.888766e+01
1.940000e-06	4.512629e-07	-1.303478e-09	3.296249e+00	-9.073588e+01
1.950000e-06	4.957488e-07	-1.176633e-09	3.621197e+00	-8.246984e+01
1.960000e-06	5.402140e-07	-1.050297e-09	3.945993e+00	-7.408875e+01
1.970000e-06	5.846691e-07	-9.220999e-10	4.270715e+00	-6.559254e+01
1.980000e-06	6.290923e-07	-7.907148e-10	4.595205e+00	-5.698196e+01
1.990000e-06	6.734776e-07	-6.574808e-10	4.919417e+00	-4.825871e+01
2.000000e-06	7.178015e-07	-5.234763e-10	5.243180e+00	-3.942541e+01
2.010000e-06	7.620532e-07	-3.854128e-10	5.566417e+00	-3.048549e+01
2.020000e-06	8.062464e-07	-2.443423e-10	5.889227e+00	-2.144303e+01
2.030000e-06	8.503784e-07	-1.025530e-10	6.211588e+00	-1.230257e+01
2.040000e-06	8.944453e-07	3.568701e-11	6.533475e+00	-3.068916e+00
2.050000e-06	9.384471e-07	1.756010e-10	6.854887e+00	6.252964e+00
2.060000e-06	9.824173e-07	3.212557e-10	7.176067e+00	1.565802e+01
2.070000e-06	1.026315e-06	4.698810e-10	7.496716e+00	2.514108e+01
2.080000e-06	1.070098e-06	6.163157e-10	7.816529e+00	3.469674e+01
2.090000e-06	1.113804e-06	7.595861e-10	8.135781e+00	4.431920e+01
2.100000e-06	1.157454e-06	9.082863e-10	8.454622e+00	5.400208e+01
2.110000e-06	1.201060e-06	1.059975e-09	8.773143e+00	6.373821e+01
2.120000e-06	1.244591e-06	1.207264e-09	9.091115e+00	7.351952e+01
2.130000e-06	1.288013e-06	1.351939e-09	9.408288e+00	8.333702e+01
2.140000e-06	1.331360e-06	1.504774e-09	9.724922e+00	9.318079e+01
2.150000e-06	1.374647e-06	1.663611e-09	1.004111e+01	1.030402e+02
2.160000e-06	1.417875e-06	1.820288e-09	1.035687e+01	1.129042e+02
2.170000e-06	1.461052e-06	1.971374e-09	1.067226e+01	1.227615e+02
2.180000e-06	1.504165e-06	2.120039e-09	1.098717e+01	1.326008e+02
2.190000e-06	1.547160e-06	2.268406e-09	1.130123e+01	1.424115e+02
2.200000e-06	1.590020e-06	2.414600e-09	1.161430e+01	1.521833e+02
2.210000e-06	1.632735e-06	2.558257e-09	1.192631e+01	1.619068e+02
2.220000e-06	1.675314e-06	2.703412e-09	1.223733e+01	1.715732e+02
2.230000e-06	1.717704e-06	2.852023e-09	1.254697e+01	1.811740e+02
2.240000e-06	1.759883e-06	3.001874e-09	1.285506e+01	1.907015e+02
2.250000e-06	1.801904e-06	3.150084e-09	1.316201e+01	2.001476e+02
2.260000e-06	1.843761e-06	3.291215e-09	1.346775e+01	2.095042e+02
2.270000e-06	1.885495e-06	3.429113e-09	1.377260e+01	2.187629e+02
2.280000e-06	1.927106e-06	3.566186e-09	1.407655e+01	2.279148e+02
2.290000e-06	1.968589e-06	3.698169e-09	1.437956e+01	2.369506e+02
2.300000e-06	2.009945e-06	3.826526e-09	1.468164e+01	2.458606e+02
2.310000e-06	2.051154e-06	3.957288e-09	1.498265e+01	2.546355e+02
2.320000e-06	2.092208e-06	4.089737e-09	1.528253e+01	2.632659e+02
2.330000e-06	2.133089e-06	4.218833e-09	1.558115e+01	2.717438e+02
2.340000e-06	2.173818e-06	4.344384e-09	1.587865e+01	2.800621e+02
2.350000e-06	2.214410e-06	4.466624e-09	1.617516e+01	2.882152e+02
2.360000e-06	2.254844e-06	4.583411e-09	1.647051e+01	2.961995e+02
2.370000e-06	2.295130e-06	4.697075e-09	1.676478e+01	3.040130e+02
2.380000e-06	2.335282e-06	4.810896e-09	1.705807e+01	3.116555e+02
2.390000e-06	2.375303e-06	4.919547e-09	1.735040e+01	3.191282e+02
2.400000e-06	2.415222e-06	5.022806e-09	1.764199e+01	3.264335e+02
2.410000e-06	2.455016e-06	5.126042e-09	1.793266e+01	3.335747e+02
2.420000e-06	2.494613e-06	5.228961e-09	1.822190e+01	3.405552e+02
2.430000e-06	2.533942e-06	5.329250e-09	1.850918e+01	3.473789e+02
2.440000e-06	2.572969e-06	5.426562e-09	1.879425e+01	3.540490e+02
2.450000e-06	2.611748e-06	5.523023e-09	1.907751e+01	3.605690e+02
2.460000e-06	2.650319e-06	5.618605e-09	1.935926e+01	3.669418e+02
2.470000e-06	2.688694e-06	5.714469e-09	1.963957e+01	3.731701e+02
2.480000e-06	2.726868e-06	5.807529e-09	1.991840e+01	3.792571e+02
2.490000e-06	2.764829e-06	5.897110e-09	2.019569e+01	3.852056e+02
2.500000e-06	2.802666e-06	5.983464e-09	2.047207e+01	3.910194e+02
2.510000e-06	2.840353e-06	6.066475e-09	2.074735e+01	3.967024e+02
2.520000e-06	2.877843e-06	6.147050e-09	2.102120e+01	4.022592e+02
2.530000e-06	2.915135e-06	6.225401e-09	2.129360e+01	4.076949e+02
2.540000e-06	2.952212e-06	6.305804e-09	2.156443e+01	4.130144e+02
2.550000e-06	2.989109e-06	6.388307e-09	2.183395e+01	4.182229e+02
2.560000e-06	3.025847e-06	6.474392e-09	2.210230e+01	4.233249e+02
2.570000e-06	3.062417e-06	6.556451e-09	2.236942e+01	4.283243e+02
2.580000e-06	3.098738e-06	6.628379e-09	2.263473e+01	4.332238e+02
2.590000e-06	3.134712e-06	6.694477e-09	2.289750e+01	4.380254e+02
2.600000e-06	3.170363e-06	6.759782e-09	2.315791e+01	4.427296e+02
2.610000e-06	3.205778e-06	6.828050e-09	2.341660e+01	4.473365e+02
2.620000e-06	3.240984e-06	6.896763e-09	2.367377e+01	4.518452e+02
2.630000e-06	3.275978e-06	6.966333e-09	2.392938e+01	4.562549e+02
2.640000e-06	3.310762e-06	7.038587e-09	2.418346e+01	4.605649e+02
2.650000e-06	3.345308e-06	7.109179e-09	2.443580e+01	4.647752e+02
2.660000e-06	3.379633e-06	7.171842e-09	2.468653e+01	4.688866e+02
2.670000e-06	3.413735e-06	7.227423e-09	2.493563e+01	4.729011e+02
2.680000e-06	3.447623e-06	7.278086e-09	2.518316e+01	4.768219e+02
2.690000e-06	3.481349e-06	7.329693e-09	2.542951e+01	4.806529e+02
2.700000e-06	3.514877e-06	7.383228e-09	2.567442e+01	4.843989e+02
2.710000e-06	3.548176e-06	7.434858e-09	2.591765e+01	4.880647e+02
2.720000e-06	3.581212e-06	7.485844e-09	2.615896e+01	4.916551e+02
2.730000e-06	3.613942e-06	7.540513e-09	2.639803e+01	4.951740e+02
2.740000e-06	3.646439e-06	7.595903e-09	2.663541e+01	4.986245e+02
2.750000e-06	3.678714e-06	7.647697e-09	2.687117e+01	5.020083e+02
2.760000e-06	3.710700e-06	7.696619e-09	2.710480e+01	5.053259e+02
2.770000e-06	3.742376e-06	7.745655e-09	2.733618e+01	5.085766e+02
2.780000e-06	3.773754e-06	7.792485e-09	2.756539e+01	5.117589e+02
2.790000e-06	3.804865e-06	7.831700e-09	2.779264e+01	5.148705e+02
2.800000e-06	3.835714e-06	7.869235e-09	2.801797e+01	5.179095e+02
2.810000e-06	3.866313e-06	7.910495e-09	2.824148e+01	5.208743e+02
2.820000e-06	3.896692e-06	7.955178e-09	2.846338e+01	5.237640e+02
2.830000e-06	3.926783e-06	7.996697e-09	2.868319e+01	5.265792e+02
2.840000e-06	3.956429e-06	8.035633e-09	2.889973e+01	5.293216e+02
2.850000e-06	3.985651e-06	8.075475e-09	2.911319e+01	5.319942e+02
2.860000e-06	4.014606e-06	8.114564e-09	2.932469e+01	5.346011e+02
2.870000e-06	4.043322e-06	8.149291e-09	2.953444e+01	5.371472e+02
2.880000e-06	4.071758e-06	8.179133e-09	2.974216e+01	5.396379e+02
2.890000e-06	4.099888e-06	8.208055e-09	2.994763e+01	5.420782e+02
2.900000e-06	4.127683e-06	8.240786e-09	3.015066e+01	5.444730e+02
