# Temperatura_=_20.0
# Concentracion g/m^3_=_10000.0
# C_Vs_to_Am_M_A/Vsm_=_65563218390.804596
# pendiente_HvsI_1/m_=_3716.3
# ordenada_HvsI_A/m_=_1297.0
# frecuencia_Hz_=_135353.31344550394

Tiempo_(s)	Campo_(V.s)	Magnetizacion_(V.s)	Campo_(kA/m)	Magnetizacion_(A/m)
0.000000e+00	-5.269101e-06	-9.624499e-09	-3.844452e+01	-6.270942e+02
1.000000e-08	-5.269083e-06	-9.624441e-09	-3.844439e+01	-6.271452e+02
2.000000e-08	-5.268721e-06	-9.625262e-09	-3.844175e+01	-6.271833e+02
3.000000e-08	-5.267896e-06	-9.626378e-09	-3.843573e+01	-6.272028e+02
4.000000e-08	-5.266645e-06	-9.626122e-09	-3.842661e+01	-6.271968e+02
5.000000e-08	-5.265086e-06	-9.624512e-09	-3.841523e+01	-6.271584e+02
6.000000e-08	-5.263228e-06	-9.621230e-09	-3.840168e+01	-6.270812e+02
7.000000e-08	-5.261006e-06	-9.611841e-09	-3.838546e+01	-6.269606e+02
8.000000e-08	-5.258371e-06	-9.608214e-09	-3.836624e+01	-6.267946e+02
9.000000e-08	-5.255144e-06	-9.617236e-09	-3.834269e+01	-6.265846e+02
1.000000e-07	-5.251047e-06	-9.603025e-09	-3.831280e+01	-6.263350e+02
1.100000e-07	-5.246317e-06	-9.564894e-09	-3.827829e+01	-6.260535e+02
1.200000e-07	-5.241595e-06	-9.594460e-09	-3.824383e+01	-6.257501e+02
1.300000e-07	-5.236873e-06	-9.612154e-09	-3.820938e+01	-6.254363e+02
1.400000e-07	-5.231630e-06	-9.591044e-09	-3.817113e+01	-6.251233e+02
1.500000e-07	-5.225797e-06	-9.545585e-09	-3.812857e+01	-6.248213e+02
1.600000e-07	-5.219772e-06	-9.586206e-09	-3.808461e+01	-6.245378e+02
1.700000e-07	-5.213459e-06	-9.587751e-09	-3.803855e+01	-6.242768e+02
1.800000e-07	-5.206553e-06	-9.554650e-09	-3.798816e+01	-6.240383e+02
1.900000e-07	-5.199266e-06	-9.543560e-09	-3.793499e+01	-6.238179e+02
2.000000e-07	-5.191815e-06	-9.566211e-09	-3.788063e+01	-6.236076e+02
2.100000e-07	-5.183964e-06	-9.551602e-09	-3.782335e+01	-6.233967e+02
2.200000e-07	-5.175653e-06	-9.544712e-09	-3.776271e+01	-6.231726e+02
2.300000e-07	-5.167137e-06	-9.567646e-09	-3.770058e+01	-6.229228e+02
2.400000e-07	-5.158343e-06	-9.553494e-09	-3.763641e+01	-6.226358e+02
2.500000e-07	-5.148994e-06	-9.529408e-09	-3.756820e+01	-6.223028e+02
2.600000e-07	-5.139259e-06	-9.528578e-09	-3.749717e+01	-6.219181e+02
2.700000e-07	-5.129274e-06	-9.542591e-09	-3.742432e+01	-6.214800e+02
2.800000e-07	-5.118775e-06	-9.484121e-09	-3.734771e+01	-6.209903e+02
2.900000e-07	-5.107816e-06	-9.480632e-09	-3.726775e+01	-6.204543e+02
3.000000e-07	-5.096549e-06	-9.491646e-09	-3.718555e+01	-6.198792e+02
3.100000e-07	-5.084969e-06	-9.488971e-09	-3.710106e+01	-6.192733e+02
3.200000e-07	-5.073080e-06	-9.450384e-09	-3.701431e+01	-6.186451e+02
3.300000e-07	-5.060901e-06	-9.469943e-09	-3.692545e+01	-6.180014e+02
3.400000e-07	-5.048345e-06	-9.445423e-09	-3.683384e+01	-6.173472e+02
3.500000e-07	-5.035473e-06	-9.432824e-09	-3.673992e+01	-6.166845e+02
3.600000e-07	-5.022348e-06	-9.432569e-09	-3.664416e+01	-6.160131e+02
3.700000e-07	-5.008816e-06	-9.415931e-09	-3.654543e+01	-6.153300e+02
3.800000e-07	-4.994745e-06	-9.384185e-09	-3.644276e+01	-6.146309e+02
3.900000e-07	-4.980281e-06	-9.398131e-09	-3.633723e+01	-6.139105e+02
4.000000e-07	-4.965468e-06	-9.392880e-09	-3.622915e+01	-6.131640e+02
4.100000e-07	-4.950262e-06	-9.354624e-09	-3.611821e+01	-6.123876e+02
4.200000e-07	-4.934731e-06	-9.350263e-09	-3.600488e+01	-6.115794e+02
4.300000e-07	-4.918908e-06	-9.341263e-09	-3.588944e+01	-6.107396e+02
4.400000e-07	-4.902804e-06	-9.322550e-09	-3.577194e+01	-6.098703e+02
4.500000e-07	-4.886399e-06	-9.304260e-09	-3.565224e+01	-6.089757e+02
4.600000e-07	-4.869608e-06	-9.297284e-09	-3.552974e+01	-6.080608e+02
4.700000e-07	-4.852370e-06	-9.268802e-09	-3.540396e+01	-6.071307e+02
4.800000e-07	-4.834764e-06	-9.268449e-09	-3.527550e+01	-6.061900e+02
4.900000e-07	-4.816819e-06	-9.249945e-09	-3.514458e+01	-6.052416e+02
5.000000e-07	-4.798517e-06	-9.228193e-09	-3.501104e+01	-6.042865e+02
5.100000e-07	-4.779830e-06	-9.207419e-09	-3.487470e+01	-6.033235e+02
5.200000e-07	-4.760789e-06	-9.199760e-09	-3.473577e+01	-6.023491e+02
5.300000e-07	-4.741379e-06	-9.179234e-09	-3.459415e+01	-6.013583e+02
5.400000e-07	-4.721499e-06	-9.167694e-09	-3.444910e+01	-6.003452e+02
5.500000e-07	-4.701087e-06	-9.149288e-09	-3.430017e+01	-5.993036e+02
5.600000e-07	-4.680260e-06	-9.129516e-09	-3.414821e+01	-5.982285e+02
5.700000e-07	-4.659149e-06	-9.116290e-09	-3.399418e+01	-5.971162e+02
5.800000e-07	-4.637735e-06	-9.096037e-09	-3.383794e+01	-5.959652e+02
5.900000e-07	-4.615989e-06	-9.069520e-09	-3.367927e+01	-5.947763e+02
6.000000e-07	-4.593935e-06	-9.047290e-09	-3.351837e+01	-5.935524e+02
6.100000e-07	-4.571623e-06	-9.034744e-09	-3.335557e+01	-5.922981e+02
6.200000e-07	-4.549017e-06	-9.014953e-09	-3.319063e+01	-5.910191e+02
6.300000e-07	-4.526011e-06	-8.996079e-09	-3.302278e+01	-5.897212e+02
6.400000e-07	-4.502561e-06	-8.971125e-09	-3.285168e+01	-5.884093e+02
6.500000e-07	-4.478728e-06	-8.954073e-09	-3.267779e+01	-5.870872e+02
6.600000e-07	-4.454600e-06	-8.933272e-09	-3.250174e+01	-5.857565e+02
6.700000e-07	-4.430190e-06	-8.908618e-09	-3.232364e+01	-5.844165e+02
6.800000e-07	-4.405495e-06	-8.878835e-09	-3.214347e+01	-5.830648e+02
6.900000e-07	-4.380506e-06	-8.857796e-09	-3.196114e+01	-5.816969e+02
7.000000e-07	-4.355218e-06	-8.838216e-09	-3.177663e+01	-5.803076e+02
7.100000e-07	-4.329685e-06	-8.817251e-09	-3.159034e+01	-5.788913e+02
7.200000e-07	-4.303848e-06	-8.791582e-09	-3.140183e+01	-5.774429e+02
7.300000e-07	-4.277618e-06	-8.765676e-09	-3.121045e+01	-5.759586e+02
7.400000e-07	-4.250999e-06	-8.741011e-09	-3.101623e+01	-5.744364e+02
7.500000e-07	-4.224063e-06	-8.716298e-09	-3.081970e+01	-5.728762e+02
7.600000e-07	-4.196888e-06	-8.689355e-09	-3.062142e+01	-5.712797e+02
7.700000e-07	-4.169465e-06	-8.661886e-09	-3.042134e+01	-5.696503e+02
7.800000e-07	-4.141766e-06	-8.640444e-09	-3.021924e+01	-5.679925e+02
7.900000e-07	-4.113713e-06	-8.618407e-09	-3.001456e+01	-5.663109e+02
8.000000e-07	-4.085354e-06	-8.591841e-09	-2.980765e+01	-5.646101e+02
8.100000e-07	-4.056769e-06	-8.559403e-09	-2.959908e+01	-5.628932e+02
8.200000e-07	-4.027903e-06	-8.530073e-09	-2.938847e+01	-5.611624e+02
8.300000e-07	-3.998697e-06	-8.500849e-09	-2.917538e+01	-5.594175e+02
8.400000e-07	-3.969136e-06	-8.472153e-09	-2.895969e+01	-5.576571e+02
8.500000e-07	-3.939258e-06	-8.441670e-09	-2.874170e+01	-5.558779e+02
8.600000e-07	-3.909081e-06	-8.415096e-09	-2.852152e+01	-5.540756e+02
8.700000e-07	-3.878612e-06	-8.389585e-09	-2.829921e+01	-5.522453e+02
8.800000e-07	-3.847867e-06	-8.360967e-09	-2.807489e+01	-5.503821e+02
8.900000e-07	-3.816832e-06	-8.327241e-09	-2.784845e+01	-5.484816e+02
9.000000e-07	-3.785448e-06	-8.292636e-09	-2.761947e+01	-5.465405e+02
9.100000e-07	-3.753712e-06	-8.260314e-09	-2.738792e+01	-5.445568e+02
9.200000e-07	-3.721627e-06	-8.227126e-09	-2.715381e+01	-5.425297e+02
9.300000e-07	-3.689232e-06	-8.192425e-09	-2.691745e+01	-5.404600e+02
9.400000e-07	-3.656625e-06	-8.157682e-09	-2.667955e+01	-5.383493e+02
9.500000e-07	-3.623764e-06	-8.128074e-09	-2.643978e+01	-5.362001e+02
9.600000e-07	-3.590663e-06	-8.099864e-09	-2.619827e+01	-5.340151e+02
9.700000e-07	-3.557380e-06	-8.070912e-09	-2.595543e+01	-5.317969e+02
9.800000e-07	-3.523888e-06	-8.038703e-09	-2.571107e+01	-5.295478e+02
9.900000e-07	-3.490229e-06	-8.005884e-09	-2.546548e+01	-5.272692e+02
1.000000e-06	-3.456404e-06	-7.971343e-09	-2.521869e+01	-5.249618e+02
1.010000e-06	-3.422376e-06	-7.932032e-09	-2.497041e+01	-5.226257e+02
1.020000e-06	-3.388081e-06	-7.888733e-09	-2.472019e+01	-5.202600e+02
1.030000e-06	-3.353491e-06	-7.846901e-09	-2.446781e+01	-5.178636e+02
1.040000e-06	-3.318650e-06	-7.809558e-09	-2.421361e+01	-5.154348e+02
1.050000e-06	-3.283596e-06	-7.775805e-09	-2.395784e+01	-5.129719e+02
1.060000e-06	-3.248323e-06	-7.741270e-09	-2.370048e+01	-5.104735e+02
1.070000e-06	-3.212812e-06	-7.705264e-09	-2.344139e+01	-5.079384e+02
1.080000e-06	-3.177072e-06	-7.668295e-09	-2.318062e+01	-5.053655e+02
1.090000e-06	-3.141089e-06	-7.628924e-09	-2.291808e+01	-5.027544e+02
1.100000e-06	-3.104852e-06	-7.584226e-09	-2.265368e+01	-5.001050e+02
1.110000e-06	-3.068376e-06	-7.535452e-09	-2.238755e+01	-4.974173e+02
1.120000e-06	-3.031682e-06	-7.489188e-09	-2.211982e+01	-4.946916e+02
1.130000e-06	-2.994799e-06	-7.446899e-09	-2.185071e+01	-4.919284e+02
1.140000e-06	-2.957768e-06	-7.406814e-09	-2.158053e+01	-4.891280e+02
1.150000e-06	-2.920563e-06	-7.366544e-09	-2.130907e+01	-4.862909e+02
1.160000e-06	-2.883115e-06	-7.327784e-09	-2.103585e+01	-4.834172e+02
1.170000e-06	-2.845428e-06	-7.289067e-09	-2.076087e+01	-4.805069e+02
1.180000e-06	-2.807538e-06	-7.247479e-09	-2.048442e+01	-4.775600e+02
1.190000e-06	-2.769451e-06	-7.198214e-09	-2.020652e+01	-4.745761e+02
1.200000e-06	-2.731157e-06	-7.146061e-09	-1.992713e+01	-4.715546e+02
1.210000e-06	-2.692642e-06	-7.095385e-09	-1.964611e+01	-4.684948e+02
1.220000e-06	-2.653908e-06	-7.045968e-09	-1.936350e+01	-4.653957e+02
1.230000e-06	-2.614970e-06	-6.998506e-09	-1.907940e+01	-4.622560e+02
1.240000e-06	-2.575827e-06	-6.954251e-09	-1.879380e+01	-4.590745e+02
1.250000e-06	-2.536471e-06	-6.910864e-09	-1.850665e+01	-4.558496e+02
1.260000e-06	-2.496912e-06	-6.864907e-09	-1.821802e+01	-4.525797e+02
1.270000e-06	-2.457187e-06	-6.815588e-09	-1.792818e+01	-4.492635e+02
1.280000e-06	-2.417297e-06	-6.762059e-09	-1.763713e+01	-4.458993e+02
1.290000e-06	-2.377254e-06	-6.707810e-09	-1.734497e+01	-4.424860e+02
1.300000e-06	-2.337065e-06	-6.653944e-09	-1.705174e+01	-4.390224e+02
1.310000e-06	-2.296737e-06	-6.599218e-09	-1.675750e+01	-4.355080e+02
1.320000e-06	-2.256230e-06	-6.542592e-09	-1.646195e+01	-4.319423e+02
1.330000e-06	-2.215502e-06	-6.486464e-09	-1.616479e+01	-4.283252e+02
1.340000e-06	-2.174606e-06	-6.429903e-09	-1.586640e+01	-4.246567e+02
1.350000e-06	-2.133583e-06	-6.370673e-09	-1.556709e+01	-4.209374e+02
1.360000e-06	-2.092449e-06	-6.309297e-09	-1.526697e+01	-4.171676e+02
1.370000e-06	-2.051206e-06	-6.248868e-09	-1.496605e+01	-4.133477e+02
1.380000e-06	-2.009821e-06	-6.190831e-09	-1.466410e+01	-4.094783e+02
1.390000e-06	-1.968318e-06	-6.133979e-09	-1.436128e+01	-4.055596e+02
1.400000e-06	-1.926709e-06	-6.075742e-09	-1.405769e+01	-4.015919e+02
1.410000e-06	-1.884952e-06	-6.014208e-09	-1.375302e+01	-3.975754e+02
1.420000e-06	-1.843010e-06	-5.949026e-09	-1.344701e+01	-3.935101e+02
1.430000e-06	-1.800938e-06	-5.880773e-09	-1.314004e+01	-3.893961e+02
1.440000e-06	-1.758726e-06	-5.812688e-09	-1.283206e+01	-3.852334e+02
1.450000e-06	-1.716322e-06	-5.746246e-09	-1.252267e+01	-3.810220e+02
1.460000e-06	-1.673773e-06	-5.681071e-09	-1.221222e+01	-3.767621e+02
1.470000e-06	-1.631082e-06	-5.618138e-09	-1.190074e+01	-3.724536e+02
1.480000e-06	-1.588244e-06	-5.555980e-09	-1.158818e+01	-3.680962e+02
1.490000e-06	-1.545265e-06	-5.490804e-09	-1.127459e+01	-3.636895e+02
1.500000e-06	-1.502173e-06	-5.420920e-09	-1.096019e+01	-3.592329e+02
1.510000e-06	-1.458991e-06	-5.347493e-09	-1.064512e+01	-3.547249e+02
1.520000e-06	-1.415719e-06	-5.271544e-09	-1.032940e+01	-3.501638e+02
1.530000e-06	-1.372393e-06	-5.194351e-09	-1.001328e+01	-3.455476e+02
1.540000e-06	-1.328998e-06	-5.121404e-09	-9.696662e+00	-3.408734e+02
1.550000e-06	-1.285518e-06	-5.051372e-09	-9.379422e+00	-3.361384e+02
1.560000e-06	-1.241971e-06	-4.983034e-09	-9.061693e+00	-3.313396e+02
1.570000e-06	-1.198354e-06	-4.914443e-09	-8.743454e+00	-3.264740e+02
1.580000e-06	-1.154647e-06	-4.841304e-09	-8.424562e+00	-3.215389e+02
1.590000e-06	-1.110834e-06	-4.764845e-09	-8.104887e+00	-3.165322e+02
1.600000e-06	-1.066919e-06	-4.683547e-09	-7.784474e+00	-3.114523e+02
1.610000e-06	-1.022910e-06	-4.597045e-09	-7.463376e+00	-3.062980e+02
1.620000e-06	-9.788327e-07	-4.511486e-09	-7.141780e+00	-3.010689e+02
1.630000e-06	-9.347206e-07	-4.429733e-09	-6.819928e+00	-2.957649e+02
1.640000e-06	-8.905966e-07	-4.350856e-09	-6.497989e+00	-2.903861e+02
1.650000e-06	-8.464394e-07	-4.272286e-09	-6.175809e+00	-2.849325e+02
1.660000e-06	-8.022120e-07	-4.190336e-09	-5.853116e+00	-2.794041e+02
1.670000e-06	-7.579415e-07	-4.104074e-09	-5.530109e+00	-2.738000e+02
1.680000e-06	-7.136316e-07	-4.014138e-09	-5.206814e+00	-2.681191e+02
1.690000e-06	-6.692809e-07	-3.922941e-09	-4.883221e+00	-2.623595e+02
1.700000e-06	-6.249120e-07	-3.832455e-09	-4.559496e+00	-2.565191e+02
1.710000e-06	-5.805127e-07	-3.745293e-09	-4.235549e+00	-2.505950e+02
1.720000e-06	-5.360167e-07	-3.658086e-09	-3.910896e+00	-2.445845e+02
1.730000e-06	-4.914426e-07	-3.566529e-09	-3.585673e+00	-2.384850e+02
1.740000e-06	-4.468564e-07	-3.471488e-09	-3.260363e+00	-2.322941e+02
1.750000e-06	-4.022695e-07	-3.375926e-09	-2.935047e+00	-2.260100e+02
1.760000e-06	-3.576788e-07	-3.278442e-09	-2.609703e+00	-2.196317e+02
1.770000e-06	-3.130657e-07	-3.178529e-09	-2.284197e+00	-2.131587e+02
1.780000e-06	-2.684283e-07	-3.078611e-09	-1.958512e+00	-2.065908e+02
1.790000e-06	-2.237955e-07	-2.979317e-09	-1.632862e+00	-1.999285e+02
1.800000e-06	-1.791567e-07	-2.878690e-09	-1.307167e+00	-1.931719e+02
1.810000e-06	-1.345004e-07	-2.774552e-09	-9.813447e-01	-1.863211e+02
1.820000e-06	-8.982145e-08	-2.667236e-09	-6.553571e-01	-1.793758e+02
1.830000e-06	-4.507975e-08	-2.557876e-09	-3.289118e-01	-1.723346e+02
1.840000e-06	-3.254357e-10	-2.449636e-09	-2.374450e-03	-1.651957e+02
1.850000e-06	4.442618e-08	-2.340927e-09	3.241432e-01	-1.579565e+02
1.860000e-06	8.920297e-08	-2.230847e-09	6.508446e-01	-1.506139e+02
1.870000e-06	1.339508e-07	-2.119463e-09	9.773344e-01	-1.431644e+02
1.880000e-06	1.786597e-07	-2.007070e-09	1.303540e+00	-1.356048e+02
1.890000e-06	2.233434e-07	-1.892142e-09	1.629563e+00	-1.279321e+02
1.900000e-06	2.679804e-07	-1.772343e-09	1.955244e+00	-1.201438e+02
1.910000e-06	3.126129e-07	-1.649300e-09	2.280893e+00	-1.122385e+02
1.920000e-06	3.572704e-07	-1.525353e-09	2.606724e+00	-1.042156e+02
1.930000e-06	4.018902e-07	-1.401775e-09	2.932280e+00	-9.607524e+01
1.940000e-06	4.464387e-07	-1.277715e-09	3.257316e+00	-8.781843e+01
1.950000e-06	4.909518e-07	-1.151336e-09	3.582093e+00	-7.944663e+01
1.960000e-06	5.354374e-07	-1.023164e-09	3.906669e+00	-7.096155e+01
1.970000e-06	5.798791e-07	-8.940710e-10	4.230926e+00	-6.236490e+01
1.980000e-06	6.243022e-07	-7.633617e-10	4.555047e+00	-5.365825e+01
1.990000e-06	6.687218e-07	-6.276879e-10	4.879142e+00	-4.484295e+01
2.000000e-06	7.131224e-07	-4.867591e-10	5.203099e+00	-3.592020e+01
2.010000e-06	7.574445e-07	-3.450263e-10	5.526483e+00	-2.689121e+01
2.020000e-06	8.016880e-07	-2.055921e-10	5.849293e+00	-1.775749e+01
2.030000e-06	8.459031e-07	-6.615958e-11	6.171896e+00	-8.521201e+00
2.040000e-06	8.900524e-07	7.511416e-11	6.494019e+00	8.145785e-01
2.050000e-06	9.341183e-07	2.170260e-10	6.815533e+00	1.024554e+01
2.060000e-06	9.781277e-07	3.600092e-10	7.136636e+00	1.976600e+01
2.070000e-06	1.022088e-06	5.079379e-10	7.457383e+00	2.936887e+01
2.080000e-06	1.065950e-06	6.620758e-10	7.777410e+00	3.904581e+01
2.090000e-06	1.109722e-06	8.190249e-10	8.096774e+00	4.878744e+01
2.100000e-06	1.153430e-06	9.730029e-10	8.415677e+00	5.858376e+01
2.110000e-06	1.197086e-06	1.122150e-09	8.734201e+00	6.842451e+01
2.120000e-06	1.240663e-06	1.266721e-09	9.052151e+00	7.829960e+01
2.130000e-06	1.284130e-06	1.410803e-09	9.369298e+00	8.819938e+01
2.140000e-06	1.327514e-06	1.563231e-09	9.685838e+00	9.811484e+01
2.150000e-06	1.370816e-06	1.719110e-09	1.000177e+01	1.080376e+02
2.160000e-06	1.414071e-06	1.873813e-09	1.031738e+01	1.179599e+02
2.170000e-06	1.457268e-06	2.026918e-09	1.063255e+01	1.278740e+02
2.180000e-06	1.500356e-06	2.180300e-09	1.094693e+01	1.377721e+02
2.190000e-06	1.543367e-06	2.331338e-09	1.126075e+01	1.476458e+02
2.200000e-06	1.586259e-06	2.476055e-09	1.157370e+01	1.574859e+02
2.210000e-06	1.628988e-06	2.619616e-09	1.188545e+01	1.672818e+02
2.220000e-06	1.671568e-06	2.768768e-09	1.219613e+01	1.770219e+02
2.230000e-06	1.713993e-06	2.922008e-09	1.250567e+01	1.866932e+02
2.240000e-06	1.756281e-06	3.073080e-09	1.281421e+01	1.962823e+02
2.250000e-06	1.798446e-06	3.220878e-09	1.312186e+01	2.057751e+02
2.260000e-06	1.840453e-06	3.365012e-09	1.342835e+01	2.151581e+02
2.270000e-06	1.882276e-06	3.503978e-09	1.373350e+01	2.244187e+02
2.280000e-06	1.923928e-06	3.637712e-09	1.403740e+01	2.335459e+02
2.290000e-06	1.965444e-06	3.766525e-09	1.434031e+01	2.425305e+02
2.300000e-06	2.006853e-06	3.893013e-09	1.464244e+01	2.513658e+02
2.310000e-06	2.048138e-06	4.024756e-09	1.494366e+01	2.600474e+02
2.320000e-06	2.089270e-06	4.158982e-09	1.524377e+01	2.685729e+02
2.330000e-06	2.130250e-06	4.285950e-09	1.554277e+01	2.769417e+02
2.340000e-06	2.171081e-06	4.406625e-09	1.584068e+01	2.851546e+02
2.350000e-06	2.211727e-06	4.526079e-09	1.613725e+01	2.932128e+02
2.360000e-06	2.252222e-06	4.643559e-09	1.643271e+01	3.011177e+02
2.370000e-06	2.292581e-06	4.756814e-09	1.672718e+01	3.088703e+02
2.380000e-06	2.332771e-06	4.866604e-09	1.702041e+01	3.164708e+02
2.390000e-06	2.372839e-06	4.975594e-09	1.731276e+01	3.239186e+02
2.400000e-06	2.412802e-06	5.086485e-09	1.760433e+01	3.312124e+02
2.410000e-06	2.452620e-06	5.195844e-09	1.789486e+01	3.383505e+02
2.420000e-06	2.492235e-06	5.299386e-09	1.818390e+01	3.453310e+02
2.430000e-06	2.531613e-06	5.399485e-09	1.847121e+01	3.521525e+02
2.440000e-06	2.570741e-06	5.498415e-09	1.875669e+01	3.588142e+02
2.450000e-06	2.609607e-06	5.595688e-09	1.904027e+01	3.653167e+02
2.460000e-06	2.648231e-06	5.689655e-09	1.932208e+01	3.716620e+02
2.470000e-06	2.686647e-06	5.779325e-09	1.960237e+01	3.778534e+02
2.480000e-06	2.724909e-06	5.867093e-09	1.988154e+01	3.838955e+02
2.490000e-06	2.763020e-06	5.956002e-09	2.015961e+01	3.897940e+02
2.500000e-06	2.800941e-06	6.045341e-09	2.043629e+01	3.955552e+02
2.510000e-06	2.838668e-06	6.130830e-09	2.071155e+01	4.011854e+02
2.520000e-06	2.876195e-06	6.213642e-09	2.098535e+01	4.066909e+02
2.530000e-06	2.913550e-06	6.296686e-09	2.125791e+01	4.120771e+02
2.540000e-06	2.950744e-06	6.376663e-09	2.152928e+01	4.173486e+02
2.550000e-06	2.987755e-06	6.452069e-09	2.179932e+01	4.225092e+02
2.560000e-06	3.024583e-06	6.526628e-09	2.206803e+01	4.275613e+02
2.570000e-06	3.061216e-06	6.601996e-09	2.233531e+01	4.325070e+02
2.580000e-06	3.097640e-06	6.676825e-09	2.260107e+01	4.373476e+02
2.590000e-06	3.133764e-06	6.747828e-09	2.286463e+01	4.420841e+02
2.600000e-06	3.169558e-06	6.815613e-09	2.312580e+01	4.467175e+02
2.610000e-06	3.205059e-06	6.883825e-09	2.338482e+01	4.512492e+02
2.620000e-06	3.240302e-06	6.951094e-09	2.364196e+01	4.556807e+02
2.630000e-06	3.275352e-06	7.017312e-09	2.389769e+01	4.600138e+02
2.640000e-06	3.310212e-06	7.083997e-09	2.415204e+01	4.642508e+02
2.650000e-06	3.344863e-06	7.150051e-09	2.440486e+01	4.683940e+02
2.660000e-06	3.379312e-06	7.212840e-09	2.465621e+01	4.724457e+02
2.670000e-06	3.413550e-06	7.271243e-09	2.490601e+01	4.764083e+02
2.680000e-06	3.447561e-06	7.324941e-09	2.515416e+01	4.802836e+02
2.690000e-06	3.481322e-06	7.376249e-09	2.540049e+01	4.840733e+02
2.700000e-06	3.514880e-06	7.429105e-09	2.564534e+01	4.877788e+02
2.710000e-06	3.548246e-06	7.483046e-09	2.588878e+01	4.914011e+02
2.720000e-06	3.581354e-06	7.536201e-09	2.613035e+01	4.949415e+02
2.730000e-06	3.614168e-06	7.587558e-09	2.636977e+01	4.984010e+02
2.740000e-06	3.646698e-06	7.636928e-09	2.660712e+01	5.017809e+02
2.750000e-06	3.678996e-06	7.684872e-09	2.684277e+01	5.050831e+02
2.760000e-06	3.711041e-06	7.731161e-09	2.707657e+01	5.083094e+02
2.770000e-06	3.742804e-06	7.776136e-09	2.730832e+01	5.114622e+02
2.780000e-06	3.774282e-06	7.818516e-09	2.753799e+01	5.145441e+02
2.790000e-06	3.805466e-06	7.859424e-09	2.776552e+01	5.175576e+02
2.800000e-06	3.836394e-06	7.900389e-09	2.799118e+01	5.205053e+02
2.810000e-06	3.867063e-06	7.939921e-09	2.821495e+01	5.233895e+02
2.820000e-06	3.897452e-06	7.979317e-09	2.843667e+01	5.262120e+02
2.830000e-06	3.927532e-06	8.020119e-09	2.865614e+01	5.289745e+02
2.840000e-06	3.957274e-06	8.062044e-09	2.887314e+01	5.316781e+02
2.850000e-06	3.986626e-06	8.104055e-09	2.908730e+01	5.343240e+02
2.860000e-06	4.015580e-06	8.143149e-09	2.929856e+01	5.369130e+02
2.870000e-06	4.044255e-06	8.178671e-09	2.950778e+01	5.394464e+02
2.880000e-06	4.072707e-06	8.210335e-09	2.971537e+01	5.419255e+02
2.890000e-06	4.100896e-06	8.239150e-09	2.992105e+01	5.443522e+02
2.900000e-06	4.128797e-06	8.268314e-09	3.012462e+01	5.467288e+02
