# Temperatura_=_20.0
# Concentracion g/m^3_=_10000.0
# C_Vs_to_Am_M_A/Vsm_=_65563218390.804596
# pendiente_HvsI_1/m_=_3716.3
# ordenada_HvsI_A/m_=_1297.0
# frecuencia_Hz_=_135360.14374955455

Tiempo_(s)	Campo_(V.s)	Magnetizacion_(V.s)	Campo_(kA/m)	Magnetizacion_(A/m)
0.000000e+00	-5.283906e-06	-9.613080e-09	-3.843480e+01	-6.271206e+02
1.000000e-08	-5.283879e-06	-9.619020e-09	-3.843460e+01	-6.271650e+02
2.000000e-08	-5.283591e-06	-9.617700e-09	-3.843251e+01	-6.271756e+02
3.000000e-08	-5.282829e-06	-9.609111e-09	-3.842696e+01	-6.271479e+02
4.000000e-08	-5.281565e-06	-9.600127e-09	-3.841777e+01	-6.270787e+02
5.000000e-08	-5.279974e-06	-9.594471e-09	-3.840620e+01	-6.269664e+02
6.000000e-08	-5.278116e-06	-9.593097e-09	-3.839268e+01	-6.268116e+02
7.000000e-08	-5.275925e-06	-9.599080e-09	-3.837675e+01	-6.266173e+02
8.000000e-08	-5.273313e-06	-9.597315e-09	-3.835774e+01	-6.263888e+02
9.000000e-08	-5.270138e-06	-9.571434e-09	-3.833465e+01	-6.261332e+02
1.000000e-07	-5.266206e-06	-9.564307e-09	-3.830605e+01	-6.258588e+02
1.100000e-07	-5.261607e-06	-9.619278e-09	-3.827260e+01	-6.255742e+02
1.200000e-07	-5.256846e-06	-9.595500e-09	-3.823797e+01	-6.252874e+02
1.300000e-07	-5.252100e-06	-9.550372e-09	-3.820345e+01	-6.250051e+02
1.400000e-07	-5.246925e-06	-9.537623e-09	-3.816580e+01	-6.247314e+02
1.500000e-07	-5.241170e-06	-9.599803e-09	-3.812394e+01	-6.244682e+02
1.600000e-07	-5.235138e-06	-9.562499e-09	-3.808007e+01	-6.242141e+02
1.700000e-07	-5.228842e-06	-9.512594e-09	-3.803427e+01	-6.239652e+02
1.800000e-07	-5.221991e-06	-9.536293e-09	-3.798443e+01	-6.237152e+02
1.900000e-07	-5.214663e-06	-9.584475e-09	-3.793113e+01	-6.234564e+02
2.000000e-07	-5.207141e-06	-9.543466e-09	-3.787641e+01	-6.231804e+02
2.100000e-07	-5.199311e-06	-9.535815e-09	-3.781946e+01	-6.228791e+02
2.200000e-07	-5.191008e-06	-9.561190e-09	-3.775907e+01	-6.225458e+02
2.300000e-07	-5.182490e-06	-9.539800e-09	-3.769711e+01	-6.221757e+02
2.400000e-07	-5.173745e-06	-9.495622e-09	-3.763349e+01	-6.217664e+02
2.500000e-07	-5.164467e-06	-9.515624e-09	-3.756601e+01	-6.213182e+02
2.600000e-07	-5.154734e-06	-9.525747e-09	-3.749521e+01	-6.208337e+02
2.700000e-07	-5.144714e-06	-9.451350e-09	-3.742233e+01	-6.203172e+02
2.800000e-07	-5.134257e-06	-9.469459e-09	-3.734626e+01	-6.197743e+02
2.900000e-07	-5.123332e-06	-9.475843e-09	-3.726679e+01	-6.192110e+02
3.000000e-07	-5.112107e-06	-9.465967e-09	-3.718514e+01	-6.186325e+02
3.100000e-07	-5.100585e-06	-9.431531e-09	-3.710133e+01	-6.180432e+02
3.200000e-07	-5.088748e-06	-9.452591e-09	-3.701523e+01	-6.174451e+02
3.300000e-07	-5.076625e-06	-9.412519e-09	-3.692705e+01	-6.168388e+02
3.400000e-07	-5.064110e-06	-9.415132e-09	-3.683602e+01	-6.162224e+02
3.500000e-07	-5.051211e-06	-9.406642e-09	-3.674219e+01	-6.155925e+02
3.600000e-07	-5.038059e-06	-9.391548e-09	-3.664652e+01	-6.149447e+02
3.700000e-07	-5.024511e-06	-9.372326e-09	-3.654798e+01	-6.142741e+02
3.800000e-07	-5.010462e-06	-9.389087e-09	-3.644578e+01	-6.135759e+02
3.900000e-07	-4.995984e-06	-9.371220e-09	-3.634047e+01	-6.128465e+02
4.000000e-07	-4.981154e-06	-9.354904e-09	-3.623260e+01	-6.120837e+02
4.100000e-07	-4.965926e-06	-9.342543e-09	-3.612184e+01	-6.112872e+02
4.200000e-07	-4.950371e-06	-9.315234e-09	-3.600868e+01	-6.104583e+02
4.300000e-07	-4.934535e-06	-9.310316e-09	-3.589350e+01	-6.095998e+02
4.400000e-07	-4.918424e-06	-9.289925e-09	-3.577631e+01	-6.087159e+02
4.500000e-07	-4.902013e-06	-9.262800e-09	-3.565693e+01	-6.078111e+02
4.600000e-07	-4.885233e-06	-9.250472e-09	-3.553488e+01	-6.068898e+02
4.700000e-07	-4.868008e-06	-9.262139e-09	-3.540958e+01	-6.059555e+02
4.800000e-07	-4.850382e-06	-9.231575e-09	-3.528137e+01	-6.050107e+02
4.900000e-07	-4.832422e-06	-9.223822e-09	-3.515073e+01	-6.040560e+02
5.000000e-07	-4.814084e-06	-9.211085e-09	-3.501734e+01	-6.030906e+02
5.100000e-07	-4.795359e-06	-9.186621e-09	-3.488114e+01	-6.021121e+02
5.200000e-07	-4.776279e-06	-9.165586e-09	-3.474235e+01	-6.011169e+02
5.300000e-07	-4.756832e-06	-9.160157e-09	-3.460089e+01	-6.001011e+02
5.400000e-07	-4.736947e-06	-9.129194e-09	-3.445625e+01	-5.990605e+02
5.500000e-07	-4.716611e-06	-9.115317e-09	-3.430833e+01	-5.979915e+02
5.600000e-07	-4.695820e-06	-9.113069e-09	-3.415710e+01	-5.968915e+02
5.700000e-07	-4.674653e-06	-9.094503e-09	-3.400313e+01	-5.957596e+02
5.800000e-07	-4.653173e-06	-9.070844e-09	-3.384688e+01	-5.945958e+02
5.900000e-07	-4.631388e-06	-9.052068e-09	-3.368842e+01	-5.934021e+02
6.000000e-07	-4.609296e-06	-9.034896e-09	-3.352773e+01	-5.921811e+02
6.100000e-07	-4.586934e-06	-9.016202e-09	-3.336507e+01	-5.909364e+02
6.200000e-07	-4.564271e-06	-8.993319e-09	-3.320022e+01	-5.896717e+02
6.300000e-07	-4.541241e-06	-8.962301e-09	-3.303270e+01	-5.883902e+02
6.400000e-07	-4.517777e-06	-8.944695e-09	-3.286203e+01	-5.870946e+02
6.500000e-07	-4.493879e-06	-8.929135e-09	-3.268820e+01	-5.857863e+02
6.600000e-07	-4.469661e-06	-8.907411e-09	-3.251203e+01	-5.844653e+02
6.700000e-07	-4.445192e-06	-8.884292e-09	-3.233404e+01	-5.831307e+02
6.800000e-07	-4.420436e-06	-8.868501e-09	-3.215397e+01	-5.817801e+02
6.900000e-07	-4.395355e-06	-8.851561e-09	-3.197154e+01	-5.804109e+02
7.000000e-07	-4.369992e-06	-8.830243e-09	-3.178705e+01	-5.790197e+02
7.100000e-07	-4.344386e-06	-8.799574e-09	-3.160079e+01	-5.776037e+02
7.200000e-07	-4.318526e-06	-8.771371e-09	-3.141268e+01	-5.761602e+02
7.300000e-07	-4.292349e-06	-8.751230e-09	-3.122227e+01	-5.746878e+02
7.400000e-07	-4.265757e-06	-8.729078e-09	-3.102885e+01	-5.731859e+02
7.500000e-07	-4.238797e-06	-8.700483e-09	-3.083274e+01	-5.716550e+02
7.600000e-07	-4.211576e-06	-8.675103e-09	-3.063474e+01	-5.700966e+02
7.700000e-07	-4.184089e-06	-8.655961e-09	-3.043480e+01	-5.685127e+02
7.800000e-07	-4.156293e-06	-8.636626e-09	-3.023262e+01	-5.669059e+02
7.900000e-07	-4.128192e-06	-8.611231e-09	-3.002821e+01	-5.652783e+02
8.000000e-07	-4.099845e-06	-8.579997e-09	-2.982201e+01	-5.636318e+02
8.100000e-07	-4.071215e-06	-8.549476e-09	-2.961376e+01	-5.619675e+02
8.200000e-07	-4.042273e-06	-8.523145e-09	-2.940324e+01	-5.602853e+02
8.300000e-07	-4.013031e-06	-8.494413e-09	-2.919053e+01	-5.585841e+02
8.400000e-07	-3.983443e-06	-8.463420e-09	-2.897531e+01	-5.568618e+02
8.500000e-07	-3.953492e-06	-8.436565e-09	-2.875745e+01	-5.551153e+02
8.600000e-07	-3.923212e-06	-8.415304e-09	-2.853720e+01	-5.533409e+02
8.700000e-07	-3.892627e-06	-8.391790e-09	-2.831473e+01	-5.515347e+02
8.800000e-07	-3.861763e-06	-8.362234e-09	-2.809022e+01	-5.496929e+02
8.900000e-07	-3.830664e-06	-8.327670e-09	-2.786401e+01	-5.478120e+02
9.000000e-07	-3.799239e-06	-8.294175e-09	-2.763543e+01	-5.458894e+02
9.100000e-07	-3.767407e-06	-8.260806e-09	-2.740388e+01	-5.439233e+02
9.200000e-07	-3.735276e-06	-8.224549e-09	-2.717016e+01	-5.419131e+02
9.300000e-07	-3.702845e-06	-8.187898e-09	-2.693426e+01	-5.398590e+02
9.400000e-07	-3.670118e-06	-8.155490e-09	-2.669620e+01	-5.377622e+02
9.500000e-07	-3.637206e-06	-8.127637e-09	-2.645680e+01	-5.356246e+02
9.600000e-07	-3.604090e-06	-8.097516e-09	-2.621593e+01	-5.334486e+02
9.700000e-07	-3.570745e-06	-8.064762e-09	-2.597338e+01	-5.312366e+02
9.800000e-07	-3.537209e-06	-8.031200e-09	-2.572943e+01	-5.289911e+02
9.900000e-07	-3.503487e-06	-7.999209e-09	-2.548414e+01	-5.267140e+02
1.000000e-06	-3.469550e-06	-7.964046e-09	-2.523729e+01	-5.244068e+02
1.010000e-06	-3.435403e-06	-7.923460e-09	-2.498890e+01	-5.220703e+02
1.020000e-06	-3.401026e-06	-7.881512e-09	-2.473885e+01	-5.197046e+02
1.030000e-06	-3.366388e-06	-7.843410e-09	-2.448689e+01	-5.173089e+02
1.040000e-06	-3.331514e-06	-7.808145e-09	-2.423322e+01	-5.148821e+02
1.050000e-06	-3.296406e-06	-7.772042e-09	-2.397785e+01	-5.124223e+02
1.060000e-06	-3.261095e-06	-7.734677e-09	-2.372100e+01	-5.099276e+02
1.070000e-06	-3.225576e-06	-7.698152e-09	-2.346264e+01	-5.073959e+02
1.080000e-06	-3.189797e-06	-7.662215e-09	-2.320238e+01	-5.048254e+02
1.090000e-06	-3.153723e-06	-7.623361e-09	-2.293998e+01	-5.022143e+02
1.100000e-06	-3.117359e-06	-7.577562e-09	-2.267547e+01	-4.995616e+02
1.110000e-06	-3.080738e-06	-7.528867e-09	-2.240909e+01	-4.968667e+02
1.120000e-06	-3.043912e-06	-7.483982e-09	-2.214122e+01	-4.941295e+02
1.130000e-06	-3.006932e-06	-7.441385e-09	-2.187223e+01	-4.913506e+02
1.140000e-06	-2.969787e-06	-7.398922e-09	-2.160204e+01	-4.885311e+02
1.150000e-06	-2.932432e-06	-7.357093e-09	-2.133033e+01	-4.856723e+02
1.160000e-06	-2.894893e-06	-7.318449e-09	-2.105727e+01	-4.827757e+02
1.170000e-06	-2.857146e-06	-7.279852e-09	-2.078270e+01	-4.798429e+02
1.180000e-06	-2.819137e-06	-7.236139e-09	-2.050623e+01	-4.768750e+02
1.190000e-06	-2.780919e-06	-7.187798e-09	-2.022823e+01	-4.738732e+02
1.200000e-06	-2.742516e-06	-7.138273e-09	-1.994888e+01	-4.708378e+02
1.210000e-06	-2.703925e-06	-7.088009e-09	-1.966818e+01	-4.677688e+02
1.220000e-06	-2.665151e-06	-7.035668e-09	-1.938614e+01	-4.646654e+02
1.230000e-06	-2.626165e-06	-6.985239e-09	-1.910256e+01	-4.615264e+02
1.240000e-06	-2.586938e-06	-6.939657e-09	-1.881723e+01	-4.583502e+02
1.250000e-06	-2.547473e-06	-6.895170e-09	-1.853016e+01	-4.551347e+02
1.260000e-06	-2.507794e-06	-6.845550e-09	-1.824154e+01	-4.518778e+02
1.270000e-06	-2.467942e-06	-6.792295e-09	-1.795165e+01	-4.485771e+02
1.280000e-06	-2.427942e-06	-6.740604e-09	-1.766070e+01	-4.452308e+02
1.290000e-06	-2.387799e-06	-6.691448e-09	-1.736870e+01	-4.418369e+02
1.300000e-06	-2.347522e-06	-6.640508e-09	-1.707573e+01	-4.383940e+02
1.310000e-06	-2.307105e-06	-6.586590e-09	-1.678174e+01	-4.349012e+02
1.320000e-06	-2.266495e-06	-6.530109e-09	-1.648634e+01	-4.313578e+02
1.330000e-06	-2.225699e-06	-6.476149e-09	-1.618960e+01	-4.277637e+02
1.340000e-06	-2.184757e-06	-6.421711e-09	-1.589178e+01	-4.241188e+02
1.350000e-06	-2.143655e-06	-6.361961e-09	-1.559281e+01	-4.204235e+02
1.360000e-06	-2.102407e-06	-6.300111e-09	-1.529277e+01	-4.166783e+02
1.370000e-06	-2.061051e-06	-6.239085e-09	-1.499195e+01	-4.128836e+02
1.380000e-06	-2.019550e-06	-6.181098e-09	-1.469008e+01	-4.090398e+02
1.390000e-06	-1.977903e-06	-6.122145e-09	-1.438714e+01	-4.051475e+02
1.400000e-06	-1.936135e-06	-6.062209e-09	-1.408333e+01	-4.012069e+02
1.410000e-06	-1.894218e-06	-6.002076e-09	-1.377842e+01	-3.972183e+02
1.420000e-06	-1.852172e-06	-5.942284e-09	-1.347258e+01	-3.931816e+02
1.430000e-06	-1.810000e-06	-5.878078e-09	-1.316582e+01	-3.890969e+02
1.440000e-06	-1.767659e-06	-5.810855e-09	-1.285784e+01	-3.849641e+02
1.450000e-06	-1.725129e-06	-5.743738e-09	-1.254848e+01	-3.807830e+02
1.460000e-06	-1.682411e-06	-5.678510e-09	-1.223775e+01	-3.765532e+02
1.470000e-06	-1.639524e-06	-5.614301e-09	-1.192580e+01	-3.722743e+02
1.480000e-06	-1.596506e-06	-5.548580e-09	-1.161289e+01	-3.679455e+02
1.490000e-06	-1.553401e-06	-5.482150e-09	-1.129934e+01	-3.635660e+02
1.500000e-06	-1.510210e-06	-5.416747e-09	-1.098518e+01	-3.591345e+02
1.510000e-06	-1.466914e-06	-5.348565e-09	-1.067024e+01	-3.546497e+02
1.520000e-06	-1.423564e-06	-5.274270e-09	-1.035491e+01	-3.501099e+02
1.530000e-06	-1.380160e-06	-5.197323e-09	-1.003920e+01	-3.455134e+02
1.540000e-06	-1.336677e-06	-5.122106e-09	-9.722908e+00	-3.408582e+02
1.550000e-06	-1.293106e-06	-5.050763e-09	-9.405974e+00	-3.361426e+02
1.560000e-06	-1.249451e-06	-4.978370e-09	-9.088426e+00	-3.313649e+02
1.570000e-06	-1.205729e-06	-4.903699e-09	-8.770396e+00	-3.265233e+02
1.580000e-06	-1.161894e-06	-4.828110e-09	-8.451543e+00	-3.216167e+02
1.590000e-06	-1.117946e-06	-4.753897e-09	-8.131867e+00	-3.166439e+02
1.600000e-06	-1.073917e-06	-4.679335e-09	-7.811604e+00	-3.116043e+02
1.610000e-06	-1.029816e-06	-4.601585e-09	-7.490816e+00	-3.064970e+02
1.620000e-06	-9.856565e-07	-4.522454e-09	-7.169603e+00	-3.013216e+02
1.630000e-06	-9.414376e-07	-4.442864e-09	-6.847958e+00	-2.960773e+02
1.640000e-06	-8.971799e-07	-4.361806e-09	-6.526030e+00	-2.907632e+02
1.650000e-06	-8.528696e-07	-4.278634e-09	-6.203719e+00	-2.853780e+02
1.660000e-06	-8.085132e-07	-4.194299e-09	-5.881074e+00	-2.799200e+02
1.670000e-06	-7.641369e-07	-4.109488e-09	-5.558284e+00	-2.743870e+02
1.680000e-06	-7.197108e-07	-4.023689e-09	-5.235131e+00	-2.687762e+02
1.690000e-06	-6.752063e-07	-3.936225e-09	-4.911408e+00	-2.630846e+02
1.700000e-06	-6.306359e-07	-3.847934e-09	-4.587206e+00	-2.573087e+02
1.710000e-06	-5.860353e-07	-3.761647e-09	-4.262784e+00	-2.514452e+02
1.720000e-06	-5.413751e-07	-3.673083e-09	-3.937928e+00	-2.454907e+02
1.730000e-06	-4.966620e-07	-3.579130e-09	-3.612688e+00	-2.394424e+02
1.740000e-06	-4.519245e-07	-3.482754e-09	-3.287270e+00	-2.332977e+02
1.750000e-06	-4.071635e-07	-3.386467e-09	-2.961681e+00	-2.270549e+02
1.760000e-06	-3.624170e-07	-3.292305e-09	-2.636198e+00	-2.207126e+02
1.770000e-06	-3.176856e-07	-3.197244e-09	-2.310825e+00	-2.142705e+02
1.780000e-06	-2.729274e-07	-3.100364e-09	-1.985257e+00	-2.077284e+02
1.790000e-06	-2.281537e-07	-2.999492e-09	-1.659576e+00	-2.010868e+02
1.800000e-06	-1.833996e-07	-2.896919e-09	-1.334037e+00	-1.943461e+02
1.810000e-06	-1.386315e-07	-2.792882e-09	-1.008397e+00	-1.875068e+02
1.820000e-06	-9.382917e-08	-2.685980e-09	-6.825074e-01	-1.805693e+02
1.830000e-06	-4.899037e-08	-2.579578e-09	-3.563529e-01	-1.735334e+02
1.840000e-06	-4.117793e-09	-2.474339e-09	-2.995257e-02	-1.663985e+02
1.850000e-06	4.075679e-08	-2.367911e-09	2.964623e-01	-1.591638e+02
1.860000e-06	8.563054e-08	-2.255316e-09	6.228712e-01	-1.518275e+02
1.870000e-06	1.304991e-07	-2.139828e-09	9.492422e-01	-1.443879e+02
1.880000e-06	1.753551e-07	-2.024145e-09	1.275522e+00	-1.368429e+02
1.890000e-06	2.201869e-07	-1.907166e-09	1.601626e+00	-1.291903e+02
1.900000e-06	2.649939e-07	-1.788710e-09	1.927549e+00	-1.214281e+02
1.910000e-06	3.097847e-07	-1.669673e-09	2.253354e+00	-1.135546e+02
1.920000e-06	3.545492e-07	-1.553950e-09	2.578969e+00	-1.055684e+02
1.930000e-06	3.992512e-07	-1.439272e-09	2.904128e+00	-9.746863e+01
1.940000e-06	4.439130e-07	-1.319247e-09	3.228995e+00	-8.925492e+01
1.950000e-06	4.885450e-07	-1.190887e-09	3.553646e+00	-8.092739e+01
1.960000e-06	5.331324e-07	-1.056405e-09	3.877972e+00	-7.248664e+01
1.970000e-06	5.777132e-07	-9.205148e-10	4.202249e+00	-6.393372e+01
1.980000e-06	6.222651e-07	-7.851611e-10	4.526317e+00	-5.527007e+01
1.990000e-06	6.667676e-07	-6.514409e-10	4.850025e+00	-4.649751e+01
2.000000e-06	7.112588e-07	-5.179717e-10	5.173652e+00	-3.761824e+01
2.010000e-06	7.557296e-07	-3.850438e-10	5.497130e+00	-2.863485e+01
2.020000e-06	8.001339e-07	-2.515002e-10	5.820123e+00	-1.955037e+01
2.030000e-06	8.444820e-07	-1.120118e-10	6.142709e+00	-1.036834e+01
2.040000e-06	8.887920e-07	3.215175e-11	6.465017e+00	-1.092873e+00
2.050000e-06	9.330411e-07	1.781950e-10	6.786882e+00	8.271295e+00
2.060000e-06	9.772006e-07	3.247549e-10	7.108095e+00	1.771877e+01
2.070000e-06	1.021279e-06	4.714912e-10	7.428717e+00	2.724349e+01
2.080000e-06	1.065277e-06	6.171462e-10	7.748758e+00	3.683876e+01
2.090000e-06	1.109178e-06	7.611446e-10	8.068087e+00	4.649731e+01
2.100000e-06	1.153017e-06	9.059444e-10	8.386976e+00	5.621135e+01
2.110000e-06	1.196791e-06	1.052688e-09	8.705380e+00	6.597273e+01
2.120000e-06	1.240468e-06	1.199489e-09	9.023085e+00	7.577298e+01
2.130000e-06	1.284070e-06	1.349239e-09	9.340245e+00	8.560343e+01
2.140000e-06	1.327596e-06	1.505475e-09	9.656851e+00	9.545529e+01
2.150000e-06	1.371037e-06	1.663962e-09	9.972834e+00	1.053197e+02
2.160000e-06	1.414423e-06	1.821714e-09	1.028842e+01	1.151876e+02
2.170000e-06	1.457747e-06	1.973201e-09	1.060356e+01	1.250500e+02
2.180000e-06	1.500979e-06	2.119809e-09	1.091803e+01	1.348977e+02
2.190000e-06	1.544101e-06	2.260561e-09	1.123169e+01	1.447215e+02
2.200000e-06	1.587112e-06	2.400341e-09	1.154455e+01	1.545119e+02
2.210000e-06	1.630030e-06	2.544429e-09	1.185674e+01	1.642592e+02
2.220000e-06	1.672801e-06	2.694722e-09	1.216785e+01	1.739538e+02
2.230000e-06	1.715390e-06	2.850028e-09	1.247764e+01	1.835857e+02
2.240000e-06	1.757842e-06	3.004455e-09	1.278643e+01	1.931450e+02
2.250000e-06	1.800158e-06	3.156811e-09	1.309424e+01	2.026220e+02
2.260000e-06	1.842295e-06	3.301633e-09	1.340074e+01	2.120070e+02
2.270000e-06	1.884248e-06	3.437528e-09	1.370590e+01	2.212907e+02
2.280000e-06	1.926042e-06	3.566452e-09	1.400990e+01	2.304641e+02
2.290000e-06	1.967692e-06	3.693860e-09	1.431287e+01	2.395186e+02
2.300000e-06	2.009216e-06	3.824181e-09	1.461491e+01	2.484463e+02
2.310000e-06	2.050606e-06	3.959079e-09	1.491598e+01	2.572398e+02
2.320000e-06	2.091849e-06	4.096356e-09	1.521598e+01	2.658923e+02
2.330000e-06	2.132966e-06	4.232982e-09	1.551506e+01	2.743974e+02
2.340000e-06	2.173917e-06	4.364073e-09	1.581293e+01	2.827494e+02
2.350000e-06	2.214701e-06	4.488017e-09	1.610960e+01	2.909434e+02
2.360000e-06	2.255360e-06	4.603201e-09	1.640535e+01	2.989747e+02
2.370000e-06	2.295874e-06	4.712294e-09	1.670005e+01	3.068398e+02
2.380000e-06	2.336229e-06	4.822548e-09	1.699358e+01	3.145355e+02
2.390000e-06	2.376448e-06	4.933753e-09	1.728613e+01	3.220597e+02
2.400000e-06	2.416543e-06	5.044827e-09	1.757778e+01	3.294113e+02
2.410000e-06	2.456511e-06	5.153160e-09	1.786851e+01	3.365900e+02
2.420000e-06	2.496299e-06	5.258865e-09	1.815792e+01	3.435969e+02
2.430000e-06	2.535860e-06	5.363980e-09	1.844568e+01	3.504339e+02
2.440000e-06	2.575196e-06	5.467308e-09	1.873181e+01	3.571043e+02
2.450000e-06	2.614249e-06	5.566809e-09	1.901588e+01	3.636121e+02
2.460000e-06	2.653027e-06	5.661965e-09	1.929795e+01	3.699623e+02
2.470000e-06	2.691614e-06	5.753002e-09	1.957863e+01	3.761606e+02
2.480000e-06	2.730039e-06	5.840868e-09	1.985813e+01	3.822131e+02
2.490000e-06	2.768283e-06	5.926340e-09	2.013631e+01	3.881260e+02
2.500000e-06	2.806329e-06	6.009454e-09	2.041306e+01	3.939054e+02
2.510000e-06	2.844180e-06	6.093347e-09	2.068838e+01	3.995572e+02
2.520000e-06	2.881859e-06	6.180006e-09	2.096246e+01	4.050869e+02
2.530000e-06	2.919367e-06	6.266534e-09	2.123529e+01	4.104991e+02
2.540000e-06	2.956670e-06	6.349243e-09	2.150663e+01	4.157981e+02
2.550000e-06	2.993769e-06	6.426763e-09	2.177648e+01	4.209873e+02
2.560000e-06	3.030677e-06	6.503787e-09	2.204496e+01	4.260696e+02
2.570000e-06	3.067407e-06	6.580184e-09	2.231212e+01	4.310471e+02
2.580000e-06	3.103940e-06	6.650700e-09	2.257786e+01	4.359219e+02
2.590000e-06	3.140227e-06	6.717882e-09	2.284181e+01	4.406955e+02
2.600000e-06	3.176221e-06	6.787088e-09	2.310363e+01	4.453694e+02
2.610000e-06	3.211887e-06	6.858159e-09	2.336306e+01	4.499451e+02
2.620000e-06	3.247267e-06	6.927048e-09	2.362042e+01	4.544238e+02
2.630000e-06	3.282451e-06	6.993290e-09	2.387634e+01	4.588072e+02
2.640000e-06	3.317438e-06	7.061139e-09	2.413084e+01	4.630969e+02
2.650000e-06	3.352234e-06	7.130905e-09	2.438394e+01	4.672946e+02
2.660000e-06	3.386821e-06	7.194825e-09	2.463553e+01	4.714019e+02
2.670000e-06	3.421161e-06	7.250474e-09	2.488531e+01	4.754207e+02
2.680000e-06	3.455258e-06	7.302097e-09	2.513333e+01	4.793525e+02
2.690000e-06	3.489137e-06	7.355407e-09	2.537976e+01	4.831990e+02
2.700000e-06	3.522822e-06	7.411407e-09	2.562479e+01	4.869616e+02
2.710000e-06	3.556307e-06	7.465488e-09	2.586836e+01	4.906417e+02
2.720000e-06	3.589560e-06	7.516767e-09	2.611023e+01	4.942405e+02
2.730000e-06	3.622506e-06	7.568385e-09	2.634988e+01	4.977591e+02
2.740000e-06	3.655169e-06	7.621317e-09	2.658747e+01	5.011985e+02
2.750000e-06	3.687630e-06	7.671518e-09	2.682359e+01	5.045598e+02
2.760000e-06	3.719842e-06	7.718482e-09	2.705790e+01	5.078440e+02
2.770000e-06	3.751750e-06	7.765244e-09	2.729000e+01	5.110521e+02
2.780000e-06	3.783354e-06	7.812073e-09	2.751988e+01	5.141854e+02
2.790000e-06	3.814662e-06	7.856340e-09	2.774761e+01	5.172451e+02
2.800000e-06	3.845714e-06	7.896544e-09	2.797348e+01	5.202327e+02
2.810000e-06	3.876537e-06	7.934999e-09	2.819768e+01	5.231499e+02
2.820000e-06	3.907095e-06	7.974829e-09	2.841996e+01	5.259987e+02
2.830000e-06	3.937343e-06	8.014873e-09	2.863999e+01	5.287813e+02
2.840000e-06	3.967229e-06	8.052926e-09	2.885737e+01	5.315000e+02
2.850000e-06	3.996708e-06	8.091105e-09	2.907180e+01	5.341574e+02
2.860000e-06	4.025802e-06	8.130448e-09	2.928343e+01	5.367563e+02
2.870000e-06	4.054586e-06	8.168309e-09	2.949281e+01	5.392996e+02
2.880000e-06	4.083130e-06	8.202993e-09	2.970043e+01	5.417902e+02
2.890000e-06	4.111413e-06	8.233944e-09	2.990616e+01	5.442310e+02
2.900000e-06	4.139394e-06	8.264011e-09	3.010969e+01	5.466248e+02
