# Temperatura_=_20.0
# Concentracion g/m^3_=_10000.0
# C_Vs_to_Am_M_A/Vsm_=_65563218390.804596
# pendiente_HvsI_1/m_=_3716.3
# ordenada_HvsI_A/m_=_1297.0
# frecuencia_Hz_=_135355.2773046262

Tiempo_(s)	Campo_(V.s)	Magnetizacion_(V.s)	Campo_(kA/m)	Magnetizacion_(A/m)
0.000000e+00	-5.274590e-06	-9.621884e-09	-3.843920e+01	-6.273281e+02
1.000000e-08	-5.274685e-06	-9.626220e-09	-3.843989e+01	-6.273435e+02
2.000000e-08	-5.274482e-06	-9.626895e-09	-3.843841e+01	-6.273491e+02
3.000000e-08	-5.273775e-06	-9.621765e-09	-3.843326e+01	-6.273431e+02
4.000000e-08	-5.272610e-06	-9.614612e-09	-3.842477e+01	-6.273222e+02
5.000000e-08	-5.271131e-06	-9.607032e-09	-3.841399e+01	-6.272829e+02
6.000000e-08	-5.269347e-06	-9.602929e-09	-3.840099e+01	-6.272209e+02
7.000000e-08	-5.267231e-06	-9.603848e-09	-3.838556e+01	-6.271325e+02
8.000000e-08	-5.264746e-06	-9.604443e-09	-3.836746e+01	-6.270144e+02
9.000000e-08	-5.261785e-06	-9.611776e-09	-3.834588e+01	-6.268647e+02
1.000000e-07	-5.258071e-06	-9.617521e-09	-3.831881e+01	-6.266828e+02
1.100000e-07	-5.253546e-06	-9.594508e-09	-3.828584e+01	-6.264700e+02
1.200000e-07	-5.248779e-06	-9.576538e-09	-3.825109e+01	-6.262289e+02
1.300000e-07	-5.244078e-06	-9.592162e-09	-3.821683e+01	-6.259635e+02
1.400000e-07	-5.239053e-06	-9.587052e-09	-3.818021e+01	-6.256791e+02
1.500000e-07	-5.233392e-06	-9.565701e-09	-3.813896e+01	-6.253809e+02
1.600000e-07	-5.227353e-06	-9.550671e-09	-3.809495e+01	-6.250741e+02
1.700000e-07	-5.221146e-06	-9.578813e-09	-3.804972e+01	-6.247633e+02
1.800000e-07	-5.214459e-06	-9.575402e-09	-3.800098e+01	-6.244516e+02
1.900000e-07	-5.207291e-06	-9.542250e-09	-3.794874e+01	-6.241402e+02
2.000000e-07	-5.199918e-06	-9.541833e-09	-3.789502e+01	-6.238289e+02
2.100000e-07	-5.192215e-06	-9.559791e-09	-3.783888e+01	-6.235155e+02
2.200000e-07	-5.184004e-06	-9.553054e-09	-3.777904e+01	-6.231961e+02
2.300000e-07	-5.175541e-06	-9.537032e-09	-3.771736e+01	-6.228659e+02
2.400000e-07	-5.166893e-06	-9.544745e-09	-3.765434e+01	-6.225195e+02
2.500000e-07	-5.157765e-06	-9.542493e-09	-3.758782e+01	-6.221515e+02
2.600000e-07	-5.148148e-06	-9.515702e-09	-3.751773e+01	-6.217572e+02
2.700000e-07	-5.138275e-06	-9.510810e-09	-3.744578e+01	-6.213330e+02
2.800000e-07	-5.127981e-06	-9.510322e-09	-3.737076e+01	-6.208766e+02
2.900000e-07	-5.117144e-06	-9.473638e-09	-3.729179e+01	-6.203875e+02
3.000000e-07	-5.106012e-06	-9.465201e-09	-3.721066e+01	-6.198664e+02
3.100000e-07	-5.094638e-06	-9.477426e-09	-3.712777e+01	-6.193155e+02
3.200000e-07	-5.082908e-06	-9.466718e-09	-3.704229e+01	-6.187376e+02
3.300000e-07	-5.070862e-06	-9.443413e-09	-3.695450e+01	-6.181361e+02
3.400000e-07	-5.058492e-06	-9.451362e-09	-3.686435e+01	-6.175140e+02
3.500000e-07	-5.045728e-06	-9.436604e-09	-3.677133e+01	-6.168739e+02
3.600000e-07	-5.032696e-06	-9.421706e-09	-3.667636e+01	-6.162173e+02
3.700000e-07	-5.019307e-06	-9.414635e-09	-3.657879e+01	-6.155449e+02
3.800000e-07	-5.005403e-06	-9.392749e-09	-3.647746e+01	-6.148560e+02
3.900000e-07	-4.991069e-06	-9.375778e-09	-3.637300e+01	-6.141491e+02
4.000000e-07	-4.976393e-06	-9.384919e-09	-3.626605e+01	-6.134221e+02
4.100000e-07	-4.961340e-06	-9.370558e-09	-3.615635e+01	-6.126725e+02
4.200000e-07	-4.945930e-06	-9.348052e-09	-3.604404e+01	-6.118977e+02
4.300000e-07	-4.930207e-06	-9.343098e-09	-3.592946e+01	-6.110959e+02
4.400000e-07	-4.914229e-06	-9.324040e-09	-3.581302e+01	-6.102656e+02
4.500000e-07	-4.897957e-06	-9.304228e-09	-3.569444e+01	-6.094064e+02
4.600000e-07	-4.881279e-06	-9.295389e-09	-3.557289e+01	-6.085185e+02
4.700000e-07	-4.864145e-06	-9.272848e-09	-3.544803e+01	-6.076030e+02
4.800000e-07	-4.846602e-06	-9.251812e-09	-3.532019e+01	-6.066613e+02
4.900000e-07	-4.828742e-06	-9.256065e-09	-3.519003e+01	-6.056951e+02
5.000000e-07	-4.810552e-06	-9.236305e-09	-3.505747e+01	-6.047063e+02
5.100000e-07	-4.791986e-06	-9.211121e-09	-3.492216e+01	-6.036961e+02
5.200000e-07	-4.773051e-06	-9.201246e-09	-3.478417e+01	-6.026655e+02
5.300000e-07	-4.753766e-06	-9.187773e-09	-3.464363e+01	-6.016150e+02
5.400000e-07	-4.734081e-06	-9.166236e-09	-3.450017e+01	-6.005444e+02
5.500000e-07	-4.713896e-06	-9.155375e-09	-3.435307e+01	-5.994532e+02
5.600000e-07	-4.693228e-06	-9.133082e-09	-3.420245e+01	-5.983407e+02
5.700000e-07	-4.672191e-06	-9.113410e-09	-3.404914e+01	-5.972062e+02
5.800000e-07	-4.650852e-06	-9.103168e-09	-3.389363e+01	-5.960492e+02
5.900000e-07	-4.629235e-06	-9.081258e-09	-3.373609e+01	-5.948695e+02
6.000000e-07	-4.607307e-06	-9.052515e-09	-3.357630e+01	-5.936675e+02
6.100000e-07	-4.585075e-06	-9.033755e-09	-3.341427e+01	-5.924438e+02
6.200000e-07	-4.562569e-06	-9.018726e-09	-3.325026e+01	-5.911996e+02
6.300000e-07	-4.539687e-06	-8.999383e-09	-3.308351e+01	-5.899360e+02
6.400000e-07	-4.516348e-06	-8.980174e-09	-3.291342e+01	-5.886541e+02
6.500000e-07	-4.492639e-06	-8.960113e-09	-3.274063e+01	-5.873548e+02
6.600000e-07	-4.468617e-06	-8.942868e-09	-3.256557e+01	-5.860383e+02
6.700000e-07	-4.444293e-06	-8.922217e-09	-3.238831e+01	-5.847045e+02
6.800000e-07	-4.419657e-06	-8.896934e-09	-3.220877e+01	-5.833523e+02
6.900000e-07	-4.394704e-06	-8.871200e-09	-3.202692e+01	-5.819802e+02
7.000000e-07	-4.369458e-06	-8.851288e-09	-3.184294e+01	-5.805865e+02
7.100000e-07	-4.343957e-06	-8.831069e-09	-3.165710e+01	-5.791691e+02
7.200000e-07	-4.318231e-06	-8.810532e-09	-3.146962e+01	-5.777259e+02
7.300000e-07	-4.292144e-06	-8.787945e-09	-3.127950e+01	-5.762554e+02
7.400000e-07	-4.265645e-06	-8.763027e-09	-3.108639e+01	-5.747566e+02
7.500000e-07	-4.238827e-06	-8.737357e-09	-3.089095e+01	-5.732292e+02
7.600000e-07	-4.211742e-06	-8.711900e-09	-3.069356e+01	-5.716734e+02
7.700000e-07	-4.184364e-06	-8.684604e-09	-3.049405e+01	-5.700903e+02
7.800000e-07	-4.156690e-06	-8.660416e-09	-3.029237e+01	-5.684814e+02
7.900000e-07	-4.128742e-06	-8.638275e-09	-3.008869e+01	-5.668482e+02
8.000000e-07	-4.100488e-06	-8.613093e-09	-2.988279e+01	-5.651923e+02
8.100000e-07	-4.071953e-06	-8.582970e-09	-2.967484e+01	-5.635147e+02
8.200000e-07	-4.043179e-06	-8.552118e-09	-2.946515e+01	-5.618159e+02
8.300000e-07	-4.014101e-06	-8.524608e-09	-2.925323e+01	-5.600953e+02
8.400000e-07	-3.984660e-06	-8.499285e-09	-2.903868e+01	-5.583518e+02
8.500000e-07	-3.954864e-06	-8.473502e-09	-2.882154e+01	-5.565831e+02
8.600000e-07	-3.924753e-06	-8.444804e-09	-2.860210e+01	-5.547865e+02
8.700000e-07	-3.894356e-06	-8.415300e-09	-2.838058e+01	-5.529588e+02
8.800000e-07	-3.863676e-06	-8.382730e-09	-2.815699e+01	-5.510967e+02
8.900000e-07	-3.832692e-06	-8.349239e-09	-2.793120e+01	-5.491972e+02
9.000000e-07	-3.801373e-06	-8.315837e-09	-2.770295e+01	-5.472580e+02
9.100000e-07	-3.769681e-06	-8.283846e-09	-2.747200e+01	-5.452774e+02
9.200000e-07	-3.737624e-06	-8.251254e-09	-2.723837e+01	-5.432549e+02
9.300000e-07	-3.705304e-06	-8.218615e-09	-2.700284e+01	-5.411910e+02
9.400000e-07	-3.672772e-06	-8.186647e-09	-2.676576e+01	-5.390870e+02
9.500000e-07	-3.639997e-06	-8.154685e-09	-2.652691e+01	-5.369453e+02
9.600000e-07	-3.606969e-06	-8.120906e-09	-2.628621e+01	-5.347686e+02
9.700000e-07	-3.573689e-06	-8.085699e-09	-2.604368e+01	-5.325599e+02
9.800000e-07	-3.540193e-06	-8.050298e-09	-2.579957e+01	-5.303222e+02
9.900000e-07	-3.506554e-06	-8.015585e-09	-2.555442e+01	-5.280578e+02
1.000000e-06	-3.472722e-06	-7.981793e-09	-2.530787e+01	-5.257688e+02
1.010000e-06	-3.438668e-06	-7.946557e-09	-2.505970e+01	-5.234560e+02
1.020000e-06	-3.404400e-06	-7.909241e-09	-2.480997e+01	-5.211195e+02
1.030000e-06	-3.369885e-06	-7.871371e-09	-2.455844e+01	-5.187583e+02
1.040000e-06	-3.335140e-06	-7.832458e-09	-2.430523e+01	-5.163707e+02
1.050000e-06	-3.300186e-06	-7.793283e-09	-2.405049e+01	-5.139540e+02
1.060000e-06	-3.265000e-06	-7.754738e-09	-2.379407e+01	-5.115052e+02
1.070000e-06	-3.229584e-06	-7.714703e-09	-2.353598e+01	-5.090209e+02
1.080000e-06	-3.193923e-06	-7.676370e-09	-2.327609e+01	-5.064978e+02
1.090000e-06	-3.157962e-06	-7.637693e-09	-2.301402e+01	-5.039328e+02
1.100000e-06	-3.121739e-06	-7.596085e-09	-2.275004e+01	-5.013234e+02
1.110000e-06	-3.085284e-06	-7.552097e-09	-2.248437e+01	-4.986678e+02
1.120000e-06	-3.048614e-06	-7.506028e-09	-2.221714e+01	-4.959651e+02
1.130000e-06	-3.011759e-06	-7.460763e-09	-2.194855e+01	-4.932152e+02
1.140000e-06	-2.974717e-06	-7.418977e-09	-2.167860e+01	-4.904192e+02
1.150000e-06	-2.937490e-06	-7.378342e-09	-2.140731e+01	-4.875786e+02
1.160000e-06	-2.900043e-06	-7.338650e-09	-2.113440e+01	-4.846959e+02
1.170000e-06	-2.862371e-06	-7.299460e-09	-2.085986e+01	-4.817738e+02
1.180000e-06	-2.824508e-06	-7.258146e-09	-2.058393e+01	-4.788152e+02
1.190000e-06	-2.786449e-06	-7.212099e-09	-2.030658e+01	-4.758226e+02
1.200000e-06	-2.748207e-06	-7.160828e-09	-2.002788e+01	-4.727983e+02
1.210000e-06	-2.709779e-06	-7.106814e-09	-1.974783e+01	-4.697437e+02
1.220000e-06	-2.671112e-06	-7.053827e-09	-1.946604e+01	-4.666591e+02
1.230000e-06	-2.632223e-06	-7.007172e-09	-1.918264e+01	-4.635438e+02
1.240000e-06	-2.593118e-06	-6.962585e-09	-1.889765e+01	-4.603961e+02
1.250000e-06	-2.553761e-06	-6.916509e-09	-1.861084e+01	-4.572131e+02
1.260000e-06	-2.514195e-06	-6.869855e-09	-1.832249e+01	-4.539911e+02
1.270000e-06	-2.474431e-06	-6.820946e-09	-1.803271e+01	-4.507260e+02
1.280000e-06	-2.434528e-06	-6.768564e-09	-1.774191e+01	-4.474134e+02
1.290000e-06	-2.394518e-06	-6.714670e-09	-1.745033e+01	-4.440492e+02
1.300000e-06	-2.354355e-06	-6.660844e-09	-1.715764e+01	-4.406298e+02
1.310000e-06	-2.314012e-06	-6.607243e-09	-1.686363e+01	-4.371528e+02
1.320000e-06	-2.273493e-06	-6.552741e-09	-1.656835e+01	-4.336166e+02
1.330000e-06	-2.232789e-06	-6.497299e-09	-1.627171e+01	-4.300211e+02
1.340000e-06	-2.191929e-06	-6.441535e-09	-1.597394e+01	-4.263671e+02
1.350000e-06	-2.150942e-06	-6.384981e-09	-1.567524e+01	-4.226569e+02
1.360000e-06	-2.109818e-06	-6.326271e-09	-1.537554e+01	-4.188930e+02
1.370000e-06	-2.068552e-06	-6.265160e-09	-1.507482e+01	-4.150788e+02
1.380000e-06	-2.027134e-06	-6.203703e-09	-1.477298e+01	-4.112173e+02
1.390000e-06	-1.985602e-06	-6.143002e-09	-1.447031e+01	-4.073114e+02
1.400000e-06	-1.943954e-06	-6.083266e-09	-1.416679e+01	-4.033631e+02
1.410000e-06	-1.902169e-06	-6.025199e-09	-1.386228e+01	-3.993736e+02
1.420000e-06	-1.860258e-06	-5.966973e-09	-1.355685e+01	-3.953428e+02
1.430000e-06	-1.818194e-06	-5.905094e-09	-1.325030e+01	-3.912698e+02
1.440000e-06	-1.775966e-06	-5.838989e-09	-1.294256e+01	-3.871527e+02
1.450000e-06	-1.733568e-06	-5.772029e-09	-1.263358e+01	-3.829891e+02
1.460000e-06	-1.690973e-06	-5.707070e-09	-1.232316e+01	-3.787762e+02
1.470000e-06	-1.648206e-06	-5.641162e-09	-1.201150e+01	-3.745113e+02
1.480000e-06	-1.605296e-06	-5.575647e-09	-1.169878e+01	-3.701918e+02
1.490000e-06	-1.562290e-06	-5.508847e-09	-1.138537e+01	-3.658159e+02
1.500000e-06	-1.519204e-06	-5.441233e-09	-1.107138e+01	-3.613824e+02
1.510000e-06	-1.476033e-06	-5.371544e-09	-1.075677e+01	-3.568907e+02
1.520000e-06	-1.432803e-06	-5.295527e-09	-1.044172e+01	-3.523408e+02
1.530000e-06	-1.389507e-06	-5.217229e-09	-1.012619e+01	-3.477330e+02
1.540000e-06	-1.346144e-06	-5.142743e-09	-9.810186e+00	-3.430678e+02
1.550000e-06	-1.302715e-06	-5.073030e-09	-9.493688e+00	-3.383453e+02
1.560000e-06	-1.259172e-06	-5.004968e-09	-9.176366e+00	-3.335655e+02
1.570000e-06	-1.215520e-06	-4.934305e-09	-8.858248e+00	-3.287273e+02
1.580000e-06	-1.171776e-06	-4.860045e-09	-8.539454e+00	-3.238291e+02
1.590000e-06	-1.127950e-06	-4.783789e-09	-8.220071e+00	-3.188684e+02
1.600000e-06	-1.084043e-06	-4.704783e-09	-7.900089e+00	-3.138424e+02
1.610000e-06	-1.040023e-06	-4.624158e-09	-7.579288e+00	-3.087473e+02
1.620000e-06	-9.959500e-07	-4.541913e-09	-7.258103e+00	-3.035796e+02
1.630000e-06	-9.518236e-07	-4.460805e-09	-6.936527e+00	-2.983357e+02
1.640000e-06	-9.076509e-07	-4.381761e-09	-6.614612e+00	-2.930124e+02
1.650000e-06	-8.634359e-07	-4.303518e-09	-6.292391e+00	-2.876072e+02
1.660000e-06	-8.191543e-07	-4.221994e-09	-5.969683e+00	-2.821182e+02
1.670000e-06	-7.748337e-07	-4.135981e-09	-5.646692e+00	-2.765441e+02
1.680000e-06	-7.304668e-07	-4.047210e-09	-5.323363e+00	-2.708846e+02
1.690000e-06	-6.860567e-07	-3.957793e-09	-4.999719e+00	-2.651397e+02
1.700000e-06	-6.416038e-07	-3.867139e-09	-4.675763e+00	-2.593097e+02
1.710000e-06	-5.970975e-07	-3.776775e-09	-4.351418e+00	-2.533950e+02
1.720000e-06	-5.525426e-07	-3.687806e-09	-4.026719e+00	-2.473956e+02
1.730000e-06	-5.079573e-07	-3.597937e-09	-3.701798e+00	-2.413113e+02
1.740000e-06	-4.633297e-07	-3.505692e-09	-3.376570e+00	-2.351414e+02
1.750000e-06	-4.186548e-07	-3.412828e-09	-3.050996e+00	-2.288845e+02
1.760000e-06	-3.739454e-07	-3.319062e-09	-2.725171e+00	-2.225388e+02
1.770000e-06	-3.292069e-07	-3.220905e-09	-2.399134e+00	-2.161020e+02
1.780000e-06	-2.844512e-07	-3.119466e-09	-2.072972e+00	-2.095718e+02
1.790000e-06	-2.396628e-07	-3.015345e-09	-1.746571e+00	-2.029455e+02
1.800000e-06	-1.948908e-07	-2.912402e-09	-1.420289e+00	-1.962208e+02
1.810000e-06	-1.501236e-07	-2.810420e-09	-1.094043e+00	-1.893956e+02
1.820000e-06	-1.053444e-07	-2.707006e-09	-7.677095e-01	-1.824681e+02
1.830000e-06	-6.056263e-08	-2.602192e-09	-4.413573e-01	-1.754369e+02
1.840000e-06	-1.573873e-08	-2.497784e-09	-1.146979e-01	-1.683011e+02
1.850000e-06	2.907886e-08	-2.392344e-09	2.119156e-01	-1.610599e+02
1.860000e-06	7.387932e-08	-2.280961e-09	5.384042e-01	-1.537128e+02
1.870000e-06	1.186742e-07	-2.162906e-09	8.648520e-01	-1.462592e+02
1.880000e-06	1.634530e-07	-2.043600e-09	1.191183e+00	-1.386986e+02
1.890000e-06	2.082301e-07	-1.926709e-09	1.517501e+00	-1.310302e+02
1.900000e-06	2.530021e-07	-1.810774e-09	1.843783e+00	-1.232532e+02
1.910000e-06	2.977449e-07	-1.691926e-09	2.169851e+00	-1.153667e+02
1.920000e-06	3.424720e-07	-1.570843e-09	2.495805e+00	-1.073697e+02
1.930000e-06	3.871661e-07	-1.451437e-09	2.821518e+00	-9.926143e+01
1.940000e-06	4.318183e-07	-1.331736e-09	3.146927e+00	-9.104123e+01
1.950000e-06	4.764253e-07	-1.206053e-09	3.472005e+00	-8.270885e+01
1.960000e-06	5.209696e-07	-1.074510e-09	3.796627e+00	-7.426445e+01
1.970000e-06	5.654851e-07	-9.418850e-10	4.121040e+00	-6.570871e+01
1.980000e-06	6.100017e-07	-8.091393e-10	4.445459e+00	-5.704282e+01
1.990000e-06	6.544968e-07	-6.755469e-10	4.769723e+00	-4.826843e+01
2.000000e-06	6.989528e-07	-5.385543e-10	5.093701e+00	-3.938758e+01
2.010000e-06	7.433522e-07	-4.001268e-10	5.417266e+00	-3.040266e+01
2.020000e-06	7.876406e-07	-2.630251e-10	5.740023e+00	-2.131627e+01
2.030000e-06	8.318502e-07	-1.267048e-10	6.062207e+00	-1.213119e+01
2.040000e-06	8.760264e-07	9.920917e-12	6.384146e+00	-2.850375e+00
2.050000e-06	9.201560e-07	1.521727e-10	6.705745e+00	6.523035e+00
2.060000e-06	9.642395e-07	2.976203e-10	7.027009e+00	1.598560e+01
2.070000e-06	1.008239e-06	4.459612e-10	7.347664e+00	2.553346e+01
2.080000e-06	1.052176e-06	5.969832e-10	7.667859e+00	3.516214e+01
2.090000e-06	1.096062e-06	7.488843e-10	7.987682e+00	4.486639e+01
2.100000e-06	1.139867e-06	8.991309e-10	8.306913e+00	5.464003e+01
2.110000e-06	1.183598e-06	1.047428e-09	8.625612e+00	6.447577e+01
2.120000e-06	1.227254e-06	1.193577e-09	8.943759e+00	7.436518e+01
2.130000e-06	1.270820e-06	1.338684e-09	9.261252e+00	8.429867e+01
2.140000e-06	1.314272e-06	1.490625e-09	9.577909e+00	9.426554e+01
2.150000e-06	1.357642e-06	1.648457e-09	9.893978e+00	1.042542e+02
2.160000e-06	1.400941e-06	1.807354e-09	1.020952e+01	1.142522e+02
2.170000e-06	1.444181e-06	1.964115e-09	1.052464e+01	1.242468e+02
2.180000e-06	1.487392e-06	2.117986e-09	1.083954e+01	1.342248e+02
2.190000e-06	1.530524e-06	2.266419e-09	1.115387e+01	1.441732e+02
2.200000e-06	1.573525e-06	2.411130e-09	1.146725e+01	1.540792e+02
2.210000e-06	1.616346e-06	2.555192e-09	1.177931e+01	1.639304e+02
2.220000e-06	1.659014e-06	2.701605e-09	1.209026e+01	1.737152e+02
2.230000e-06	1.701531e-06	2.849164e-09	1.240010e+01	1.834225e+02
2.240000e-06	1.743893e-06	2.998651e-09	1.270883e+01	1.930421e+02
2.250000e-06	1.786099e-06	3.150202e-09	1.301641e+01	2.025645e+02
2.260000e-06	1.828130e-06	3.298657e-09	1.332272e+01	2.119808e+02
2.270000e-06	1.870031e-06	3.441122e-09	1.362807e+01	2.212829e+02
2.280000e-06	1.911792e-06	3.577214e-09	1.393241e+01	2.304632e+02
2.290000e-06	1.953450e-06	3.710203e-09	1.423600e+01	2.395150e+02
2.300000e-06	1.994987e-06	3.840103e-09	1.453870e+01	2.484319e+02
2.310000e-06	2.036371e-06	3.968486e-09	1.484030e+01	2.572081e+02
2.320000e-06	2.077598e-06	4.098774e-09	1.514074e+01	2.658385e+02
2.330000e-06	2.118646e-06	4.232016e-09	1.543988e+01	2.743185e+02
2.340000e-06	2.159535e-06	4.362841e-09	1.573787e+01	2.826443e+02
2.350000e-06	2.200292e-06	4.486342e-09	1.603489e+01	2.908127e+02
2.360000e-06	2.240928e-06	4.603055e-09	1.633103e+01	2.988211e+02
2.370000e-06	2.281412e-06	4.714727e-09	1.662606e+01	3.066677e+02
2.380000e-06	2.321741e-06	4.824788e-09	1.691996e+01	3.143513e+02
2.390000e-06	2.361901e-06	4.934246e-09	1.721263e+01	3.218714e+02
2.400000e-06	2.401911e-06	5.043105e-09	1.750421e+01	3.292281e+02
2.410000e-06	2.441838e-06	5.150701e-09	1.779518e+01	3.364220e+02
2.420000e-06	2.481624e-06	5.256550e-09	1.808513e+01	3.434542e+02
2.430000e-06	2.521165e-06	5.360203e-09	1.837329e+01	3.503263e+02
2.440000e-06	2.560426e-06	5.460951e-09	1.865941e+01	3.570404e+02
2.450000e-06	2.599394e-06	5.559367e-09	1.894339e+01	3.635989e+02
2.460000e-06	2.638123e-06	5.654843e-09	1.922563e+01	3.700046e+02
2.470000e-06	2.676689e-06	5.747419e-09	1.950669e+01	3.762606e+02
2.480000e-06	2.715064e-06	5.836744e-09	1.978635e+01	3.823705e+02
2.490000e-06	2.753203e-06	5.922101e-09	2.006429e+01	3.883382e+02
2.500000e-06	2.791165e-06	6.004724e-09	2.034094e+01	3.941677e+02
2.510000e-06	2.828981e-06	6.089261e-09	2.061653e+01	3.998636e+02
2.520000e-06	2.866633e-06	6.175692e-09	2.089092e+01	4.054304e+02
2.530000e-06	2.904106e-06	6.262075e-09	2.116402e+01	4.108728e+02
2.540000e-06	2.941392e-06	6.346373e-09	2.143574e+01	4.161957e+02
2.550000e-06	2.978487e-06	6.427175e-09	2.170607e+01	4.214036e+02
2.560000e-06	3.015400e-06	6.504854e-09	2.197508e+01	4.265011e+02
2.570000e-06	3.052160e-06	6.578981e-09	2.224297e+01	4.314921e+02
2.580000e-06	3.088720e-06	6.649171e-09	2.250941e+01	4.363805e+02
2.590000e-06	3.124982e-06	6.716980e-09	2.277368e+01	4.411692e+02
2.600000e-06	3.160915e-06	6.786625e-09	2.303554e+01	4.458609e+02
2.610000e-06	3.196547e-06	6.858977e-09	2.329521e+01	4.504575e+02
2.620000e-06	3.231936e-06	6.931740e-09	2.355311e+01	4.549602e+02
2.630000e-06	3.267131e-06	7.001397e-09	2.380960e+01	4.593699e+02
2.640000e-06	3.302117e-06	7.067331e-09	2.406457e+01	4.636868e+02
2.650000e-06	3.336877e-06	7.130420e-09	2.431788e+01	4.679110e+02
2.660000e-06	3.371414e-06	7.191868e-09	2.456957e+01	4.720421e+02
2.670000e-06	3.405743e-06	7.249901e-09	2.481975e+01	4.760801e+02
2.680000e-06	3.439828e-06	7.304104e-09	2.506815e+01	4.800249e+02
2.690000e-06	3.473680e-06	7.357234e-09	2.531485e+01	4.838769e+02
2.700000e-06	3.507364e-06	7.411397e-09	2.556033e+01	4.876369e+02
2.710000e-06	3.540860e-06	7.466329e-09	2.580443e+01	4.913063e+02
2.720000e-06	3.574094e-06	7.519921e-09	2.604663e+01	4.948869e+02
2.730000e-06	3.607042e-06	7.573328e-09	2.628674e+01	4.983814e+02
2.740000e-06	3.639730e-06	7.624574e-09	2.652496e+01	5.017928e+02
2.750000e-06	3.672144e-06	7.672956e-09	2.676118e+01	5.051244e+02
2.760000e-06	3.704285e-06	7.718926e-09	2.699541e+01	5.083797e+02
2.770000e-06	3.736191e-06	7.765176e-09	2.722793e+01	5.115624e+02
2.780000e-06	3.767850e-06	7.812292e-09	2.745865e+01	5.146758e+02
2.790000e-06	3.799215e-06	7.856709e-09	2.768722e+01	5.177229e+02
2.800000e-06	3.830320e-06	7.896554e-09	2.791391e+01	5.207064e+02
2.810000e-06	3.861157e-06	7.933194e-09	2.813863e+01	5.236283e+02
2.820000e-06	3.891693e-06	7.972084e-09	2.836117e+01	5.264901e+02
2.830000e-06	3.921928e-06	8.011551e-09	2.858151e+01	5.292930e+02
2.840000e-06	3.951818e-06	8.051751e-09	2.879934e+01	5.320377e+02
2.850000e-06	3.981332e-06	8.093509e-09	2.901442e+01	5.347246e+02
2.860000e-06	4.010458e-06	8.134851e-09	2.922668e+01	5.373543e+02
2.870000e-06	4.039278e-06	8.173973e-09	2.943671e+01	5.399273e+02
2.880000e-06	4.067850e-06	8.208918e-09	2.964494e+01	5.424444e+02
2.890000e-06	4.096147e-06	8.239762e-09	2.985115e+01	5.449066e+02
2.900000e-06	4.124171e-06	8.269751e-09	3.005538e+01	5.473155e+02
