# Temperatura_=_20.0
# Concentracion g/m^3_=_10000.0
# C_Vs_to_Am_M_A/Vsm_=_65563218390.804596
# pendiente_HvsI_1/m_=_3716.3
# ordenada_HvsI_A/m_=_1297.0
# frecuencia_Hz_=_135345.91007408686

Tiempo_(s)	Campo_(V.s)	Magnetizacion_(V.s)	Campo_(kA/m)	Magnetizacion_(A/m)
0.000000e+00	-5.055432e-06	-7.301186e-09	-3.844143e+01	-4.745211e+02
1.000000e-08	-5.055376e-06	-7.310435e-09	-3.844101e+01	-4.746123e+02
2.000000e-08	-5.055057e-06	-7.320483e-09	-3.843858e+01	-4.746844e+02
3.000000e-08	-5.054348e-06	-7.321189e-09	-3.843319e+01	-4.747324e+02
4.000000e-08	-5.053201e-06	-7.315397e-09	-3.842447e+01	-4.747535e+02
5.000000e-08	-5.051736e-06	-7.307451e-09	-3.841333e+01	-4.747485e+02
6.000000e-08	-5.049973e-06	-7.302832e-09	-3.839992e+01	-4.747215e+02
7.000000e-08	-5.047893e-06	-7.301084e-09	-3.838411e+01	-4.746804e+02
8.000000e-08	-5.045463e-06	-7.303338e-09	-3.836563e+01	-4.746353e+02
9.000000e-08	-5.042463e-06	-7.291385e-09	-3.834281e+01	-4.745976e+02
1.000000e-07	-5.038670e-06	-7.261159e-09	-3.831397e+01	-4.745783e+02
1.100000e-07	-5.034272e-06	-7.269292e-09	-3.828053e+01	-4.745860e+02
1.200000e-07	-5.029782e-06	-7.298513e-09	-3.824639e+01	-4.746253e+02
1.300000e-07	-5.025294e-06	-7.281668e-09	-3.821227e+01	-4.746957e+02
1.400000e-07	-5.020359e-06	-7.240878e-09	-3.817474e+01	-4.747912e+02
1.500000e-07	-5.014864e-06	-7.255199e-09	-3.813296e+01	-4.748997e+02
1.600000e-07	-5.009120e-06	-7.311352e-09	-3.808927e+01	-4.750047e+02
1.700000e-07	-5.003085e-06	-7.278540e-09	-3.804339e+01	-4.750862e+02
1.800000e-07	-4.996518e-06	-7.251816e-09	-3.799345e+01	-4.751232e+02
1.900000e-07	-4.989573e-06	-7.289076e-09	-3.794064e+01	-4.750954e+02
2.000000e-07	-4.982480e-06	-7.297855e-09	-3.788671e+01	-4.749862e+02
2.100000e-07	-4.975038e-06	-7.248736e-09	-3.783012e+01	-4.747841e+02
2.200000e-07	-4.967150e-06	-7.251157e-09	-3.777014e+01	-4.744840e+02
2.300000e-07	-4.959009e-06	-7.272911e-09	-3.770824e+01	-4.740882e+02
2.400000e-07	-4.950607e-06	-7.233461e-09	-3.764434e+01	-4.736057e+02
2.500000e-07	-4.941730e-06	-7.217453e-09	-3.757684e+01	-4.730514e+02
2.600000e-07	-4.932450e-06	-7.246960e-09	-3.750628e+01	-4.724444e+02
2.700000e-07	-4.922884e-06	-7.226513e-09	-3.743354e+01	-4.718058e+02
2.800000e-07	-4.912855e-06	-7.172785e-09	-3.735728e+01	-4.711563e+02
2.900000e-07	-4.902400e-06	-7.173127e-09	-3.727778e+01	-4.705141e+02
3.000000e-07	-4.891662e-06	-7.155720e-09	-3.719612e+01	-4.698932e+02
3.100000e-07	-4.880624e-06	-7.128583e-09	-3.711220e+01	-4.693023e+02
3.200000e-07	-4.869288e-06	-7.138517e-09	-3.702600e+01	-4.687441e+02
3.300000e-07	-4.857677e-06	-7.147809e-09	-3.693771e+01	-4.682158e+02
3.400000e-07	-4.845725e-06	-7.113278e-09	-3.684682e+01	-4.677102e+02
3.500000e-07	-4.833442e-06	-7.126656e-09	-3.675343e+01	-4.672167e+02
3.600000e-07	-4.820879e-06	-7.139587e-09	-3.665790e+01	-4.667238e+02
3.700000e-07	-4.807964e-06	-7.105461e-09	-3.655969e+01	-4.662201e+02
3.800000e-07	-4.794595e-06	-7.086983e-09	-3.645803e+01	-4.656965e+02
3.900000e-07	-4.780817e-06	-7.095721e-09	-3.635327e+01	-4.651467e+02
4.000000e-07	-4.766699e-06	-7.073122e-09	-3.624591e+01	-4.645682e+02
4.100000e-07	-4.752216e-06	-7.057442e-09	-3.613578e+01	-4.639621e+02
4.200000e-07	-4.737407e-06	-7.058252e-09	-3.602318e+01	-4.633325e+02
4.300000e-07	-4.722297e-06	-7.036175e-09	-3.590828e+01	-4.626852e+02
4.400000e-07	-4.706886e-06	-7.029637e-09	-3.579109e+01	-4.620273e+02
4.500000e-07	-4.691170e-06	-7.040829e-09	-3.567159e+01	-4.613648e+02
4.600000e-07	-4.675094e-06	-7.028089e-09	-3.554935e+01	-4.607025e+02
4.700000e-07	-4.658613e-06	-7.005368e-09	-3.542402e+01	-4.600424e+02
4.800000e-07	-4.641741e-06	-7.007776e-09	-3.529573e+01	-4.593840e+02
4.900000e-07	-4.624531e-06	-6.996236e-09	-3.516486e+01	-4.587240e+02
5.000000e-07	-4.606997e-06	-6.975099e-09	-3.503154e+01	-4.580568e+02
5.100000e-07	-4.589120e-06	-6.955082e-09	-3.489560e+01	-4.573760e+02
5.200000e-07	-4.570900e-06	-6.943540e-09	-3.475705e+01	-4.566746e+02
5.300000e-07	-4.552311e-06	-6.936475e-09	-3.461571e+01	-4.559466e+02
5.400000e-07	-4.533350e-06	-6.935907e-09	-3.447153e+01	-4.551879e+02
5.500000e-07	-4.513954e-06	-6.927122e-09	-3.432404e+01	-4.543965e+02
5.600000e-07	-4.494098e-06	-6.916233e-09	-3.417305e+01	-4.535730e+02
5.700000e-07	-4.473915e-06	-6.907967e-09	-3.401958e+01	-4.527207e+02
5.800000e-07	-4.453464e-06	-6.893952e-09	-3.386408e+01	-4.518445e+02
5.900000e-07	-4.432703e-06	-6.870074e-09	-3.370621e+01	-4.509503e+02
6.000000e-07	-4.411621e-06	-6.847504e-09	-3.354590e+01	-4.500443e+02
6.100000e-07	-4.390265e-06	-6.834207e-09	-3.338351e+01	-4.491317e+02
6.200000e-07	-4.368603e-06	-6.822628e-09	-3.321879e+01	-4.482161e+02
6.300000e-07	-4.346552e-06	-6.812683e-09	-3.305112e+01	-4.472991e+02
6.400000e-07	-4.324106e-06	-6.801191e-09	-3.288044e+01	-4.463799e+02
6.500000e-07	-4.301333e-06	-6.791383e-09	-3.270727e+01	-4.454554e+02
6.600000e-07	-4.278244e-06	-6.779266e-09	-3.253171e+01	-4.445209e+02
6.700000e-07	-4.254875e-06	-6.763488e-09	-3.235401e+01	-4.435707e+02
6.800000e-07	-4.231207e-06	-6.742121e-09	-3.217404e+01	-4.425989e+02
6.900000e-07	-4.207205e-06	-6.720872e-09	-3.199153e+01	-4.416001e+02
7.000000e-07	-4.182957e-06	-6.699720e-09	-3.180715e+01	-4.405703e+02
7.100000e-07	-4.158498e-06	-6.682682e-09	-3.162116e+01	-4.395073e+02
7.200000e-07	-4.133743e-06	-6.665197e-09	-3.143293e+01	-4.384107e+02
7.300000e-07	-4.108631e-06	-6.644697e-09	-3.124197e+01	-4.372820e+02
7.400000e-07	-4.083198e-06	-6.625010e-09	-3.104858e+01	-4.361245e+02
7.500000e-07	-4.057464e-06	-6.609885e-09	-3.085290e+01	-4.349423e+02
7.600000e-07	-4.031429e-06	-6.593313e-09	-3.065492e+01	-4.337398e+02
7.700000e-07	-4.005129e-06	-6.574381e-09	-3.045494e+01	-4.325213e+02
7.800000e-07	-3.978549e-06	-6.557243e-09	-3.025283e+01	-4.312901e+02
7.900000e-07	-3.951633e-06	-6.538724e-09	-3.004816e+01	-4.300485e+02
8.000000e-07	-3.924450e-06	-6.515180e-09	-2.984146e+01	-4.287973e+02
8.100000e-07	-3.897077e-06	-6.485950e-09	-2.963332e+01	-4.275357e+02
8.200000e-07	-3.869428e-06	-6.459409e-09	-2.942308e+01	-4.262620e+02
8.300000e-07	-3.841434e-06	-6.436284e-09	-2.921021e+01	-4.249735e+02
8.400000e-07	-3.813114e-06	-6.415569e-09	-2.899487e+01	-4.236670e+02
8.500000e-07	-3.784496e-06	-6.397047e-09	-2.877725e+01	-4.223395e+02
8.600000e-07	-3.755591e-06	-6.380395e-09	-2.855746e+01	-4.209882e+02
8.700000e-07	-3.726378e-06	-6.360507e-09	-2.833533e+01	-4.196109e+02
8.800000e-07	-3.696885e-06	-6.338520e-09	-2.811106e+01	-4.182064e+02
8.900000e-07	-3.667124e-06	-6.313035e-09	-2.788476e+01	-4.167739e+02
9.000000e-07	-3.637051e-06	-6.282373e-09	-2.765608e+01	-4.153136e+02
9.100000e-07	-3.606674e-06	-6.250128e-09	-2.742510e+01	-4.138259e+02
9.200000e-07	-3.575991e-06	-6.221941e-09	-2.719178e+01	-4.123114e+02
9.300000e-07	-3.545000e-06	-6.199025e-09	-2.695613e+01	-4.107709e+02
9.400000e-07	-3.513744e-06	-6.177524e-09	-2.671846e+01	-4.092049e+02
9.500000e-07	-3.482248e-06	-6.157252e-09	-2.647897e+01	-4.076136e+02
9.600000e-07	-3.450524e-06	-6.137564e-09	-2.623773e+01	-4.059969e+02
9.700000e-07	-3.418602e-06	-6.116626e-09	-2.599500e+01	-4.043547e+02
9.800000e-07	-3.386497e-06	-6.091284e-09	-2.575088e+01	-4.026866e+02
9.900000e-07	-3.354223e-06	-6.063006e-09	-2.550546e+01	-4.009923e+02
1.000000e-06	-3.321739e-06	-6.034187e-09	-2.525846e+01	-3.992717e+02
1.010000e-06	-3.289017e-06	-6.004863e-09	-2.500964e+01	-3.975247e+02
1.020000e-06	-3.256114e-06	-5.972771e-09	-2.475944e+01	-3.957518e+02
1.030000e-06	-3.222990e-06	-5.941777e-09	-2.450757e+01	-3.939532e+02
1.040000e-06	-3.189620e-06	-5.916255e-09	-2.425383e+01	-3.921296e+02
1.050000e-06	-3.156072e-06	-5.895046e-09	-2.399872e+01	-3.902813e+02
1.060000e-06	-3.122320e-06	-5.872852e-09	-2.374208e+01	-3.884086e+02
1.070000e-06	-3.088305e-06	-5.846476e-09	-2.348342e+01	-3.865114e+02
1.080000e-06	-3.054014e-06	-5.817374e-09	-2.322268e+01	-3.845890e+02
1.090000e-06	-3.019470e-06	-5.786248e-09	-2.296000e+01	-3.826405e+02
1.100000e-06	-2.984719e-06	-5.751977e-09	-2.269576e+01	-3.806646e+02
1.110000e-06	-2.949783e-06	-5.714155e-09	-2.243011e+01	-3.786598e+02
1.120000e-06	-2.914657e-06	-5.678464e-09	-2.216301e+01	-3.766245e+02
1.130000e-06	-2.879314e-06	-5.648761e-09	-2.189427e+01	-3.745574e+02
1.140000e-06	-2.843757e-06	-5.624282e-09	-2.162389e+01	-3.724576e+02
1.150000e-06	-2.808013e-06	-5.601626e-09	-2.135209e+01	-3.703248e+02
1.160000e-06	-2.772074e-06	-5.574703e-09	-2.107881e+01	-3.681590e+02
1.170000e-06	-2.735917e-06	-5.543305e-09	-2.080387e+01	-3.659613e+02
1.180000e-06	-2.699554e-06	-5.510474e-09	-2.052737e+01	-3.637327e+02
1.190000e-06	-2.663021e-06	-5.473939e-09	-2.024957e+01	-3.614748e+02
1.200000e-06	-2.626312e-06	-5.431982e-09	-1.997044e+01	-3.591891e+02
1.210000e-06	-2.589411e-06	-5.389413e-09	-1.968984e+01	-3.568770e+02
1.220000e-06	-2.552289e-06	-5.352124e-09	-1.940757e+01	-3.545391e+02
1.230000e-06	-2.514954e-06	-5.323704e-09	-1.912368e+01	-3.521754e+02
1.240000e-06	-2.477404e-06	-5.298107e-09	-1.883815e+01	-3.497853e+02
1.250000e-06	-2.439658e-06	-5.267790e-09	-1.855112e+01	-3.473672e+02
1.260000e-06	-2.401765e-06	-5.231561e-09	-1.826299e+01	-3.449188e+02
1.270000e-06	-2.363694e-06	-5.190690e-09	-1.797349e+01	-3.424374e+02
1.280000e-06	-2.325458e-06	-5.147739e-09	-1.768275e+01	-3.399199e+02
1.290000e-06	-2.287101e-06	-5.103126e-09	-1.739108e+01	-3.373635e+02
1.300000e-06	-2.248591e-06	-5.058856e-09	-1.709825e+01	-3.347657e+02
1.310000e-06	-2.209854e-06	-5.018514e-09	-1.680370e+01	-3.321247e+02
1.320000e-06	-2.170957e-06	-4.983071e-09	-1.650793e+01	-3.294395e+02
1.330000e-06	-2.131923e-06	-4.947687e-09	-1.621111e+01	-3.267102e+02
1.340000e-06	-2.092690e-06	-4.908247e-09	-1.591278e+01	-3.239376e+02
1.350000e-06	-2.053332e-06	-4.862882e-09	-1.561351e+01	-3.211235e+02
1.360000e-06	-2.013881e-06	-4.814619e-09	-1.531352e+01	-3.182704e+02
1.370000e-06	-1.974324e-06	-4.766791e-09	-1.501273e+01	-3.153809e+02
1.380000e-06	-1.934662e-06	-4.718271e-09	-1.471114e+01	-3.124578e+02
1.390000e-06	-1.894899e-06	-4.670156e-09	-1.440879e+01	-3.095034e+02
1.400000e-06	-1.855030e-06	-4.626498e-09	-1.410563e+01	-3.065194e+02
1.410000e-06	-1.815024e-06	-4.585388e-09	-1.380141e+01	-3.035068e+02
1.420000e-06	-1.774862e-06	-4.541403e-09	-1.349603e+01	-3.004656e+02
1.430000e-06	-1.734505e-06	-4.490379e-09	-1.318915e+01	-2.973948e+02
1.440000e-06	-1.693939e-06	-4.436367e-09	-1.288069e+01	-2.942926e+02
1.450000e-06	-1.653240e-06	-4.386495e-09	-1.257121e+01	-2.911566e+02
1.460000e-06	-1.612418e-06	-4.337441e-09	-1.226080e+01	-2.879838e+02
1.470000e-06	-1.571462e-06	-4.286014e-09	-1.194937e+01	-2.847714e+02
1.480000e-06	-1.530391e-06	-4.234035e-09	-1.163707e+01	-2.815165e+02
1.490000e-06	-1.489201e-06	-4.183825e-09	-1.132386e+01	-2.782167e+02
1.500000e-06	-1.447925e-06	-4.133425e-09	-1.101000e+01	-2.748705e+02
1.510000e-06	-1.406571e-06	-4.079894e-09	-1.069555e+01	-2.714768e+02
1.520000e-06	-1.365132e-06	-4.022896e-09	-1.038044e+01	-2.680356e+02
1.530000e-06	-1.323637e-06	-3.967030e-09	-1.006492e+01	-2.645474e+02
1.540000e-06	-1.282080e-06	-3.913608e-09	-9.748921e+00	-2.610129e+02
1.550000e-06	-1.240426e-06	-3.860415e-09	-9.432183e+00	-2.574334e+02
1.560000e-06	-1.198656e-06	-3.806790e-09	-9.114564e+00	-2.538098e+02
1.570000e-06	-1.156772e-06	-3.752797e-09	-8.796074e+00	-2.501423e+02
1.580000e-06	-1.114783e-06	-3.697303e-09	-8.476793e+00	-2.464306e+02
1.590000e-06	-1.072725e-06	-3.638498e-09	-8.156988e+00	-2.426734e+02
1.600000e-06	-1.030607e-06	-3.575619e-09	-7.836722e+00	-2.388683e+02
1.610000e-06	-9.884248e-07	-3.512643e-09	-7.515968e+00	-2.350118e+02
1.620000e-06	-9.461674e-07	-3.452954e-09	-7.194644e+00	-2.310999e+02
1.630000e-06	-9.038436e-07	-3.394497e-09	-6.872814e+00	-2.271279e+02
1.640000e-06	-8.614716e-07	-3.335814e-09	-6.550618e+00	-2.230912e+02
1.650000e-06	-8.190458e-07	-3.274391e-09	-6.228013e+00	-2.189855e+02
1.660000e-06	-7.765999e-07	-3.211497e-09	-5.905255e+00	-2.148073e+02
1.670000e-06	-7.341079e-07	-3.147517e-09	-5.582146e+00	-2.105543e+02
1.680000e-06	-6.915382e-07	-3.080608e-09	-5.258446e+00	-2.062257e+02
1.690000e-06	-6.489364e-07	-3.011042e-09	-4.934503e+00	-2.018220e+02
1.700000e-06	-6.063173e-07	-2.942067e-09	-4.610428e+00	-1.973453e+02
1.710000e-06	-5.636541e-07	-2.876274e-09	-4.286018e+00	-1.927987e+02
1.720000e-06	-5.209465e-07	-2.811941e-09	-3.961270e+00	-1.881862e+02
1.730000e-06	-4.782127e-07	-2.744736e-09	-3.636322e+00	-1.835117e+02
1.740000e-06	-4.354534e-07	-2.675412e-09	-3.311182e+00	-1.787791e+02
1.750000e-06	-3.926725e-07	-2.607643e-09	-2.985876e+00	-1.739913e+02
1.760000e-06	-3.498573e-07	-2.539332e-09	-2.660310e+00	-1.691499e+02
1.770000e-06	-3.070180e-07	-2.465581e-09	-2.334561e+00	-1.642549e+02
1.780000e-06	-2.641530e-07	-2.387188e-09	-2.008615e+00	-1.593048e+02
1.790000e-06	-2.212731e-07	-2.309949e-09	-1.682558e+00	-1.542963e+02
1.800000e-06	-1.784359e-07	-2.234570e-09	-1.356824e+00	-1.492250e+02
1.810000e-06	-1.355792e-07	-2.158190e-09	-1.030943e+00	-1.440856e+02
1.820000e-06	-9.267176e-08	-2.078712e-09	-7.046748e-01	-1.388724e+02
1.830000e-06	-4.976233e-08	-1.999357e-09	-3.783920e-01	-1.335799e+02
1.840000e-06	-6.829149e-09	-1.923514e-09	-5.192875e-02	-1.282034e+02
1.850000e-06	3.611266e-08	-1.847911e-09	2.746002e-01	-1.227393e+02
1.860000e-06	7.903095e-08	-1.766662e-09	6.009502e-01	-1.171851e+02
1.870000e-06	1.219456e-07	-1.679682e-09	9.272729e-01	-1.115399e+02
1.880000e-06	1.648565e-07	-1.592823e-09	1.253566e+00	-1.058039e+02
1.890000e-06	2.077538e-07	-1.506747e-09	1.579757e+00	-9.997828e+01
1.900000e-06	2.506188e-07	-1.417186e-09	1.905702e+00	-9.406461e+01
1.910000e-06	2.934495e-07	-1.322274e-09	2.231386e+00	-8.806473e+01
1.920000e-06	3.362464e-07	-1.226355e-09	2.556813e+00	-8.198013e+01
1.930000e-06	3.789925e-07	-1.134888e-09	2.881853e+00	-7.581171e+01
1.940000e-06	4.217013e-07	-1.044387e-09	3.206611e+00	-6.955960e+01
1.950000e-06	4.643849e-07	-9.497908e-10	3.531176e+00	-6.322315e+01
1.960000e-06	5.070615e-07	-8.516798e-10	3.855688e+00	-5.680109e+01
1.970000e-06	5.497593e-07	-7.518276e-10	4.180362e+00	-5.029185e+01
1.980000e-06	5.924533e-07	-6.513870e-10	4.505006e+00	-4.369388e+01
1.990000e-06	6.350987e-07	-5.482954e-10	4.829281e+00	-3.700616e+01
2.000000e-06	6.776846e-07	-4.408119e-10	5.153104e+00	-3.022854e+01
2.010000e-06	7.202358e-07	-3.312645e-10	5.476663e+00	-2.336203e+01
2.020000e-06	7.627576e-07	-2.237370e-10	5.799997e+00	-1.640904e+01
2.030000e-06	8.052292e-07	-1.177925e-10	6.122951e+00	-9.373330e+00
2.040000e-06	8.476446e-07	-1.079508e-11	6.445477e+00	-2.259947e+00
2.050000e-06	8.900028e-07	1.001710e-10	6.767569e+00	4.925080e+00
2.060000e-06	9.323007e-07	2.115066e-10	7.089201e+00	1.217505e+01
2.070000e-06	9.744903e-07	3.237626e-10	7.410010e+00	1.948298e+01
2.080000e-06	1.016583e-06	4.401475e-10	7.730083e+00	2.684190e+01
2.090000e-06	1.058616e-06	5.593471e-10	8.049697e+00	3.424518e+01
2.100000e-06	1.100572e-06	6.783797e-10	8.368736e+00	4.168659e+01
2.110000e-06	1.142460e-06	7.938387e-10	8.687250e+00	4.916036e+01
2.120000e-06	1.184283e-06	9.066436e-10	9.005269e+00	5.666105e+01
2.130000e-06	1.226061e-06	1.020169e-09	9.322952e+00	6.418333e+01
2.140000e-06	1.267760e-06	1.137797e-09	9.640031e+00	7.172166e+01
2.150000e-06	1.309347e-06	1.257481e-09	9.956256e+00	7.927007e+01
2.160000e-06	1.350851e-06	1.377490e-09	1.027185e+01	8.682186e+01
2.170000e-06	1.392248e-06	1.493793e-09	1.058663e+01	9.436948e+01
2.180000e-06	1.433546e-06	1.607792e-09	1.090066e+01	1.019045e+02
2.190000e-06	1.474792e-06	1.720276e-09	1.121429e+01	1.094177e+02
2.200000e-06	1.515980e-06	1.831933e-09	1.152749e+01	1.168992e+02
2.210000e-06	1.557038e-06	1.945169e-09	1.183970e+01	1.243390e+02
2.220000e-06	1.597920e-06	2.061058e-09	1.215056e+01	1.317270e+02
2.230000e-06	1.638630e-06	2.178326e-09	1.246012e+01	1.390535e+02
2.240000e-06	1.679198e-06	2.293248e-09	1.276860e+01	1.463096e+02
2.250000e-06	1.719636e-06	2.405102e-09	1.307609e+01	1.534874e+02
2.260000e-06	1.759927e-06	2.514704e-09	1.338246e+01	1.605798e+02
2.270000e-06	1.800088e-06	2.619736e-09	1.368784e+01	1.675807e+02
2.280000e-06	1.840113e-06	2.720062e-09	1.399219e+01	1.744852e+02
2.290000e-06	1.879990e-06	2.819240e-09	1.429542e+01	1.812887e+02
2.300000e-06	1.919744e-06	2.918403e-09	1.459770e+01	1.879874e+02
2.310000e-06	1.959368e-06	3.019520e-09	1.489901e+01	1.945779e+02
2.320000e-06	1.998838e-06	3.118989e-09	1.519913e+01	2.010567e+02
2.330000e-06	2.038168e-06	3.214786e-09	1.549820e+01	2.074206e+02
2.340000e-06	2.077360e-06	3.306965e-09	1.579621e+01	2.136665e+02
2.350000e-06	2.116407e-06	3.396318e-09	1.609312e+01	2.197915e+02
2.360000e-06	2.155307e-06	3.481178e-09	1.638892e+01	2.257928e+02
2.370000e-06	2.194062e-06	3.562425e-09	1.668361e+01	2.316684e+02
2.380000e-06	2.232682e-06	3.646040e-09	1.697728e+01	2.374168e+02
2.390000e-06	2.271167e-06	3.731476e-09	1.726992e+01	2.430374e+02
2.400000e-06	2.309518e-06	3.814548e-09	1.756154e+01	2.485302e+02
2.410000e-06	2.347719e-06	3.894214e-09	1.785202e+01	2.538963e+02
2.420000e-06	2.385738e-06	3.970003e-09	1.814112e+01	2.591375e+02
2.430000e-06	2.423572e-06	4.042282e-09	1.842881e+01	2.642560e+02
2.440000e-06	2.461209e-06	4.113269e-09	1.871500e+01	2.692547e+02
2.450000e-06	2.498587e-06	4.183785e-09	1.899922e+01	2.741367e+02
2.460000e-06	2.535713e-06	4.255562e-09	1.928152e+01	2.789051e+02
2.470000e-06	2.572617e-06	4.326685e-09	1.956214e+01	2.835630e+02
2.480000e-06	2.609330e-06	4.395133e-09	1.984131e+01	2.881138e+02
2.490000e-06	2.645909e-06	4.461474e-09	2.011946e+01	2.925604e+02
2.500000e-06	2.682363e-06	4.524706e-09	2.039665e+01	2.969059e+02
2.510000e-06	2.718633e-06	4.584357e-09	2.067245e+01	3.011536e+02
2.520000e-06	2.754693e-06	4.643520e-09	2.094665e+01	3.053067e+02
2.530000e-06	2.790572e-06	4.705613e-09	2.121947e+01	3.093689e+02
2.540000e-06	2.826281e-06	4.769256e-09	2.149100e+01	3.133436e+02
2.550000e-06	2.861789e-06	4.831739e-09	2.176100e+01	3.172347e+02
2.560000e-06	2.897117e-06	4.892372e-09	2.202964e+01	3.210457e+02
2.570000e-06	2.932272e-06	4.950320e-09	2.229695e+01	3.247799e+02
2.580000e-06	2.967222e-06	5.004422e-09	2.256271e+01	3.284399e+02
2.590000e-06	3.001940e-06	5.054757e-09	2.282671e+01	3.320278e+02
2.600000e-06	3.036345e-06	5.104918e-09	2.308832e+01	3.355449e+02
2.610000e-06	3.070420e-06	5.156388e-09	2.334743e+01	3.389916e+02
2.620000e-06	3.104256e-06	5.207647e-09	2.360472e+01	3.423675e+02
2.630000e-06	3.137939e-06	5.259307e-09	2.386085e+01	3.456717e+02
2.640000e-06	3.171469e-06	5.311913e-09	2.411581e+01	3.489031e+02
2.650000e-06	3.204785e-06	5.363813e-09	2.436914e+01	3.520607e+02
2.660000e-06	3.237893e-06	5.411745e-09	2.462089e+01	3.551435e+02
2.670000e-06	3.270792e-06	5.453676e-09	2.487105e+01	3.581517e+02
2.680000e-06	3.303467e-06	5.492420e-09	2.511951e+01	3.610860e+02
2.690000e-06	3.335930e-06	5.531606e-09	2.536636e+01	3.639481e+02
2.700000e-06	3.368197e-06	5.573465e-09	2.561172e+01	3.667407e+02
2.710000e-06	3.400290e-06	5.618033e-09	2.585575e+01	3.694670e+02
2.720000e-06	3.432143e-06	5.662675e-09	2.609797e+01	3.721307e+02
2.730000e-06	3.463678e-06	5.705304e-09	2.633776e+01	3.747354e+02
2.740000e-06	3.494927e-06	5.744666e-09	2.657538e+01	3.772844e+02
2.750000e-06	3.525948e-06	5.781260e-09	2.681126e+01	3.797803e+02
2.760000e-06	3.556719e-06	5.814587e-09	2.704524e+01	3.822250e+02
2.770000e-06	3.587253e-06	5.847818e-09	2.727742e+01	3.846195e+02
2.780000e-06	3.617545e-06	5.882838e-09	2.750776e+01	3.869639e+02
2.790000e-06	3.647549e-06	5.916663e-09	2.773591e+01	3.892578e+02
2.800000e-06	3.677268e-06	5.948502e-09	2.796189e+01	3.915006e+02
2.810000e-06	3.706731e-06	5.980214e-09	2.818593e+01	3.936920e+02
2.820000e-06	3.735946e-06	6.014271e-09	2.840808e+01	3.958321e+02
2.830000e-06	3.764864e-06	6.046702e-09	2.862797e+01	3.979218e+02
2.840000e-06	3.793408e-06	6.075398e-09	2.884502e+01	3.999630e+02
2.850000e-06	3.821577e-06	6.104007e-09	2.905922e+01	4.019587e+02
2.860000e-06	3.849434e-06	6.133983e-09	2.927104e+01	4.039126e+02
2.870000e-06	3.877025e-06	6.162144e-09	2.948084e+01	4.058289e+02
2.880000e-06	3.904364e-06	6.184868e-09	2.968873e+01	4.077119e+02
2.890000e-06	3.931461e-06	6.206746e-09	2.989477e+01	4.095656e+02
2.900000e-06	3.958312e-06	6.232448e-09	3.009895e+01	4.113933e+02
