# Temperatura_=_20.0
# Concentracion g/m^3_=_10000.0
# C_Vs_to_Am_M_A/Vsm_=_65563218390.804596
# pendiente_HvsI_1/m_=_3716.3
# ordenada_HvsI_A/m_=_1297.0
# frecuencia_Hz_=_135330.0116948452

Tiempo_(s)	Campo_(V.s)	Magnetizacion_(V.s)	Campo_(kA/m)	Magnetizacion_(A/m)
0.000000e+00	-5.257142e-06	-8.154302e-11	-3.845852e+01	-6.028157e+00
1.000000e-08	-5.257030e-06	-8.997053e-11	-3.845770e+01	-5.965938e+00
2.000000e-08	-5.256600e-06	-9.872532e-11	-3.845456e+01	-5.909284e+00
3.000000e-08	-5.255651e-06	-1.033241e-10	-3.844762e+01	-5.872616e+00
4.000000e-08	-5.254273e-06	-1.022437e-10	-3.843753e+01	-5.870128e+00
5.000000e-08	-5.252629e-06	-1.022891e-10	-3.842551e+01	-5.913627e+00
6.000000e-08	-5.250704e-06	-1.005259e-10	-3.841143e+01	-6.010517e+00
7.000000e-08	-5.248425e-06	-8.572870e-11	-3.839475e+01	-6.162225e+00
8.000000e-08	-5.245690e-06	-7.634805e-11	-3.837475e+01	-6.363368e+00
9.000000e-08	-5.242275e-06	-1.207475e-10	-3.834977e+01	-6.601823e+00
1.000000e-07	-5.237974e-06	-1.333967e-10	-3.831830e+01	-6.859770e+00
1.100000e-07	-5.233170e-06	-6.979471e-11	-3.828316e+01	-7.115609e+00
1.200000e-07	-5.228541e-06	-7.952424e-11	-3.824929e+01	-7.346536e+00
1.300000e-07	-5.223845e-06	-1.259445e-10	-3.821494e+01	-7.531449e+00
1.400000e-07	-5.218491e-06	-1.410344e-10	-3.817578e+01	-7.653788e+00
1.500000e-07	-5.212630e-06	-2.436091e-11	-3.813290e+01	-7.703909e+00
1.600000e-07	-5.206642e-06	-6.704369e-11	-3.808910e+01	-7.680643e+00
1.700000e-07	-5.200158e-06	-1.739304e-10	-3.804166e+01	-7.591789e+00
1.800000e-07	-5.193037e-06	-9.458484e-11	-3.798957e+01	-7.453444e+00
1.900000e-07	-5.185740e-06	-5.561447e-11	-3.793618e+01	-7.288220e+00
2.000000e-07	-5.178292e-06	-1.034386e-10	-3.788170e+01	-7.122560e+00
2.100000e-07	-5.170333e-06	-1.305175e-10	-3.782347e+01	-6.983515e+00
2.200000e-07	-5.161961e-06	-2.390668e-11	-3.776223e+01	-6.895373e+00
2.300000e-07	-5.153481e-06	-9.083561e-11	-3.770020e+01	-6.876625e+00
2.400000e-07	-5.144630e-06	-1.522072e-10	-3.763545e+01	-6.937645e+00
2.500000e-07	-5.135240e-06	-7.475723e-11	-3.756675e+01	-7.079420e+00
2.600000e-07	-5.125504e-06	-4.472001e-11	-3.749553e+01	-7.293472e+00
2.700000e-07	-5.115453e-06	-1.533794e-10	-3.742200e+01	-7.562995e+00
2.800000e-07	-5.104839e-06	-1.363435e-10	-3.734436e+01	-7.865029e+00
2.900000e-07	-5.093814e-06	-6.597709e-11	-3.726370e+01	-8.173375e+00
3.000000e-07	-5.082556e-06	-1.101627e-10	-3.718134e+01	-8.461850e+00
3.100000e-07	-5.070974e-06	-1.561186e-10	-3.709661e+01	-8.707439e+00
3.200000e-07	-5.059049e-06	-1.024215e-10	-3.700938e+01	-8.892930e+00
3.300000e-07	-5.046812e-06	-1.122627e-10	-3.691986e+01	-9.008704e+00
3.400000e-07	-5.034175e-06	-1.455991e-10	-3.682741e+01	-9.053469e+00
3.500000e-07	-5.021236e-06	-9.273675e-11	-3.673276e+01	-9.033877e+00
3.600000e-07	-5.008057e-06	-1.225001e-10	-3.663634e+01	-8.963144e+00
3.700000e-07	-4.994430e-06	-1.383832e-10	-3.653666e+01	-8.858888e+00
3.800000e-07	-4.980278e-06	-1.055909e-10	-3.643313e+01	-8.740532e+00
3.900000e-07	-4.965757e-06	-9.543859e-11	-3.632690e+01	-8.626654e+00
4.000000e-07	-4.950897e-06	-1.488924e-10	-3.621820e+01	-8.532642e+00
4.100000e-07	-4.935662e-06	-1.190139e-10	-3.610675e+01	-8.468964e+00
4.200000e-07	-4.920092e-06	-1.081883e-10	-3.599284e+01	-8.440256e+00
4.300000e-07	-4.904222e-06	-1.069940e-10	-3.587674e+01	-8.445286e+00
4.400000e-07	-4.888068e-06	-1.117521e-10	-3.575857e+01	-8.477759e+00
4.500000e-07	-4.871630e-06	-1.209920e-10	-3.563832e+01	-8.527746e+00
4.600000e-07	-4.854784e-06	-1.279305e-10	-3.551508e+01	-8.583518e+00
4.700000e-07	-4.837420e-06	-9.815000e-11	-3.538805e+01	-8.633455e+00
4.800000e-07	-4.819710e-06	-1.160270e-10	-3.525850e+01	-8.667758e+00
4.900000e-07	-4.801728e-06	-1.403739e-10	-3.512695e+01	-8.679712e+00
5.000000e-07	-4.783413e-06	-1.206514e-10	-3.499297e+01	-8.666360e+00
5.100000e-07	-4.764691e-06	-1.138353e-10	-3.485601e+01	-8.628535e+00
5.200000e-07	-4.745582e-06	-1.221612e-10	-3.471622e+01	-8.570300e+00
5.300000e-07	-4.726139e-06	-1.230609e-10	-3.457398e+01	-8.497944e+00
5.400000e-07	-4.706250e-06	-1.271296e-10	-3.442848e+01	-8.418745e+00
5.500000e-07	-4.685788e-06	-1.280029e-10	-3.427879e+01	-8.339713e+00
5.600000e-07	-4.664921e-06	-1.090180e-10	-3.412614e+01	-8.266524e+00
5.700000e-07	-4.643777e-06	-1.226870e-10	-3.397147e+01	-8.202821e+00
5.800000e-07	-4.622319e-06	-1.306388e-10	-3.381449e+01	-8.149943e+00
5.900000e-07	-4.600506e-06	-1.195840e-10	-3.365491e+01	-8.107108e+00
6.000000e-07	-4.578354e-06	-1.082179e-10	-3.349287e+01	-8.071964e+00
6.100000e-07	-4.555992e-06	-1.165668e-10	-3.332928e+01	-8.041375e+00
6.200000e-07	-4.533387e-06	-1.177056e-10	-3.316391e+01	-8.012277e+00
6.300000e-07	-4.510370e-06	-1.225564e-10	-3.299552e+01	-7.982427e+00
6.400000e-07	-4.486833e-06	-1.179722e-10	-3.282335e+01	-7.950922e+00
6.500000e-07	-4.462924e-06	-1.163015e-10	-3.264844e+01	-7.918369e+00
6.600000e-07	-4.438776e-06	-1.242038e-10	-3.247178e+01	-7.886723e+00
6.700000e-07	-4.414334e-06	-1.295978e-10	-3.229298e+01	-7.858812e+00
6.800000e-07	-4.389593e-06	-1.230550e-10	-3.211199e+01	-7.837658e+00
6.900000e-07	-4.364557e-06	-1.212214e-10	-3.192883e+01	-7.825743e+00
7.000000e-07	-4.339221e-06	-1.275561e-10	-3.174349e+01	-7.824367e+00
7.100000e-07	-4.313669e-06	-1.318109e-10	-3.155656e+01	-7.833213e+00
7.200000e-07	-4.287883e-06	-1.293648e-10	-3.136793e+01	-7.850235e+00
7.300000e-07	-4.261679e-06	-1.191100e-10	-3.117624e+01	-7.871871e+00
7.400000e-07	-4.235005e-06	-1.144442e-10	-3.098110e+01	-7.893568e+00
7.500000e-07	-4.208000e-06	-1.180962e-10	-3.078355e+01	-7.910518e+00
7.600000e-07	-4.180806e-06	-1.211808e-10	-3.058461e+01	-7.918474e+00
7.700000e-07	-4.153362e-06	-1.185808e-10	-3.038384e+01	-7.914504e+00
7.800000e-07	-4.125583e-06	-1.211697e-10	-3.018062e+01	-7.897536e+00
7.900000e-07	-4.097528e-06	-1.286232e-10	-2.997539e+01	-7.868597e+00
8.000000e-07	-4.069199e-06	-1.323074e-10	-2.976815e+01	-7.830690e+00
8.100000e-07	-4.040587e-06	-1.269260e-10	-2.955884e+01	-7.788323e+00
8.200000e-07	-4.011754e-06	-1.187490e-10	-2.934791e+01	-7.746764e+00
8.300000e-07	-3.982613e-06	-1.156864e-10	-2.913473e+01	-7.711141e+00
8.400000e-07	-3.953076e-06	-1.177500e-10	-2.891866e+01	-7.685537e+00
8.500000e-07	-3.923202e-06	-1.161523e-10	-2.870011e+01	-7.672236e+00
8.600000e-07	-3.893044e-06	-1.137370e-10	-2.847949e+01	-7.671246e+00
8.700000e-07	-3.862595e-06	-1.149426e-10	-2.825674e+01	-7.680184e+00
8.800000e-07	-3.831841e-06	-1.194426e-10	-2.803176e+01	-7.694542e+00
8.900000e-07	-3.800818e-06	-1.205218e-10	-2.780481e+01	-7.708310e+00
9.000000e-07	-3.769493e-06	-1.163467e-10	-2.757565e+01	-7.714839e+00
9.100000e-07	-3.737760e-06	-1.116866e-10	-2.734351e+01	-7.707823e+00
9.200000e-07	-3.705652e-06	-1.115636e-10	-2.710863e+01	-7.682239e+00
9.300000e-07	-3.673255e-06	-1.128986e-10	-2.687163e+01	-7.635094e+00
9.400000e-07	-3.640604e-06	-1.111987e-10	-2.663277e+01	-7.565870e+00
9.500000e-07	-3.607703e-06	-1.076668e-10	-2.639208e+01	-7.476599e+00
9.600000e-07	-3.574587e-06	-1.097719e-10	-2.614983e+01	-7.371561e+00
9.700000e-07	-3.541283e-06	-1.158174e-10	-2.590619e+01	-7.256658e+00
9.800000e-07	-3.507783e-06	-1.193334e-10	-2.566112e+01	-7.138584e+00
9.900000e-07	-3.474105e-06	-1.191655e-10	-2.541475e+01	-7.023904e+00
1.000000e-06	-3.440242e-06	-1.179108e-10	-2.516703e+01	-6.918202e+00
1.010000e-06	-3.406170e-06	-1.153560e-10	-2.491777e+01	-6.825429e+00
1.020000e-06	-3.371847e-06	-1.093525e-10	-2.466668e+01	-6.747529e+00
1.030000e-06	-3.337258e-06	-9.939835e-11	-2.441365e+01	-6.684401e+00
1.040000e-06	-3.302431e-06	-9.196788e-11	-2.415887e+01	-6.634169e+00
1.050000e-06	-3.267394e-06	-9.238089e-11	-2.390256e+01	-6.593706e+00
1.060000e-06	-3.232164e-06	-9.595895e-11	-2.364484e+01	-6.559304e+00
1.070000e-06	-3.196739e-06	-9.735610e-11	-2.338568e+01	-6.527356e+00
1.080000e-06	-3.161094e-06	-9.869332e-11	-2.312492e+01	-6.494960e+00
1.090000e-06	-3.125168e-06	-1.029347e-10	-2.286211e+01	-6.460306e+00
1.100000e-06	-3.088936e-06	-1.051000e-10	-2.259705e+01	-6.422830e+00
1.110000e-06	-3.052486e-06	-1.042652e-10	-2.233041e+01	-6.383099e+00
1.120000e-06	-3.015825e-06	-9.942065e-11	-2.206221e+01	-6.342481e+00
1.130000e-06	-2.978913e-06	-9.484341e-11	-2.179219e+01	-6.302668e+00
1.140000e-06	-2.941841e-06	-9.515267e-11	-2.152098e+01	-6.265169e+00
1.150000e-06	-2.904610e-06	-9.668592e-11	-2.124862e+01	-6.230861e+00
1.160000e-06	-2.867149e-06	-9.644245e-11	-2.097458e+01	-6.199705e+00
1.170000e-06	-2.829455e-06	-9.672733e-11	-2.069883e+01	-6.170676e+00
1.180000e-06	-2.791553e-06	-9.862653e-11	-2.042155e+01	-6.141925e+00
1.190000e-06	-2.753487e-06	-9.883525e-11	-2.014308e+01	-6.111139e+00
1.200000e-06	-2.715258e-06	-9.513580e-11	-1.986342e+01	-6.076035e+00
1.210000e-06	-2.676859e-06	-8.937290e-11	-1.958251e+01	-6.034879e+00
1.220000e-06	-2.638295e-06	-8.542865e-11	-1.930040e+01	-5.986936e+00
1.230000e-06	-2.599527e-06	-8.612166e-11	-1.901679e+01	-5.932757e+00
1.240000e-06	-2.560511e-06	-8.572363e-11	-1.873137e+01	-5.874220e+00
1.250000e-06	-2.521255e-06	-8.207219e-11	-1.844420e+01	-5.814330e+00
1.260000e-06	-2.481799e-06	-8.070022e-11	-1.815555e+01	-5.756775e+00
1.270000e-06	-2.442128e-06	-8.345958e-11	-1.786534e+01	-5.705327e+00
1.280000e-06	-2.402290e-06	-8.552515e-11	-1.757391e+01	-5.663175e+00
1.290000e-06	-2.362304e-06	-8.654734e-11	-1.728139e+01	-5.632312e+00
1.300000e-06	-2.322152e-06	-8.866854e-11	-1.698766e+01	-5.613087e+00
1.310000e-06	-2.281860e-06	-9.044467e-11	-1.669291e+01	-5.604002e+00
1.320000e-06	-2.241424e-06	-9.039436e-11	-1.639709e+01	-5.601810e+00
1.330000e-06	-2.200834e-06	-8.811001e-11	-1.610016e+01	-5.601898e+00
1.340000e-06	-2.160071e-06	-8.336142e-11	-1.580196e+01	-5.598913e+00
1.350000e-06	-2.119144e-06	-7.841458e-11	-1.550256e+01	-5.587524e+00
1.360000e-06	-2.078070e-06	-7.487543e-11	-1.520208e+01	-5.563211e+00
1.370000e-06	-2.036867e-06	-7.240859e-11	-1.490066e+01	-5.522938e+00
1.380000e-06	-1.995560e-06	-7.265671e-11	-1.459848e+01	-5.465619e+00
1.390000e-06	-1.954161e-06	-7.525767e-11	-1.429563e+01	-5.392278e+00
1.400000e-06	-1.912669e-06	-7.912966e-11	-1.399209e+01	-5.305890e+00
1.410000e-06	-1.871029e-06	-8.041909e-11	-1.368748e+01	-5.210925e+00
1.420000e-06	-1.829234e-06	-7.679869e-11	-1.338173e+01	-5.112659e+00
1.430000e-06	-1.787347e-06	-6.967146e-11	-1.307530e+01	-5.016377e+00
1.440000e-06	-1.745318e-06	-6.368341e-11	-1.276784e+01	-4.926594e+00
1.450000e-06	-1.703053e-06	-6.015720e-11	-1.245865e+01	-4.846412e+00
1.460000e-06	-1.660609e-06	-5.721427e-11	-1.214816e+01	-4.777130e+00
1.470000e-06	-1.618027e-06	-5.574208e-11	-1.183665e+01	-4.718160e+00
1.480000e-06	-1.575273e-06	-5.766091e-11	-1.152388e+01	-4.667256e+00
1.490000e-06	-1.532380e-06	-6.166140e-11	-1.121010e+01	-4.621021e+00
1.500000e-06	-1.489392e-06	-6.315272e-11	-1.089562e+01	-4.575590e+00
1.510000e-06	-1.446302e-06	-5.975044e-11	-1.058040e+01	-4.527379e+00
1.520000e-06	-1.403112e-06	-5.326392e-11	-1.026444e+01	-4.473761e+00
1.530000e-06	-1.359857e-06	-4.616739e-11	-9.948007e+00	-4.413552e+00
1.540000e-06	-1.316538e-06	-4.375642e-11	-9.631108e+00	-4.347234e+00
1.550000e-06	-1.273124e-06	-4.312314e-11	-9.313515e+00	-4.276855e+00
1.560000e-06	-1.229614e-06	-3.975403e-11	-8.995219e+00	-4.205641e+00
1.570000e-06	-1.186047e-06	-3.936925e-11	-8.676501e+00	-4.137376e+00
1.580000e-06	-1.142425e-06	-4.410890e-11	-8.357389e+00	-4.075663e+00
1.590000e-06	-1.098699e-06	-5.145450e-11	-8.037513e+00	-4.023190e+00
1.600000e-06	-1.054886e-06	-5.392115e-11	-7.717002e+00	-3.981131e+00
1.610000e-06	-1.011020e-06	-5.015118e-11	-7.396095e+00	-3.948795e+00
1.620000e-06	-9.670795e-07	-4.405439e-11	-7.074652e+00	-3.923580e+00
1.630000e-06	-9.230684e-07	-3.766389e-11	-6.752690e+00	-3.901256e+00
1.640000e-06	-8.790003e-07	-3.412239e-11	-6.430310e+00	-3.876526e+00
1.650000e-06	-8.348788e-07	-3.261210e-11	-6.107540e+00	-3.843790e+00
1.660000e-06	-7.907044e-07	-3.265345e-11	-5.784383e+00	-3.797982e+00
1.670000e-06	-7.465016e-07	-3.272733e-11	-5.461018e+00	-3.735349e+00
1.680000e-06	-7.022667e-07	-3.219027e-11	-5.137419e+00	-3.654037e+00
1.690000e-06	-6.579755e-07	-3.123935e-11	-4.813407e+00	-3.554403e+00
1.700000e-06	-6.136506e-07	-2.967901e-11	-4.489150e+00	-3.438983e+00
1.710000e-06	-5.692665e-07	-2.825932e-11	-4.164458e+00	-3.312145e+00
1.720000e-06	-5.248181e-07	-2.834729e-11	-3.839297e+00	-3.179454e+00
1.730000e-06	-4.803304e-07	-2.782016e-11	-3.513848e+00	-3.046873e+00
1.740000e-06	-4.358367e-07	-2.686709e-11	-3.188355e+00	-2.919921e+00
1.750000e-06	-3.913160e-07	-2.846803e-11	-2.862665e+00	-2.802917e+00
1.760000e-06	-3.467612e-07	-3.028001e-11	-2.536725e+00	-2.698438e+00
1.770000e-06	-3.022223e-07	-2.870620e-11	-2.210902e+00	-2.607058e+00
1.780000e-06	-2.576694e-07	-2.607062e-11	-1.884975e+00	-2.527419e+00
1.790000e-06	-2.131087e-07	-2.650548e-11	-1.558992e+00	-2.456601e+00
1.800000e-06	-1.685562e-07	-2.795374e-11	-1.233070e+00	-2.390733e+00
1.810000e-06	-1.239826e-07	-2.632400e-11	-9.069926e-01	-2.325726e+00
1.820000e-06	-7.937947e-08	-2.192380e-11	-5.806990e-01	-2.258012e+00
1.830000e-06	-3.473047e-08	-1.927738e-11	-2.540701e-01	-2.185167e+00
1.840000e-06	9.916479e-09	-1.972004e-11	7.254382e-02	-2.106308e+00
1.850000e-06	5.451793e-08	-2.014097e-11	3.988249e-01	-2.022209e+00
1.860000e-06	9.909507e-08	-1.896295e-11	7.249281e-01	-1.935124e+00
1.870000e-06	1.437017e-07	-1.881663e-11	1.051247e+00	-1.848347e+00
1.880000e-06	1.883168e-07	-2.210427e-11	1.377628e+00	-1.765600e+00
1.890000e-06	2.328999e-07	-2.559555e-11	1.703775e+00	-1.690345e+00
1.900000e-06	2.774472e-07	-2.333382e-11	2.029660e+00	-1.625145e+00
1.910000e-06	3.219414e-07	-1.844295e-11	2.355156e+00	-1.571189e+00
1.920000e-06	3.664196e-07	-1.650065e-11	2.680536e+00	-1.528050e+00
1.930000e-06	4.109019e-07	-1.736061e-11	3.005945e+00	-1.493717e+00
1.940000e-06	4.553443e-07	-1.744340e-11	3.331063e+00	-1.464903e+00
1.950000e-06	4.997536e-07	-1.464872e-11	3.655938e+00	-1.437556e+00
1.960000e-06	5.441370e-07	-1.297960e-11	3.980624e+00	-1.407501e+00
1.970000e-06	5.884880e-07	-1.366657e-11	4.305073e+00	-1.371101e+00
1.980000e-06	6.328319e-07	-1.362418e-11	4.629470e+00	-1.325811e+00
1.990000e-06	6.771456e-07	-1.233651e-11	4.953646e+00	-1.270563e+00
2.000000e-06	7.214110e-07	-1.071722e-11	5.277469e+00	-1.205889e+00
2.010000e-06	7.656083e-07	-1.170759e-11	5.600793e+00	-1.133792e+00
2.020000e-06	8.097439e-07	-1.536260e-11	5.923667e+00	-1.057381e+00
2.030000e-06	8.538392e-07	-1.698496e-11	6.246245e+00	-9.803361e-01
2.040000e-06	8.979075e-07	-1.568659e-11	6.568626e+00	-9.062969e-01
2.050000e-06	9.418912e-07	-1.391392e-11	6.890387e+00	-8.382856e-01
2.060000e-06	9.857632e-07	-1.322335e-11	7.211332e+00	-7.782505e-01
2.070000e-06	1.029553e-06	-1.152620e-11	7.531675e+00	-7.268085e-01
2.080000e-06	1.073289e-06	-8.602612e-12	7.851627e+00	-6.832217e-01
2.090000e-06	1.116949e-06	-7.328384e-12	8.171022e+00	-6.456041e-01
2.100000e-06	1.160510e-06	-7.588645e-12	8.489689e+00	-6.113131e-01
2.110000e-06	1.204015e-06	-8.788334e-12	8.807949e+00	-5.774537e-01
2.120000e-06	1.247480e-06	-9.418505e-12	9.125917e+00	-5.414004e-01
2.130000e-06	1.290892e-06	-7.792428e-12	9.443496e+00	-5.012462e-01
2.140000e-06	1.334231e-06	-3.809245e-12	9.760539e+00	-4.560997e-01
2.150000e-06	1.377495e-06	1.118300e-12	1.007704e+01	-4.061825e-01
2.160000e-06	1.420656e-06	4.605101e-12	1.039278e+01	-3.527138e-01
2.170000e-06	1.463676e-06	5.677752e-12	1.070749e+01	-2.976098e-01
2.180000e-06	1.506592e-06	3.775540e-12	1.102145e+01	-2.430547e-01
2.190000e-06	1.549393e-06	-2.537783e-12	1.133455e+01	-1.910268e-01
2.200000e-06	1.592043e-06	-8.721968e-12	1.164656e+01	-1.428655e-01
2.210000e-06	1.634532e-06	-1.055996e-11	1.195738e+01	-9.896103e-02
2.220000e-06	1.676909e-06	-7.403130e-12	1.226740e+01	-5.862190e-02
2.230000e-06	1.719180e-06	-1.224090e-12	1.257663e+01	-2.014608e-02
2.240000e-06	1.761270e-06	6.786801e-12	1.288454e+01	1.891685e-02
2.250000e-06	1.803209e-06	1.391965e-11	1.319135e+01	6.135870e-02
2.260000e-06	1.845027e-06	1.588564e-11	1.349726e+01	1.098327e-01
2.270000e-06	1.886723e-06	1.279233e-11	1.380229e+01	1.663856e-01
2.280000e-06	1.928261e-06	7.805146e-12	1.410616e+01	2.320833e-01
2.290000e-06	1.969645e-06	4.952685e-12	1.440890e+01	3.067981e-01
2.300000e-06	2.010903e-06	2.013618e-12	1.471072e+01	3.891913e-01
2.310000e-06	2.052006e-06	3.463795e-12	1.501141e+01	4.768980e-01
2.320000e-06	2.092967e-06	7.525943e-12	1.531106e+01	5.668790e-01
2.330000e-06	2.133778e-06	1.215290e-11	1.560961e+01	6.558802e-01
2.340000e-06	2.174421e-06	1.310278e-11	1.590694e+01	7.409204e-01
2.350000e-06	2.214925e-06	1.031927e-11	1.620324e+01	8.197239e-01
2.360000e-06	2.255293e-06	7.420189e-12	1.649856e+01	8.910264e-01
2.370000e-06	2.295536e-06	6.603052e-12	1.679295e+01	9.547035e-01
2.380000e-06	2.335660e-06	7.755526e-12	1.708648e+01	1.011706e+00
2.390000e-06	2.375685e-06	7.225201e-12	1.737928e+01	1.063819e+00
2.400000e-06	2.415532e-06	8.586395e-12	1.767078e+01	1.113286e+00
2.410000e-06	2.455130e-06	1.167785e-11	1.796046e+01	1.162384e+00
2.420000e-06	2.494484e-06	1.415822e-11	1.824835e+01	1.213004e+00
2.430000e-06	2.533590e-06	1.282845e-11	1.853443e+01	1.266338e+00
2.440000e-06	2.572496e-06	1.242244e-11	1.881904e+01	1.322711e+00
2.450000e-06	2.611212e-06	1.540739e-11	1.910227e+01	1.381584e+00
2.460000e-06	2.649714e-06	1.941061e-11	1.938393e+01	1.441748e+00
2.470000e-06	2.688001e-06	1.905814e-11	1.966402e+01	1.501633e+00
2.480000e-06	2.726094e-06	1.590859e-11	1.994269e+01	1.559709e+00
2.490000e-06	2.764020e-06	1.311454e-11	2.022014e+01	1.614874e+00
2.500000e-06	2.801810e-06	1.118853e-11	2.049659e+01	1.666769e+00
2.510000e-06	2.839453e-06	9.294603e-12	2.077196e+01	1.715951e+00
2.520000e-06	2.876889e-06	8.819691e-12	2.104583e+01	1.763892e+00
2.530000e-06	2.914121e-06	1.045211e-11	2.131820e+01	1.812790e+00
2.540000e-06	2.951212e-06	1.368777e-11	2.158954e+01	1.865233e+00
2.550000e-06	2.988132e-06	1.757669e-11	2.185962e+01	1.923757e+00
2.560000e-06	3.024842e-06	1.945838e-11	2.212818e+01	1.990390e+00
2.570000e-06	3.061320e-06	2.073652e-11	2.239503e+01	2.066253e+00
2.580000e-06	3.097501e-06	2.154438e-11	2.265971e+01	2.151288e+00
2.590000e-06	3.133341e-06	2.213583e-11	2.292189e+01	2.244176e+00
2.600000e-06	3.168906e-06	2.405376e-11	2.318207e+01	2.342448e+00
2.610000e-06	3.204253e-06	2.428204e-11	2.344065e+01	2.442796e+00
2.620000e-06	3.239389e-06	2.414584e-11	2.369769e+01	2.541512e+00
2.630000e-06	3.274324e-06	2.580515e-11	2.395326e+01	2.635003e+00
2.640000e-06	3.309061e-06	2.581584e-11	2.420738e+01	2.720296e+00
2.650000e-06	3.343617e-06	2.436406e-11	2.446017e+01	2.795439e+00
2.660000e-06	3.377957e-06	2.040878e-11	2.471138e+01	2.859747e+00
2.670000e-06	3.412050e-06	1.820112e-11	2.496079e+01	2.913842e+00
2.680000e-06	3.445930e-06	1.867280e-11	2.520864e+01	2.959495e+00
2.690000e-06	3.479628e-06	2.135011e-11	2.545515e+01	2.999285e+00
2.700000e-06	3.513095e-06	2.499910e-11	2.569998e+01	3.036143e+00
2.710000e-06	3.546296e-06	2.807962e-11	2.594286e+01	3.072852e+00
2.720000e-06	3.579251e-06	2.923133e-11	2.618395e+01	3.111594e+00
2.730000e-06	3.611946e-06	2.850977e-11	2.642312e+01	3.153611e+00
2.740000e-06	3.644371e-06	2.651231e-11	2.666033e+01	3.199035e+00
2.750000e-06	3.676560e-06	2.648826e-11	2.689580e+01	3.246916e+00
2.760000e-06	3.708513e-06	3.133474e-11	2.712955e+01	3.295430e+00
2.770000e-06	3.740176e-06	3.986870e-11	2.736119e+01	3.342236e+00
2.780000e-06	3.771514e-06	4.614205e-11	2.759044e+01	3.384910e+00
2.790000e-06	3.802556e-06	4.474187e-11	2.781753e+01	3.421387e+00
2.800000e-06	3.833352e-06	4.067567e-11	2.804281e+01	3.450323e+00
2.810000e-06	3.863914e-06	3.730779e-11	2.826639e+01	3.471345e+00
2.820000e-06	3.894190e-06	3.415928e-11	2.848787e+01	3.485115e+00
2.830000e-06	3.924121e-06	3.034242e-11	2.870683e+01	3.493240e+00
2.840000e-06	3.953646e-06	2.956956e-11	2.892282e+01	3.498020e+00
2.850000e-06	3.982787e-06	3.460506e-11	2.913601e+01	3.502110e+00
2.860000e-06	4.011643e-06	4.226763e-11	2.934710e+01	3.508140e+00
2.870000e-06	4.040240e-06	4.650745e-11	2.955630e+01	3.518370e+00
2.880000e-06	4.068568e-06	4.554231e-11	2.976353e+01	3.534434e+00
2.890000e-06	4.096612e-06	4.267207e-11	2.996869e+01	3.557211e+00
2.900000e-06	4.124382e-06	4.144344e-11	3.017184e+01	3.586843e+00
