# Temperatura_=_20.0
# Concentracion g/m^3_=_10000.0
# C_Vs_to_Am_M_A/Vsm_=_65563218390.804596
# pendiente_HvsI_1/m_=_3716.3
# ordenada_HvsI_A/m_=_1297.0
# frecuencia_Hz_=_135350.26949674837

Tiempo_(s)	Campo_(V.s)	Magnetizacion_(V.s)	Campo_(kA/m)	Magnetizacion_(A/m)
0.000000e+00	-5.293703e-06	-9.625593e-09	-3.844631e+01	-6.276016e+02
1.000000e-08	-5.293677e-06	-9.626744e-09	-3.844612e+01	-6.276942e+02
2.000000e-08	-5.293344e-06	-9.627468e-09	-3.844370e+01	-6.277767e+02
3.000000e-08	-5.292523e-06	-9.625560e-09	-3.843775e+01	-6.278392e+02
4.000000e-08	-5.291260e-06	-9.623622e-09	-3.842857e+01	-6.278715e+02
5.000000e-08	-5.289702e-06	-9.622251e-09	-3.841725e+01	-6.278634e+02
6.000000e-08	-5.287827e-06	-9.623041e-09	-3.840364e+01	-6.278066e+02
7.000000e-08	-5.285593e-06	-9.624478e-09	-3.838742e+01	-6.276956e+02
8.000000e-08	-5.282957e-06	-9.610950e-09	-3.836827e+01	-6.275283e+02
9.000000e-08	-5.279736e-06	-9.587543e-09	-3.834487e+01	-6.273070e+02
1.000000e-07	-5.275717e-06	-9.605273e-09	-3.831569e+01	-6.270375e+02
1.100000e-07	-5.271067e-06	-9.642008e-09	-3.828192e+01	-6.267292e+02
1.200000e-07	-5.266260e-06	-9.582979e-09	-3.824701e+01	-6.263940e+02
1.300000e-07	-5.261462e-06	-9.563998e-09	-3.821216e+01	-6.260449e+02
1.400000e-07	-5.256249e-06	-9.597526e-09	-3.817430e+01	-6.256943e+02
1.500000e-07	-5.250392e-06	-9.640407e-09	-3.813176e+01	-6.253532e+02
1.600000e-07	-5.244257e-06	-9.539869e-09	-3.808721e+01	-6.250293e+02
1.700000e-07	-5.237927e-06	-9.534327e-09	-3.804123e+01	-6.247263e+02
1.800000e-07	-5.230988e-06	-9.589167e-09	-3.799084e+01	-6.244434e+02
1.900000e-07	-5.223593e-06	-9.566927e-09	-3.793713e+01	-6.241757e+02
2.000000e-07	-5.216050e-06	-9.516499e-09	-3.788235e+01	-6.239142e+02
2.100000e-07	-5.208165e-06	-9.553396e-09	-3.782508e+01	-6.236476e+02
2.200000e-07	-5.199830e-06	-9.579232e-09	-3.776455e+01	-6.233631e+02
2.300000e-07	-5.191296e-06	-9.526887e-09	-3.770257e+01	-6.230484e+02
2.400000e-07	-5.182500e-06	-9.545692e-09	-3.763868e+01	-6.226928e+02
2.500000e-07	-5.173179e-06	-9.573546e-09	-3.757099e+01	-6.222886e+02
2.600000e-07	-5.163450e-06	-9.527944e-09	-3.750034e+01	-6.218317e+02
2.700000e-07	-5.153427e-06	-9.470778e-09	-3.742754e+01	-6.213225e+02
2.800000e-07	-5.142920e-06	-9.528441e-09	-3.735123e+01	-6.207649e+02
2.900000e-07	-5.131902e-06	-9.486413e-09	-3.727121e+01	-6.201661e+02
3.000000e-07	-5.120585e-06	-9.443739e-09	-3.718902e+01	-6.195355e+02
3.100000e-07	-5.109009e-06	-9.452375e-09	-3.710495e+01	-6.188830e+02
3.200000e-07	-5.097127e-06	-9.489758e-09	-3.701865e+01	-6.182181e+02
3.300000e-07	-5.084931e-06	-9.434262e-09	-3.693008e+01	-6.175482e+02
3.400000e-07	-5.072401e-06	-9.455792e-09	-3.683908e+01	-6.168781e+02
3.500000e-07	-5.059490e-06	-9.452718e-09	-3.674531e+01	-6.162094e+02
3.600000e-07	-5.046277e-06	-9.410901e-09	-3.664935e+01	-6.155401e+02
3.700000e-07	-5.032671e-06	-9.408256e-09	-3.655053e+01	-6.148658e+02
3.800000e-07	-5.018553e-06	-9.420437e-09	-3.644800e+01	-6.141798e+02
3.900000e-07	-5.004021e-06	-9.376610e-09	-3.634245e+01	-6.134747e+02
4.000000e-07	-4.989167e-06	-9.359062e-09	-3.623458e+01	-6.127433e+02
4.100000e-07	-4.973909e-06	-9.374180e-09	-3.612377e+01	-6.119798e+02
4.200000e-07	-4.958318e-06	-9.347086e-09	-3.601053e+01	-6.111808e+02
4.300000e-07	-4.942458e-06	-9.337799e-09	-3.589534e+01	-6.103453e+02
4.400000e-07	-4.926292e-06	-9.316499e-09	-3.577794e+01	-6.094754e+02
4.500000e-07	-4.909824e-06	-9.302329e-09	-3.565833e+01	-6.085751e+02
4.600000e-07	-4.892947e-06	-9.293906e-09	-3.553576e+01	-6.076506e+02
4.700000e-07	-4.875593e-06	-9.290090e-09	-3.540973e+01	-6.067082e+02
4.800000e-07	-4.857893e-06	-9.242137e-09	-3.528118e+01	-6.057543e+02
4.900000e-07	-4.839857e-06	-9.239799e-09	-3.515019e+01	-6.047936e+02
5.000000e-07	-4.821433e-06	-9.229440e-09	-3.501638e+01	-6.038289e+02
5.100000e-07	-4.802622e-06	-9.207511e-09	-3.487977e+01	-6.028602e+02
5.200000e-07	-4.783483e-06	-9.188552e-09	-3.474076e+01	-6.018852e+02
5.300000e-07	-4.764010e-06	-9.182137e-09	-3.459934e+01	-6.008993e+02
5.400000e-07	-4.744038e-06	-9.161072e-09	-3.445429e+01	-5.998962e+02
5.500000e-07	-4.723587e-06	-9.157099e-09	-3.430576e+01	-5.988692e+02
5.600000e-07	-4.702721e-06	-9.139882e-09	-3.415422e+01	-5.978120e+02
5.700000e-07	-4.681484e-06	-9.106329e-09	-3.399998e+01	-5.967193e+02
5.800000e-07	-4.659944e-06	-9.087757e-09	-3.384354e+01	-5.955881e+02
5.900000e-07	-4.638108e-06	-9.071468e-09	-3.368496e+01	-5.944176e+02
6.000000e-07	-4.615980e-06	-9.048227e-09	-3.352425e+01	-5.932095e+02
6.100000e-07	-4.593586e-06	-9.019557e-09	-3.336161e+01	-5.919674e+02
6.200000e-07	-4.570873e-06	-8.999880e-09	-3.319665e+01	-5.906966e+02
6.300000e-07	-4.547750e-06	-8.981530e-09	-3.302872e+01	-5.894029e+02
6.400000e-07	-4.524190e-06	-8.972891e-09	-3.285761e+01	-5.880918e+02
6.500000e-07	-4.500283e-06	-8.948225e-09	-3.268399e+01	-5.867677e+02
6.600000e-07	-4.476094e-06	-8.924311e-09	-3.250831e+01	-5.854333e+02
6.700000e-07	-4.451589e-06	-8.904051e-09	-3.233033e+01	-5.840891e+02
6.800000e-07	-4.426768e-06	-8.886722e-09	-3.215007e+01	-5.827337e+02
6.900000e-07	-4.401635e-06	-8.855995e-09	-3.196753e+01	-5.813636e+02
7.000000e-07	-4.376233e-06	-8.827819e-09	-3.178305e+01	-5.799744e+02
7.100000e-07	-4.350617e-06	-8.803455e-09	-3.159701e+01	-5.785610e+02
7.200000e-07	-4.324677e-06	-8.784471e-09	-3.140862e+01	-5.771186e+02
7.300000e-07	-4.298270e-06	-8.761039e-09	-3.121683e+01	-5.756435e+02
7.400000e-07	-4.271487e-06	-8.732915e-09	-3.102232e+01	-5.741336e+02
7.500000e-07	-4.244451e-06	-8.708255e-09	-3.082597e+01	-5.725888e+02
7.600000e-07	-4.217176e-06	-8.688872e-09	-3.062788e+01	-5.710104e+02
7.700000e-07	-4.189644e-06	-8.666192e-09	-3.042792e+01	-5.694016e+02
7.800000e-07	-4.161814e-06	-8.638446e-09	-3.022580e+01	-5.677664e+02
7.900000e-07	-4.133667e-06	-8.610677e-09	-3.002138e+01	-5.661089e+02
8.000000e-07	-4.105238e-06	-8.585060e-09	-2.981491e+01	-5.644329e+02
8.100000e-07	-4.076572e-06	-8.561526e-09	-2.960672e+01	-5.627410e+02
8.200000e-07	-4.047613e-06	-8.532709e-09	-2.939640e+01	-5.610341e+02
8.300000e-07	-4.018283e-06	-8.501834e-09	-2.918338e+01	-5.593114e+02
8.400000e-07	-3.988575e-06	-8.474635e-09	-2.896763e+01	-5.575701e+02
8.500000e-07	-3.958557e-06	-8.454164e-09	-2.874961e+01	-5.558061e+02
8.600000e-07	-3.928265e-06	-8.428440e-09	-2.852962e+01	-5.540145e+02
8.700000e-07	-3.897680e-06	-8.395348e-09	-2.830749e+01	-5.521900e+02
8.800000e-07	-3.866831e-06	-8.361164e-09	-2.808344e+01	-5.503279e+02
8.900000e-07	-3.835671e-06	-8.331734e-09	-2.785714e+01	-5.484243e+02
9.000000e-07	-3.804115e-06	-8.299469e-09	-2.762796e+01	-5.464770e+02
9.100000e-07	-3.772172e-06	-8.263886e-09	-2.739596e+01	-5.444855e+02
9.200000e-07	-3.739901e-06	-8.228456e-09	-2.716159e+01	-5.424507e+02
9.300000e-07	-3.707384e-06	-8.199479e-09	-2.692544e+01	-5.403750e+02
9.400000e-07	-3.674630e-06	-8.176167e-09	-2.668755e+01	-5.382616e+02
9.500000e-07	-3.641601e-06	-8.151122e-09	-2.644767e+01	-5.361142e+02
9.600000e-07	-3.608337e-06	-8.118840e-09	-2.620609e+01	-5.339359e+02
9.700000e-07	-3.574892e-06	-8.085278e-09	-2.596319e+01	-5.317292e+02
9.800000e-07	-3.541288e-06	-8.054443e-09	-2.571914e+01	-5.294955e+02
9.900000e-07	-3.507497e-06	-8.021185e-09	-2.547372e+01	-5.272347e+02
1.000000e-06	-3.473501e-06	-7.982560e-09	-2.522683e+01	-5.249454e+02
1.010000e-06	-3.439297e-06	-7.941790e-09	-2.497842e+01	-5.226255e+02
1.020000e-06	-3.404860e-06	-7.905367e-09	-2.472831e+01	-5.202718e+02
1.030000e-06	-3.370174e-06	-7.870470e-09	-2.447639e+01	-5.178812e+02
1.040000e-06	-3.335248e-06	-7.833754e-09	-2.422274e+01	-5.154506e+02
1.050000e-06	-3.300117e-06	-7.795696e-09	-2.396760e+01	-5.129779e+02
1.060000e-06	-3.264735e-06	-7.758471e-09	-2.371063e+01	-5.104615e+02
1.070000e-06	-3.229061e-06	-7.720533e-09	-2.345154e+01	-5.079011e+02
1.080000e-06	-3.193120e-06	-7.678782e-09	-2.319051e+01	-5.052974e+02
1.090000e-06	-3.156892e-06	-7.632195e-09	-2.292740e+01	-5.026518e+02
1.100000e-06	-3.120432e-06	-7.584943e-09	-2.266261e+01	-4.999662e+02
1.110000e-06	-3.083781e-06	-7.541608e-09	-2.239642e+01	-4.972428e+02
1.120000e-06	-3.046929e-06	-7.500752e-09	-2.212878e+01	-4.944835e+02
1.130000e-06	-3.009904e-06	-7.458802e-09	-2.185988e+01	-4.916900e+02
1.140000e-06	-2.972692e-06	-7.418291e-09	-2.158962e+01	-4.888634e+02
1.150000e-06	-2.935265e-06	-7.379818e-09	-2.131780e+01	-4.860042e+02
1.160000e-06	-2.897605e-06	-7.339903e-09	-2.104429e+01	-4.831124e+02
1.170000e-06	-2.859713e-06	-7.295899e-09	-2.076910e+01	-4.801875e+02
1.180000e-06	-2.821643e-06	-7.247693e-09	-2.049261e+01	-4.772291e+02
1.190000e-06	-2.783422e-06	-7.196675e-09	-2.021502e+01	-4.742364e+02
1.200000e-06	-2.745010e-06	-7.144830e-09	-1.993605e+01	-4.712090e+02
1.210000e-06	-2.706361e-06	-7.093033e-09	-1.965535e+01	-4.681465e+02
1.220000e-06	-2.667461e-06	-7.041854e-09	-1.937284e+01	-4.650487e+02
1.230000e-06	-2.628306e-06	-6.995595e-09	-1.908847e+01	-4.619152e+02
1.240000e-06	-2.588906e-06	-6.952302e-09	-1.880232e+01	-4.587459e+02
1.250000e-06	-2.549316e-06	-6.907191e-09	-1.851479e+01	-4.555398e+02
1.260000e-06	-2.509559e-06	-6.858090e-09	-1.822605e+01	-4.522960e+02
1.270000e-06	-2.469648e-06	-6.806396e-09	-1.793619e+01	-4.490125e+02
1.280000e-06	-2.429589e-06	-6.752774e-09	-1.764526e+01	-4.456873e+02
1.290000e-06	-2.389364e-06	-6.699449e-09	-1.735311e+01	-4.423175e+02
1.300000e-06	-2.348992e-06	-6.644184e-09	-1.705991e+01	-4.389003e+02
1.310000e-06	-2.308494e-06	-6.588240e-09	-1.676579e+01	-4.354328e+02
1.320000e-06	-2.267809e-06	-6.535394e-09	-1.647030e+01	-4.319124e+02
1.330000e-06	-2.226891e-06	-6.484949e-09	-1.617313e+01	-4.283372e+02
1.340000e-06	-2.185809e-06	-6.432209e-09	-1.587477e+01	-4.247062e+02
1.350000e-06	-2.144621e-06	-6.372551e-09	-1.557563e+01	-4.210192e+02
1.360000e-06	-2.103328e-06	-6.311742e-09	-1.527574e+01	-4.172771e+02
1.370000e-06	-2.061929e-06	-6.251969e-09	-1.497507e+01	-4.134813e+02
1.380000e-06	-2.020416e-06	-6.192171e-09	-1.467357e+01	-4.096337e+02
1.390000e-06	-1.978785e-06	-6.131476e-09	-1.437123e+01	-4.057364e+02
1.400000e-06	-1.937015e-06	-6.072476e-09	-1.406786e+01	-4.017912e+02
1.410000e-06	-1.895081e-06	-6.015324e-09	-1.376331e+01	-3.977990e+02
1.420000e-06	-1.852949e-06	-5.956857e-09	-1.345732e+01	-3.937602e+02
1.430000e-06	-1.810626e-06	-5.892201e-09	-1.314994e+01	-3.896739e+02
1.440000e-06	-1.768118e-06	-5.825530e-09	-1.284122e+01	-3.855384e+02
1.450000e-06	-1.725406e-06	-5.760993e-09	-1.253102e+01	-3.813511e+02
1.460000e-06	-1.682557e-06	-5.697485e-09	-1.221982e+01	-3.771092e+02
1.470000e-06	-1.639618e-06	-5.631555e-09	-1.190797e+01	-3.728095e+02
1.480000e-06	-1.596572e-06	-5.562950e-09	-1.159534e+01	-3.684491e+02
1.490000e-06	-1.553427e-06	-5.494034e-09	-1.128200e+01	-3.640259e+02
1.500000e-06	-1.510194e-06	-5.425239e-09	-1.096801e+01	-3.595387e+02
1.510000e-06	-1.466884e-06	-5.354330e-09	-1.065346e+01	-3.549869e+02
1.520000e-06	-1.423505e-06	-5.280733e-09	-1.033842e+01	-3.503711e+02
1.530000e-06	-1.380046e-06	-5.207235e-09	-1.002279e+01	-3.456927e+02
1.540000e-06	-1.336504e-06	-5.134777e-09	-9.706564e+00	-3.409532e+02
1.550000e-06	-1.292861e-06	-5.063223e-09	-9.389601e+00	-3.361543e+02
1.560000e-06	-1.249126e-06	-4.989245e-09	-9.071969e+00	-3.312971e+02
1.570000e-06	-1.205338e-06	-4.914080e-09	-8.753946e+00	-3.263822e+02
1.580000e-06	-1.161465e-06	-4.837990e-09	-8.435315e+00	-3.214091e+02
1.590000e-06	-1.117460e-06	-4.762194e-09	-8.115721e+00	-3.163761e+02
1.600000e-06	-1.073353e-06	-4.683927e-09	-7.795384e+00	-3.112808e+02
1.610000e-06	-1.029165e-06	-4.603900e-09	-7.474467e+00	-3.061198e+02
1.620000e-06	-9.849250e-07	-4.524618e-09	-7.153166e+00	-3.008892e+02
1.630000e-06	-9.406347e-07	-4.447413e-09	-6.831501e+00	-2.955853e+02
1.640000e-06	-8.962878e-07	-4.369855e-09	-6.509425e+00	-2.902044e+02
1.650000e-06	-8.519085e-07	-4.286407e-09	-6.187114e+00	-2.847437e+02
1.660000e-06	-8.075186e-07	-4.198432e-09	-5.864726e+00	-2.792010e+02
1.670000e-06	-7.630758e-07	-4.110055e-09	-5.541953e+00	-2.735752e+02
1.680000e-06	-7.185457e-07	-4.022222e-09	-5.218547e+00	-2.678662e+02
1.690000e-06	-6.740014e-07	-3.931506e-09	-4.895037e+00	-2.620745e+02
1.700000e-06	-6.294318e-07	-3.838200e-09	-4.571343e+00	-2.562009e+02
1.710000e-06	-5.847929e-07	-3.747140e-09	-4.247146e+00	-2.502466e+02
1.720000e-06	-5.401001e-07	-3.660262e-09	-3.922559e+00	-2.442124e+02
1.730000e-06	-4.953632e-07	-3.572821e-09	-3.597650e+00	-2.380983e+02
1.740000e-06	-4.506014e-07	-3.481677e-09	-3.272561e+00	-2.319038e+02
1.750000e-06	-4.058005e-07	-3.389198e-09	-2.947187e+00	-2.256274e+02
1.760000e-06	-3.609408e-07	-3.294935e-09	-2.621387e+00	-2.192667e+02
1.770000e-06	-3.161111e-07	-3.194527e-09	-2.295804e+00	-2.128187e+02
1.780000e-06	-2.712980e-07	-3.090494e-09	-1.970343e+00	-2.062797e+02
1.790000e-06	-2.264522e-07	-2.984112e-09	-1.644643e+00	-1.996457e+02
1.800000e-06	-1.815971e-07	-2.879136e-09	-1.318876e+00	-1.929128e+02
1.810000e-06	-1.367116e-07	-2.775378e-09	-9.928883e-01	-1.860774e+02
1.820000e-06	-9.183272e-08	-2.668881e-09	-6.669490e-01	-1.791363e+02
1.830000e-06	-4.695401e-08	-2.562675e-09	-3.410106e-01	-1.720866e+02
1.840000e-06	-2.018094e-09	-2.456654e-09	-1.465671e-02	-1.649262e+02
1.850000e-06	4.294373e-08	-2.350794e-09	3.118853e-01	-1.576534e+02
1.860000e-06	8.790568e-08	-2.239053e-09	6.384282e-01	-1.502670e+02
1.870000e-06	1.328381e-07	-2.120148e-09	9.647570e-01	-1.427659e+02
1.880000e-06	1.776988e-07	-1.998995e-09	1.290564e+00	-1.351495e+02
1.890000e-06	2.225367e-07	-1.876524e-09	1.616206e+00	-1.274169e+02
1.900000e-06	2.674149e-07	-1.755854e-09	1.942141e+00	-1.195677e+02
1.910000e-06	3.122786e-07	-1.636518e-09	2.267970e+00	-1.116011e+02
1.920000e-06	3.570744e-07	-1.515815e-09	2.593307e+00	-1.035168e+02
1.930000e-06	4.018252e-07	-1.395419e-09	2.918316e+00	-9.531446e+01
1.940000e-06	4.465248e-07	-1.272668e-09	3.242954e+00	-8.699403e+01
1.950000e-06	4.912065e-07	-1.142511e-09	3.567461e+00	-7.855574e+01
1.960000e-06	5.358909e-07	-1.005673e-09	3.891989e+00	-7.000018e+01
1.970000e-06	5.805587e-07	-8.656991e-10	4.216395e+00	-6.132829e+01
1.980000e-06	6.251762e-07	-7.264120e-10	4.540436e+00	-5.254134e+01
1.990000e-06	6.697514e-07	-5.888112e-10	4.864170e+00	-4.364092e+01
2.000000e-06	7.143001e-07	-4.503774e-10	5.187712e+00	-3.462897e+01
2.010000e-06	7.588306e-07	-3.107444e-10	5.511122e+00	-2.550772e+01
2.020000e-06	8.033253e-07	-1.726329e-10	5.834271e+00	-1.627978e+01
2.030000e-06	8.477383e-07	-3.363926e-11	6.156827e+00	-6.948266e+00
2.040000e-06	8.920852e-07	1.080841e-10	6.478903e+00	2.483114e+00
2.050000e-06	9.363585e-07	2.522615e-10	6.800445e+00	1.200984e+01
2.060000e-06	9.805430e-07	3.992228e-10	7.121341e+00	2.162644e+01
2.070000e-06	1.024642e-06	5.504200e-10	7.441617e+00	3.132628e+01
2.080000e-06	1.068691e-06	7.034049e-10	7.761530e+00	4.110154e+01
2.090000e-06	1.112708e-06	8.550869e-10	8.081207e+00	5.094315e+01
2.100000e-06	1.156665e-06	1.005419e-09	8.400456e+00	6.084092e+01
2.110000e-06	1.200536e-06	1.155561e-09	8.719076e+00	7.078371e+01
2.120000e-06	1.244325e-06	1.304875e-09	9.037096e+00	8.075976e+01
2.130000e-06	1.288055e-06	1.454712e-09	9.354691e+00	9.075703e+01
2.140000e-06	1.331701e-06	1.609384e-09	9.671682e+00	1.007636e+02
2.150000e-06	1.375237e-06	1.767523e-09	9.987866e+00	1.107680e+02
2.160000e-06	1.418672e-06	1.924474e-09	1.030332e+01	1.207594e+02
2.170000e-06	1.462002e-06	2.076271e-09	1.061801e+01	1.307282e+02
2.180000e-06	1.505248e-06	2.226714e-09	1.093209e+01	1.406654e+02
2.190000e-06	1.548414e-06	2.376032e-09	1.124559e+01	1.505631e+02
2.200000e-06	1.591479e-06	2.522243e-09	1.155836e+01	1.604136e+02
2.210000e-06	1.634437e-06	2.667110e-09	1.187034e+01	1.702098e+02
2.220000e-06	1.677292e-06	2.814680e-09	1.218159e+01	1.799444e+02
2.230000e-06	1.720003e-06	2.964768e-09	1.249178e+01	1.896094e+02
2.240000e-06	1.762553e-06	3.114989e-09	1.280081e+01	1.991963e+02
2.250000e-06	1.804969e-06	3.262509e-09	1.310886e+01	2.086954e+02
2.260000e-06	1.847219e-06	3.404472e-09	1.341570e+01	2.180964e+02
2.270000e-06	1.889299e-06	3.541807e-09	1.372132e+01	2.273881e+02
2.280000e-06	1.931210e-06	3.677470e-09	1.402571e+01	2.365592e+02
2.290000e-06	1.972943e-06	3.811210e-09	1.432880e+01	2.455984e+02
2.300000e-06	2.014512e-06	3.943877e-09	1.463070e+01	2.544952e+02
2.310000e-06	2.055946e-06	4.079029e-09	1.493161e+01	2.632402e+02
2.320000e-06	2.097245e-06	4.211091e-09	1.523156e+01	2.718257e+02
2.330000e-06	2.138394e-06	4.339323e-09	1.553041e+01	2.802459e+02
2.340000e-06	2.179434e-06	4.462953e-09	1.582847e+01	2.884972e+02
2.350000e-06	2.220335e-06	4.580518e-09	1.612552e+01	2.965777e+02
2.360000e-06	2.261050e-06	4.694586e-09	1.642121e+01	3.044875e+02
2.370000e-06	2.301605e-06	4.806500e-09	1.671575e+01	3.122278e+02
2.380000e-06	2.342014e-06	4.917915e-09	1.700923e+01	3.198010e+02
2.390000e-06	2.382275e-06	5.026840e-09	1.730163e+01	3.272096e+02
2.400000e-06	2.422404e-06	5.135010e-09	1.759308e+01	3.344561e+02
2.410000e-06	2.462397e-06	5.243530e-09	1.788353e+01	3.415428e+02
2.420000e-06	2.502215e-06	5.350991e-09	1.817271e+01	3.484716e+02
2.430000e-06	2.541823e-06	5.455900e-09	1.846037e+01	3.552436e+02
2.440000e-06	2.581219e-06	5.557292e-09	1.874649e+01	3.618599e+02
2.450000e-06	2.620424e-06	5.653553e-09	1.903122e+01	3.683217e+02
2.460000e-06	2.659362e-06	5.744468e-09	1.931402e+01	3.746302e+02
2.470000e-06	2.698004e-06	5.832765e-09	1.959466e+01	3.807878e+02
2.480000e-06	2.736418e-06	5.919248e-09	1.987364e+01	3.867975e+02
2.490000e-06	2.774668e-06	6.005269e-09	2.015144e+01	3.926635e+02
2.500000e-06	2.812740e-06	6.092967e-09	2.042795e+01	3.983913e+02
2.510000e-06	2.850618e-06	6.182906e-09	2.070304e+01	4.039871e+02
2.520000e-06	2.888337e-06	6.270225e-09	2.097698e+01	4.094577e+02
2.530000e-06	2.925900e-06	6.351213e-09	2.124979e+01	4.148103e+02
2.540000e-06	2.963290e-06	6.426591e-09	2.152134e+01	4.200514e+02
2.550000e-06	3.000486e-06	6.501655e-09	2.179148e+01	4.251868e+02
2.560000e-06	3.037469e-06	6.578181e-09	2.206007e+01	4.302212e+02
2.570000e-06	3.074228e-06	6.653801e-09	2.232704e+01	4.351575e+02
2.580000e-06	3.110779e-06	6.728430e-09	2.259250e+01	4.399975e+02
2.590000e-06	3.147110e-06	6.803521e-09	2.285636e+01	4.447411e+02
2.600000e-06	3.183171e-06	6.878790e-09	2.311826e+01	4.493876e+02
2.610000e-06	3.218887e-06	6.951048e-09	2.337765e+01	4.539353e+02
2.620000e-06	3.254296e-06	7.018604e-09	2.363481e+01	4.583823e+02
2.630000e-06	3.289489e-06	7.082491e-09	2.389041e+01	4.627272e+02
2.640000e-06	3.324474e-06	7.144881e-09	2.414449e+01	4.669690e+02
2.650000e-06	3.359295e-06	7.205326e-09	2.439739e+01	4.711081e+02
2.660000e-06	3.393916e-06	7.261776e-09	2.464882e+01	4.751459e+02
2.670000e-06	3.428274e-06	7.315268e-09	2.489836e+01	4.790849e+02
2.680000e-06	3.462401e-06	7.369884e-09	2.514621e+01	4.829287e+02
2.690000e-06	3.496288e-06	7.426825e-09	2.539232e+01	4.866815e+02
2.700000e-06	3.529950e-06	7.483932e-09	2.563679e+01	4.903477e+02
2.710000e-06	3.563424e-06	7.539419e-09	2.587991e+01	4.939318e+02
2.720000e-06	3.596691e-06	7.591763e-09	2.612151e+01	4.974375e+02
2.730000e-06	3.629719e-06	7.640059e-09	2.636138e+01	5.008681e+02
2.740000e-06	3.662459e-06	7.685375e-09	2.659916e+01	5.042259e+02
2.750000e-06	3.694906e-06	7.729702e-09	2.683481e+01	5.075122e+02
2.760000e-06	3.727107e-06	7.774714e-09	2.706867e+01	5.107278e+02
2.770000e-06	3.759066e-06	7.821191e-09	2.730078e+01	5.138731e+02
2.780000e-06	3.790728e-06	7.866029e-09	2.753073e+01	5.169483e+02
2.790000e-06	3.822074e-06	7.907855e-09	2.775839e+01	5.199538e+02
2.800000e-06	3.853156e-06	7.948327e-09	2.798413e+01	5.228904e+02
2.810000e-06	3.883990e-06	7.988494e-09	2.820807e+01	5.257598e+02
2.820000e-06	3.914568e-06	8.028620e-09	2.843014e+01	5.285642e+02
2.830000e-06	3.944851e-06	8.066282e-09	2.865007e+01	5.313065e+02
2.840000e-06	3.974800e-06	8.101883e-09	2.886758e+01	5.339903e+02
2.850000e-06	4.004374e-06	8.138562e-09	2.908237e+01	5.366190e+02
2.860000e-06	4.033547e-06	8.175500e-09	2.929424e+01	5.391964e+02
2.870000e-06	4.062387e-06	8.209232e-09	2.950370e+01	5.417254e+02
2.880000e-06	4.090976e-06	8.239784e-09	2.971133e+01	5.442085e+02
2.890000e-06	4.119285e-06	8.270800e-09	2.991693e+01	5.466472e+02
2.900000e-06	4.147280e-06	8.305470e-09	3.012025e+01	5.490421e+02
