# Temperatura_=_20.0
# Concentracion g/m^3_=_10000.0
# C_Vs_to_Am_M_A/Vsm_=_65563218390.804596
# pendiente_HvsI_1/m_=_3716.3
# ordenada_HvsI_A/m_=_1297.0
# frecuencia_Hz_=_301483.9705564048

Tiempo_(s)	Campo_(V.s)	Magnetizacion_(V.s)	Campo_(kA/m)	Magnetizacion_(A/m)
0.000000e+00	-8.139790e-06	-1.146965e-08	-5.690348e+01	-8.558611e+02
1.000000e-08	-8.137633e-06	-1.147176e-08	-5.688840e+01	-8.564790e+02
2.000000e-08	-8.132700e-06	-1.147110e-08	-5.685391e+01	-8.567893e+02
3.000000e-08	-8.125224e-06	-1.146820e-08	-5.680165e+01	-8.567921e+02
4.000000e-08	-8.115037e-06	-1.146351e-08	-5.673043e+01	-8.564872e+02
5.000000e-08	-8.101966e-06	-1.145336e-08	-5.663906e+01	-8.558748e+02
6.000000e-08	-8.085954e-06	-1.143838e-08	-5.652712e+01	-8.549552e+02
7.000000e-08	-8.067204e-06	-1.141528e-08	-5.639604e+01	-8.537285e+02
8.000000e-08	-8.046050e-06	-1.140297e-08	-5.624816e+01	-8.521954e+02
9.000000e-08	-8.022123e-06	-1.142708e-08	-5.608090e+01	-8.503563e+02
1.000000e-07	-7.994865e-06	-1.141843e-08	-5.589034e+01	-8.482119e+02
1.100000e-07	-7.964401e-06	-1.139233e-08	-5.567737e+01	-8.457630e+02
1.200000e-07	-7.931050e-06	-1.138394e-08	-5.544422e+01	-8.430104e+02
1.300000e-07	-7.894947e-06	-1.136765e-08	-5.519184e+01	-8.399551e+02
1.400000e-07	-7.856479e-06	-1.131227e-08	-5.492292e+01	-8.365983e+02
1.500000e-07	-7.815875e-06	-1.127931e-08	-5.463906e+01	-8.329410e+02
1.600000e-07	-7.772611e-06	-1.130949e-08	-5.433661e+01	-8.289848e+02
1.700000e-07	-7.726471e-06	-1.123295e-08	-5.401405e+01	-8.247308e+02
1.800000e-07	-7.677648e-06	-1.123748e-08	-5.367274e+01	-8.201808e+02
1.900000e-07	-7.625760e-06	-1.124901e-08	-5.331001e+01	-8.153363e+02
2.000000e-07	-7.570874e-06	-1.118258e-08	-5.292631e+01	-8.101990e+02
2.100000e-07	-7.513300e-06	-1.117065e-08	-5.252383e+01	-8.047709e+02
2.200000e-07	-7.452998e-06	-1.112459e-08	-5.210227e+01	-7.990538e+02
2.300000e-07	-7.390080e-06	-1.111136e-08	-5.166242e+01	-7.930498e+02
2.400000e-07	-7.324381e-06	-1.107424e-08	-5.120314e+01	-7.867610e+02
2.500000e-07	-7.255864e-06	-1.102871e-08	-5.072415e+01	-7.801897e+02
2.600000e-07	-7.184745e-06	-1.099725e-08	-5.022697e+01	-7.733383e+02
2.700000e-07	-7.110886e-06	-1.094908e-08	-4.971064e+01	-7.662093e+02
2.800000e-07	-7.034229e-06	-1.091349e-08	-4.917475e+01	-7.588051e+02
2.900000e-07	-6.954811e-06	-1.085968e-08	-4.861955e+01	-7.511284e+02
3.000000e-07	-6.872712e-06	-1.082408e-08	-4.804561e+01	-7.431821e+02
3.100000e-07	-6.788241e-06	-1.078155e-08	-4.745509e+01	-7.349688e+02
3.200000e-07	-6.701558e-06	-1.073033e-08	-4.684912e+01	-7.264917e+02
3.300000e-07	-6.612579e-06	-1.069157e-08	-4.622708e+01	-7.177537e+02
3.400000e-07	-6.521165e-06	-1.062277e-08	-4.558803e+01	-7.087579e+02
3.500000e-07	-6.427437e-06	-1.055873e-08	-4.493280e+01	-6.995076e+02
3.600000e-07	-6.331487e-06	-1.049750e-08	-4.426203e+01	-6.900062e+02
3.700000e-07	-6.233222e-06	-1.044125e-08	-4.357508e+01	-6.802569e+02
3.800000e-07	-6.132685e-06	-1.038063e-08	-4.287225e+01	-6.702634e+02
3.900000e-07	-6.029955e-06	-1.031120e-08	-4.215408e+01	-6.600292e+02
4.000000e-07	-5.925070e-06	-1.024790e-08	-4.142086e+01	-6.495579e+02
4.100000e-07	-5.818042e-06	-1.017820e-08	-4.067265e+01	-6.388534e+02
4.200000e-07	-5.708906e-06	-1.010536e-08	-3.990971e+01	-6.279194e+02
4.300000e-07	-5.597717e-06	-1.001859e-08	-3.913241e+01	-6.167600e+02
4.400000e-07	-5.484436e-06	-9.930383e-09	-3.834049e+01	-6.053790e+02
4.500000e-07	-5.368966e-06	-9.842383e-09	-3.753326e+01	-5.937806e+02
4.600000e-07	-5.251393e-06	-9.753688e-09	-3.671133e+01	-5.819689e+02
4.700000e-07	-5.131920e-06	-9.664368e-09	-3.587612e+01	-5.699482e+02
4.800000e-07	-5.010614e-06	-9.568503e-09	-3.502810e+01	-5.577228e+02
4.900000e-07	-4.887469e-06	-9.476133e-09	-3.416722e+01	-5.452971e+02
5.000000e-07	-4.762508e-06	-9.378290e-09	-3.329365e+01	-5.326754e+02
5.100000e-07	-4.635842e-06	-9.269044e-09	-3.240815e+01	-5.198625e+02
5.200000e-07	-4.507524e-06	-9.147602e-09	-3.151110e+01	-5.068628e+02
5.300000e-07	-4.377626e-06	-9.023632e-09	-3.060302e+01	-4.936810e+02
5.400000e-07	-4.246143e-06	-8.899653e-09	-2.968385e+01	-4.803219e+02
5.500000e-07	-4.113087e-06	-8.773710e-09	-2.875368e+01	-4.667902e+02
5.600000e-07	-3.978591e-06	-8.645363e-09	-2.781345e+01	-4.530908e+02
5.700000e-07	-3.842667e-06	-8.506430e-09	-2.686323e+01	-4.392286e+02
5.800000e-07	-3.705344e-06	-8.364177e-09	-2.590324e+01	-4.252086e+02
5.900000e-07	-3.566576e-06	-8.217745e-09	-2.493315e+01	-4.110358e+02
6.000000e-07	-3.426322e-06	-8.063951e-09	-2.395266e+01	-3.967153e+02
6.100000e-07	-3.284715e-06	-7.900651e-09	-2.296272e+01	-3.822523e+02
6.200000e-07	-3.141819e-06	-7.728181e-09	-2.196376e+01	-3.676518e+02
6.300000e-07	-2.997704e-06	-7.552551e-09	-2.095629e+01	-3.529193e+02
6.400000e-07	-2.852480e-06	-7.375759e-09	-1.994106e+01	-3.380598e+02
6.500000e-07	-2.706174e-06	-7.189603e-09	-1.891827e+01	-3.230789e+02
6.600000e-07	-2.558912e-06	-6.989579e-09	-1.788879e+01	-3.079818e+02
6.700000e-07	-2.410814e-06	-6.785007e-09	-1.685347e+01	-2.927739e+02
6.800000e-07	-2.261867e-06	-6.577076e-09	-1.581221e+01	-2.774608e+02
6.900000e-07	-2.112225e-06	-6.363147e-09	-1.476610e+01	-2.620479e+02
7.000000e-07	-1.961980e-06	-6.135078e-09	-1.371577e+01	-2.465408e+02
7.100000e-07	-1.810967e-06	-5.893340e-09	-1.266007e+01	-2.309450e+02
7.200000e-07	-1.659217e-06	-5.644218e-09	-1.159922e+01	-2.152660e+02
7.300000e-07	-1.506921e-06	-5.387210e-09	-1.053455e+01	-1.995096e+02
7.400000e-07	-1.354119e-06	-5.119791e-09	-9.466346e+00	-1.836814e+02
7.500000e-07	-1.200779e-06	-4.837154e-09	-8.394382e+00	-1.677870e+02
7.600000e-07	-1.046970e-06	-4.543236e-09	-7.319139e+00	-1.518322e+02
7.700000e-07	-8.928015e-07	-4.241539e-09	-6.241379e+00	-1.358227e+02
7.800000e-07	-7.383467e-07	-3.930466e-09	-5.161619e+00	-1.197643e+02
7.900000e-07	-5.836392e-07	-3.599420e-09	-4.080093e+00	-1.036626e+02
8.000000e-07	-4.287352e-07	-3.247203e-09	-2.997194e+00	-8.752345e+01
8.100000e-07	-2.737023e-07	-2.879711e-09	-1.913393e+00	-7.135268e+01
8.200000e-07	-1.185411e-07	-2.497446e-09	-8.286946e-01	-5.515608e+01
8.300000e-07	3.674251e-08	-2.096642e-09	2.568588e-01	-3.893945e+01
8.400000e-07	1.920370e-07	-1.672284e-09	1.342488e+00	-2.270860e+01
8.500000e-07	3.472019e-07	-1.226642e-09	2.427212e+00	-6.469367e+00
8.600000e-07	5.021531e-07	-7.633983e-10	3.510442e+00	9.772431e+00
8.700000e-07	6.569230e-07	-2.838919e-10	4.592404e+00	2.601097e+01
8.800000e-07	8.115262e-07	2.190103e-10	5.673201e+00	4.224041e+01
8.900000e-07	9.658603e-07	7.449186e-10	6.752117e+00	5.845495e+01
9.000000e-07	1.119823e-06	1.284859e-09	7.828434e+00	7.464875e+01
9.100000e-07	1.273338e-06	1.830750e-09	8.901625e+00	9.081602e+01
9.200000e-07	1.426382e-06	2.378331e-09	9.971522e+00	1.069509e+02
9.300000e-07	1.579000e-06	2.921081e-09	1.103844e+01	1.230478e+02
9.400000e-07	1.731065e-06	3.449810e-09	1.210150e+01	1.391007e+02
9.500000e-07	1.882419e-06	3.954503e-09	1.315958e+01	1.551039e+02
9.600000e-07	2.033041e-06	4.427990e-09	1.421254e+01	1.710517e+02
9.700000e-07	2.182934e-06	4.876088e-09	1.526041e+01	1.869385e+02
9.800000e-07	2.332045e-06	5.300048e-09	1.630281e+01	2.027583e+02
9.900000e-07	2.480331e-06	5.698266e-09	1.733945e+01	2.185057e+02
1.000000e-06	2.627781e-06	6.067637e-09	1.837024e+01	2.341750e+02
1.010000e-06	2.774273e-06	6.407405e-09	1.939433e+01	2.497605e+02
1.020000e-06	2.919761e-06	6.724569e-09	2.041141e+01	2.652566e+02
1.030000e-06	3.064196e-06	7.017889e-09	2.142112e+01	2.806578e+02
1.040000e-06	3.207502e-06	7.286702e-09	2.242294e+01	2.959585e+02
1.050000e-06	3.349646e-06	7.533750e-09	2.341664e+01	3.111534e+02
1.060000e-06	3.490470e-06	7.765575e-09	2.440111e+01	3.262368e+02
1.070000e-06	3.629839e-06	7.986172e-09	2.537541e+01	3.412034e+02
1.080000e-06	3.767839e-06	8.194161e-09	2.634013e+01	3.560479e+02
1.090000e-06	3.904494e-06	8.386768e-09	2.729545e+01	3.707649e+02
1.100000e-06	4.039687e-06	8.563813e-09	2.824056e+01	3.853491e+02
1.110000e-06	4.173496e-06	8.730834e-09	2.917599e+01	3.997953e+02
1.120000e-06	4.305875e-06	8.888734e-09	3.010142e+01	4.140983e+02
1.130000e-06	4.436656e-06	9.035998e-09	3.101569e+01	4.282530e+02
1.140000e-06	4.565855e-06	9.171911e-09	3.191888e+01	4.422543e+02
1.150000e-06	4.693418e-06	9.300652e-09	3.281065e+01	4.560972e+02
1.160000e-06	4.819375e-06	9.425780e-09	3.369119e+01	4.697767e+02
1.170000e-06	4.943697e-06	9.547647e-09	3.456030e+01	4.832880e+02
1.180000e-06	5.066207e-06	9.661683e-09	3.541674e+01	4.966260e+02
1.190000e-06	5.186906e-06	9.767536e-09	3.626052e+01	5.097862e+02
1.200000e-06	5.305709e-06	9.866847e-09	3.709104e+01	5.227637e+02
1.210000e-06	5.422452e-06	9.961356e-09	3.790716e+01	5.355539e+02
1.220000e-06	5.537027e-06	1.005018e-08	3.870813e+01	5.481522e+02
1.230000e-06	5.649441e-06	1.013065e-08	3.949400e+01	5.605541e+02
1.240000e-06	5.759853e-06	1.020725e-08	4.026586e+01	5.727552e+02
1.250000e-06	5.868309e-06	1.028196e-08	4.102406e+01	5.847510e+02
1.260000e-06	5.974704e-06	1.035606e-08	4.176784e+01	5.965373e+02
1.270000e-06	6.078924e-06	1.042783e-08	4.249642e+01	6.081098e+02
1.280000e-06	6.180960e-06	1.049436e-08	4.320973e+01	6.194644e+02
1.290000e-06	6.280746e-06	1.055619e-08	4.390731e+01	6.305970e+02
1.300000e-06	6.378139e-06	1.061627e-08	4.458817e+01	6.415036e+02
1.310000e-06	6.473241e-06	1.067293e-08	4.525300e+01	6.521803e+02
1.320000e-06	6.566185e-06	1.072471e-08	4.590275e+01	6.626233e+02
1.330000e-06	6.656843e-06	1.077396e-08	4.653652e+01	6.728288e+02
1.340000e-06	6.745111e-06	1.082427e-08	4.715359e+01	6.827931e+02
1.350000e-06	6.831076e-06	1.087716e-08	4.775455e+01	6.925128e+02
1.360000e-06	6.914669e-06	1.092672e-08	4.833893e+01	7.019843e+02
1.370000e-06	6.995710e-06	1.096862e-08	4.890547e+01	7.112041e+02
1.380000e-06	7.074249e-06	1.100605e-08	4.945452e+01	7.201691e+02
1.390000e-06	7.150196e-06	1.104446e-08	4.998544e+01	7.288759e+02
1.400000e-06	7.223397e-06	1.108360e-08	5.049718e+01	7.373215e+02
1.410000e-06	7.294042e-06	1.111748e-08	5.099104e+01	7.455029e+02
1.420000e-06	7.362172e-06	1.114422e-08	5.146732e+01	7.534170e+02
1.430000e-06	7.427620e-06	1.117192e-08	5.192486e+01	7.610611e+02
1.440000e-06	7.490488e-06	1.120350e-08	5.236435e+01	7.684323e+02
1.450000e-06	7.550801e-06	1.123351e-08	5.278599e+01	7.755282e+02
1.460000e-06	7.608392e-06	1.125947e-08	5.318859e+01	7.823461e+02
1.470000e-06	7.663218e-06	1.128255e-08	5.357187e+01	7.888835e+02
1.480000e-06	7.715038e-06	1.130604e-08	5.393413e+01	7.951382e+02
1.490000e-06	7.763744e-06	1.133014e-08	5.427462e+01	8.011078e+02
1.500000e-06	7.809670e-06	1.134993e-08	5.459569e+01	8.067903e+02
1.510000e-06	7.852847e-06	1.136172e-08	5.489752e+01	8.121837e+02
1.520000e-06	7.893142e-06	1.137092e-08	5.517922e+01	8.172858e+02
1.530000e-06	7.930729e-06	1.138502e-08	5.544198e+01	8.220951e+02
1.540000e-06	7.965594e-06	1.140225e-08	5.568572e+01	8.266096e+02
1.550000e-06	7.997563e-06	1.141669e-08	5.590920e+01	8.308279e+02
1.560000e-06	8.026825e-06	1.142686e-08	5.611376e+01	8.347483e+02
1.570000e-06	8.053298e-06	1.143653e-08	5.629883e+01	8.383695e+02
1.580000e-06	8.076795e-06	1.144622e-08	5.646310e+01	8.416902e+02
1.590000e-06	8.097531e-06	1.145270e-08	5.660806e+01	8.447091e+02
1.600000e-06	8.115400e-06	1.145286e-08	5.673297e+01	8.474253e+02
1.610000e-06	8.130237e-06	1.144992e-08	5.683670e+01	8.498377e+02
1.620000e-06	8.141998e-06	1.145143e-08	5.691891e+01	8.519455e+02
1.630000e-06	8.150678e-06	1.145701e-08	5.697959e+01	8.537479e+02
1.640000e-06	8.156476e-06	1.146075e-08	5.702013e+01	8.552442e+02
1.650000e-06	8.159412e-06	1.146034e-08	5.704065e+01	8.564340e+02
1.660000e-06	8.159533e-06	1.145970e-08	5.704150e+01	8.573167e+02
1.670000e-06	8.157023e-06	1.145720e-08	5.702395e+01	8.578922e+02
1.680000e-06	8.151732e-06	1.145537e-08	5.698696e+01	8.581601e+02
1.690000e-06	8.143676e-06	1.144697e-08	5.693065e+01	8.581204e+02
1.700000e-06	8.132902e-06	1.143499e-08	5.685533e+01	8.577731e+02
1.710000e-06	8.119247e-06	1.142929e-08	5.675986e+01	8.571183e+02
1.720000e-06	8.102957e-06	1.143287e-08	5.664599e+01	8.561563e+02
1.730000e-06	8.084281e-06	1.143510e-08	5.651542e+01	8.548874e+02
1.740000e-06	8.062929e-06	1.138153e-08	5.636616e+01	8.533120e+02
1.750000e-06	8.038241e-06	1.136179e-08	5.619357e+01	8.514308e+02
1.760000e-06	8.009751e-06	1.136949e-08	5.599441e+01	8.492444e+02
1.770000e-06	7.977820e-06	1.135101e-08	5.577118e+01	8.467535e+02
1.780000e-06	7.943338e-06	1.133812e-08	5.553013e+01	8.439591e+02
1.790000e-06	7.906559e-06	1.137397e-08	5.527301e+01	8.408622e+02
1.800000e-06	7.867667e-06	1.131210e-08	5.500113e+01	8.374639e+02
1.810000e-06	7.826727e-06	1.126576e-08	5.471492e+01	8.337654e+02
1.820000e-06	7.783098e-06	1.131852e-08	5.440992e+01	8.297680e+02
1.830000e-06	7.736716e-06	1.123561e-08	5.408568e+01	8.254732e+02
1.840000e-06	7.687495e-06	1.125501e-08	5.374158e+01	8.208826e+02
1.850000e-06	7.634987e-06	1.122723e-08	5.337451e+01	8.159976e+02
1.860000e-06	7.579570e-06	1.118349e-08	5.298710e+01	8.108202e+02
1.870000e-06	7.521503e-06	1.120956e-08	5.258117e+01	8.053522e+02
1.880000e-06	7.460803e-06	1.112261e-08	5.215683e+01	7.995955e+02
1.890000e-06	7.397368e-06	1.111417e-08	5.171337e+01	7.935522e+02
1.900000e-06	7.331074e-06	1.105481e-08	5.124992e+01	7.872244e+02
1.910000e-06	7.262134e-06	1.103227e-08	5.076798e+01	7.806145e+02
1.920000e-06	7.190393e-06	1.102756e-08	5.026646e+01	7.737248e+02
1.930000e-06	7.115918e-06	1.095934e-08	4.974582e+01	7.665578e+02
1.940000e-06	7.038698e-06	1.094156e-08	4.920598e+01	7.591160e+02
1.950000e-06	6.958809e-06	1.085235e-08	4.864750e+01	7.514022e+02
1.960000e-06	6.876550e-06	1.083618e-08	4.807245e+01	7.434191e+02
1.970000e-06	6.791685e-06	1.078304e-08	4.747917e+01	7.351695e+02
1.980000e-06	6.704256e-06	1.071817e-08	4.686798e+01	7.266564e+02
1.990000e-06	6.614529e-06	1.068947e-08	4.624071e+01	7.178829e+02
2.000000e-06	6.522570e-06	1.062986e-08	4.559785e+01	7.088521e+02
2.010000e-06	6.428266e-06	1.060005e-08	4.493859e+01	6.995672e+02
2.020000e-06	6.331662e-06	1.051430e-08	4.426325e+01	6.900317e+02
2.030000e-06	6.232875e-06	1.045475e-08	4.357266e+01	6.802489e+02
2.040000e-06	6.131812e-06	1.037512e-08	4.286615e+01	6.702222e+02
2.050000e-06	6.028481e-06	1.031534e-08	4.214378e+01	6.599554e+02
2.060000e-06	5.923044e-06	1.025190e-08	4.140670e+01	6.494521e+02
2.070000e-06	5.815604e-06	1.016836e-08	4.065560e+01	6.387161e+02
2.080000e-06	5.706078e-06	1.009956e-08	3.988993e+01	6.277512e+02
2.090000e-06	5.594425e-06	1.002033e-08	3.910939e+01	6.165614e+02
2.100000e-06	5.480554e-06	9.953669e-09	3.831334e+01	6.051506e+02
2.110000e-06	5.364531e-06	9.859119e-09	3.750226e+01	5.935230e+02
2.120000e-06	5.246437e-06	9.764404e-09	3.667669e+01	5.816827e+02
2.130000e-06	5.126373e-06	9.660785e-09	3.583734e+01	5.696340e+02
2.140000e-06	5.004494e-06	9.566916e-09	3.498531e+01	5.573812e+02
2.150000e-06	4.880825e-06	9.469129e-09	3.412077e+01	5.449287e+02
2.160000e-06	4.755401e-06	9.364850e-09	3.324396e+01	5.322810e+02
2.170000e-06	4.628201e-06	9.260297e-09	3.235474e+01	5.194427e+02
2.180000e-06	4.499390e-06	9.151349e-09	3.145425e+01	5.064182e+02
2.190000e-06	4.369080e-06	9.042149e-09	3.054328e+01	4.932123e+02
2.200000e-06	4.237241e-06	8.917276e-09	2.962162e+01	4.798297e+02
2.210000e-06	4.103825e-06	8.783789e-09	2.868893e+01	4.662753e+02
2.220000e-06	3.968813e-06	8.645641e-09	2.774509e+01	4.525539e+02
2.230000e-06	3.832279e-06	8.509060e-09	2.679062e+01	4.386704e+02
2.240000e-06	3.694384e-06	8.370046e-09	2.582663e+01	4.246297e+02
2.250000e-06	3.555177e-06	8.223527e-09	2.485346e+01	4.104371e+02
2.260000e-06	3.414611e-06	8.072342e-09	2.387079e+01	3.960974e+02
2.270000e-06	3.272750e-06	7.916883e-09	2.287907e+01	3.816159e+02
2.280000e-06	3.129605e-06	7.753968e-09	2.187838e+01	3.669978e+02
2.290000e-06	2.985338e-06	7.579340e-09	2.086984e+01	3.522483e+02
2.300000e-06	2.840108e-06	7.391477e-09	1.985457e+01	3.373727e+02
2.310000e-06	2.693886e-06	7.199280e-09	1.883237e+01	3.223763e+02
2.320000e-06	2.546736e-06	7.002887e-09	1.780367e+01	3.072646e+02
2.330000e-06	2.398738e-06	6.802410e-09	1.676905e+01	2.920429e+02
2.340000e-06	2.249906e-06	6.590779e-09	1.572860e+01	2.767167e+02
2.350000e-06	2.100289e-06	6.369914e-09	1.468266e+01	2.612915e+02
2.360000e-06	1.949836e-06	6.143966e-09	1.363088e+01	2.457729e+02
2.370000e-06	1.798536e-06	5.911393e-09	1.257317e+01	2.301664e+02
2.380000e-06	1.646549e-06	5.666541e-09	1.151066e+01	2.144775e+02
2.390000e-06	1.494054e-06	5.406642e-09	1.044460e+01	1.987120e+02
2.400000e-06	1.341209e-06	5.135953e-09	9.376099e+00	1.828755e+02
2.410000e-06	1.187977e-06	4.853713e-09	8.304884e+00	1.669737e+02
2.420000e-06	1.034230e-06	4.560604e-09	7.230075e+00	1.510123e+02
2.430000e-06	8.800352e-07	4.253719e-09	6.152132e+00	1.349969e+02
2.440000e-06	7.255458e-07	3.935127e-09	5.072131e+00	1.189334e+02
2.450000e-06	5.708187e-07	3.603643e-09	3.990468e+00	1.028276e+02
2.460000e-06	4.158963e-07	3.258624e-09	2.907440e+00	8.668510e+01
2.470000e-06	2.608094e-07	2.896472e-09	1.823261e+00	7.051181e+01
2.480000e-06	1.055946e-07	2.512727e-09	7.381886e-01	5.431350e+01
2.490000e-06	-4.962521e-08	2.106896e-09	-3.469189e-01	3.809600e+01
2.500000e-06	-2.047808e-07	1.679773e-09	-1.431577e+00	2.186512e+01
2.510000e-06	-3.598293e-07	1.234957e-09	-2.515487e+00	5.626681e+00
2.520000e-06	-5.147544e-07	7.693927e-10	-3.598535e+00	-1.061349e+01
2.530000e-06	-6.695076e-07	2.824048e-10	-4.680380e+00	-2.684956e+01
2.540000e-06	-8.239586e-07	-2.231572e-10	-5.760113e+00	-4.307572e+01
2.550000e-06	-9.780371e-07	-7.435095e-10	-6.837242e+00	-5.928613e+01
2.560000e-06	-1.131701e-06	-1.277943e-09	-7.911471e+00	-7.547498e+01
2.570000e-06	-1.284924e-06	-1.825587e-09	-8.982621e+00	-9.163647e+01
2.580000e-06	-1.437692e-06	-2.377930e-09	-1.005059e+01	-1.077648e+02
2.590000e-06	-1.590037e-06	-2.921854e-09	-1.111560e+01	-1.238542e+02
2.600000e-06	-1.741898e-06	-3.448065e-09	-1.217723e+01	-1.398988e+02
2.610000e-06	-1.893124e-06	-3.953970e-09	-1.323441e+01	-1.558930e+02
2.620000e-06	-2.043547e-06	-4.435918e-09	-1.428599e+01	-1.718309e+02
2.630000e-06	-2.193112e-06	-4.889123e-09	-1.533156e+01	-1.877069e+02
2.640000e-06	-2.341849e-06	-5.310120e-09	-1.637135e+01	-2.035153e+02
2.650000e-06	-2.489792e-06	-5.701482e-09	-1.740558e+01	-2.192503e+02
2.660000e-06	-2.636951e-06	-6.067194e-09	-1.843434e+01	-2.349064e+02
2.670000e-06	-2.783187e-06	-6.408099e-09	-1.945665e+01	-2.504780e+02
2.680000e-06	-2.928425e-06	-6.723914e-09	-2.047198e+01	-2.659593e+02
2.690000e-06	-3.072640e-06	-7.015149e-09	-2.148015e+01	-2.813450e+02
2.700000e-06	-3.215678e-06	-7.286464e-09	-2.248010e+01	-2.966294e+02
2.710000e-06	-3.357425e-06	-7.541621e-09	-2.347102e+01	-3.118072e+02
2.720000e-06	-3.497901e-06	-7.780240e-09	-2.445305e+01	-3.268727e+02
2.730000e-06	-3.637082e-06	-7.997302e-09	-2.542604e+01	-3.418207e+02
2.740000e-06	-3.774850e-06	-8.194227e-09	-2.638914e+01	-3.566458e+02
2.750000e-06	-3.911234e-06	-8.378372e-09	-2.734257e+01	-3.713426e+02
2.760000e-06	-4.046219e-06	-8.555214e-09	-2.828622e+01	-3.859059e+02
2.770000e-06	-4.179694e-06	-8.722659e-09	-2.921932e+01	-4.003305e+02
2.780000e-06	-4.311740e-06	-8.877522e-09	-3.014243e+01	-4.146111e+02
2.790000e-06	-4.442290e-06	-9.026691e-09	-3.105507e+01	-4.287427e+02
2.800000e-06	-4.571273e-06	-9.173667e-09	-3.195676e+01	-4.427201e+02
2.810000e-06	-4.698686e-06	-9.312214e-09	-3.284748e+01	-4.565385e+02
2.820000e-06	-4.824324e-06	-9.434161e-09	-3.372579e+01	-4.701927e+02
2.830000e-06	-4.948219e-06	-9.541624e-09	-3.459191e+01	-4.836780e+02
2.840000e-06	-5.070477e-06	-9.644660e-09	-3.544658e+01	-4.969894e+02
2.850000e-06	-5.190985e-06	-9.746506e-09	-3.628903e+01	-5.101222e+02
2.860000e-06	-5.309505e-06	-9.844498e-09	-3.711758e+01	-5.230718e+02
2.870000e-06	-5.425836e-06	-9.938847e-09	-3.793082e+01	-5.358333e+02
2.880000e-06	-5.539955e-06	-1.003165e-08	-3.872860e+01	-5.484023e+02
2.890000e-06	-5.651837e-06	-1.012178e-08	-3.951075e+01	-5.607743e+02
2.900000e-06	-5.761569e-06	-1.020705e-08	-4.027786e+01	-5.729448e+02
2.910000e-06	-5.869298e-06	-1.028438e-08	-4.103097e+01	-5.849094e+02
2.920000e-06	-5.975042e-06	-1.035417e-08	-4.177020e+01	-5.966639e+02
2.930000e-06	-6.078667e-06	-1.042139e-08	-4.249462e+01	-6.082040e+02
2.940000e-06	-6.180034e-06	-1.048934e-08	-4.320325e+01	-6.195256e+02
