# Temperatura_=_20.0
# Concentracion g/m^3_=_10000.0
# C_Vs_to_Am_M_A/Vsm_=_65563218390.804596
# pendiente_HvsI_1/m_=_3716.3
# ordenada_HvsI_A/m_=_1297.0
# frecuencia_Hz_=_301479.09768246656

Tiempo_(s)	Campo_(V.s)	Magnetizacion_(V.s)	Campo_(kA/m)	Magnetizacion_(A/m)
0.000000e+00	-8.206256e-06	-1.136518e-08	-5.690733e+01	-8.484825e+02
1.000000e-08	-8.203955e-06	-1.136663e-08	-5.689137e+01	-8.491609e+02
2.000000e-08	-8.198882e-06	-1.136341e-08	-5.685619e+01	-8.495344e+02
3.000000e-08	-8.191263e-06	-1.135741e-08	-5.680336e+01	-8.496029e+02
4.000000e-08	-8.180881e-06	-1.134779e-08	-5.673136e+01	-8.493663e+02
5.000000e-08	-8.167534e-06	-1.133711e-08	-5.663880e+01	-8.488249e+02
6.000000e-08	-8.151216e-06	-1.132380e-08	-5.652565e+01	-8.479786e+02
7.000000e-08	-8.132227e-06	-1.130720e-08	-5.639397e+01	-8.468280e+02
8.000000e-08	-8.110843e-06	-1.131312e-08	-5.624568e+01	-8.453732e+02
9.000000e-08	-8.086617e-06	-1.132312e-08	-5.607767e+01	-8.436150e+02
1.000000e-07	-8.059029e-06	-1.129702e-08	-5.588637e+01	-8.415539e+02
1.100000e-07	-8.028241e-06	-1.127874e-08	-5.567286e+01	-8.391907e+02
1.200000e-07	-7.994534e-06	-1.127229e-08	-5.543911e+01	-8.365261e+02
1.300000e-07	-7.958067e-06	-1.124763e-08	-5.518623e+01	-8.335612e+02
1.400000e-07	-7.919253e-06	-1.119956e-08	-5.491707e+01	-8.302971e+02
1.500000e-07	-7.878255e-06	-1.118799e-08	-5.463277e+01	-8.267348e+02
1.600000e-07	-7.834575e-06	-1.118223e-08	-5.432986e+01	-8.228757e+02
1.700000e-07	-7.787937e-06	-1.112972e-08	-5.400644e+01	-8.187212e+02
1.800000e-07	-7.738461e-06	-1.115462e-08	-5.366334e+01	-8.142727e+02
1.900000e-07	-7.686024e-06	-1.112776e-08	-5.329971e+01	-8.095319e+02
2.000000e-07	-7.630657e-06	-1.108312e-08	-5.291577e+01	-8.045003e+02
2.100000e-07	-7.572481e-06	-1.106280e-08	-5.251233e+01	-7.991800e+02
2.200000e-07	-7.511589e-06	-1.101794e-08	-5.209007e+01	-7.935727e+02
2.300000e-07	-7.448090e-06	-1.101662e-08	-5.164973e+01	-7.876805e+02
2.400000e-07	-7.381787e-06	-1.096591e-08	-5.118994e+01	-7.815054e+02
2.500000e-07	-7.312678e-06	-1.092943e-08	-5.071070e+01	-7.750498e+02
2.600000e-07	-7.240886e-06	-1.089090e-08	-5.021285e+01	-7.683158e+02
2.700000e-07	-7.166322e-06	-1.085415e-08	-4.969578e+01	-7.613060e+02
2.800000e-07	-7.089000e-06	-1.081777e-08	-4.915957e+01	-7.540228e+02
2.900000e-07	-7.008892e-06	-1.076399e-08	-4.860405e+01	-7.464689e+02
3.000000e-07	-6.926126e-06	-1.073776e-08	-4.803010e+01	-7.386470e+02
3.100000e-07	-6.840991e-06	-1.068446e-08	-4.743972e+01	-7.305598e+02
3.200000e-07	-6.753615e-06	-1.064551e-08	-4.683380e+01	-7.222103e+02
3.300000e-07	-6.663883e-06	-1.059517e-08	-4.621155e+01	-7.136015e+02
3.400000e-07	-6.571706e-06	-1.052585e-08	-4.557234e+01	-7.047364e+02
3.500000e-07	-6.477232e-06	-1.046810e-08	-4.491719e+01	-6.956183e+02
3.600000e-07	-6.380459e-06	-1.041588e-08	-4.424610e+01	-6.862503e+02
3.700000e-07	-6.281343e-06	-1.036594e-08	-4.355878e+01	-6.766360e+02
3.800000e-07	-6.179929e-06	-1.029798e-08	-4.285550e+01	-6.667786e+02
3.900000e-07	-6.076270e-06	-1.022992e-08	-4.213667e+01	-6.566818e+02
4.000000e-07	-5.970417e-06	-1.016094e-08	-4.140262e+01	-6.463492e+02
4.100000e-07	-5.862412e-06	-1.009747e-08	-4.065364e+01	-6.357845e+02
4.200000e-07	-5.752337e-06	-1.002381e-08	-3.989031e+01	-6.249914e+02
4.300000e-07	-5.640195e-06	-9.941537e-09	-3.911265e+01	-6.139739e+02
4.400000e-07	-5.525850e-06	-9.859531e-09	-3.831971e+01	-6.027358e+02
4.500000e-07	-5.409316e-06	-9.777897e-09	-3.751159e+01	-5.912814e+02
4.600000e-07	-5.290721e-06	-9.690948e-09	-3.668918e+01	-5.796145e+02
4.700000e-07	-5.170211e-06	-9.596627e-09	-3.585349e+01	-5.677395e+02
4.800000e-07	-5.047844e-06	-9.500025e-09	-3.500492e+01	-5.556605e+02
4.900000e-07	-4.923652e-06	-9.408578e-09	-3.414369e+01	-5.433820e+02
5.000000e-07	-4.797705e-06	-9.319727e-09	-3.327030e+01	-5.309083e+02
5.100000e-07	-4.670052e-06	-9.216644e-09	-3.238507e+01	-5.182439e+02
5.200000e-07	-4.540696e-06	-9.099583e-09	-3.148803e+01	-5.053933e+02
5.300000e-07	-4.409602e-06	-8.975994e-09	-3.057895e+01	-4.923612e+02
5.400000e-07	-4.276977e-06	-8.855991e-09	-2.965924e+01	-4.791522e+02
5.500000e-07	-4.142859e-06	-8.732069e-09	-2.872918e+01	-4.657710e+02
5.600000e-07	-4.007212e-06	-8.602006e-09	-2.778852e+01	-4.522225e+02
5.700000e-07	-3.870104e-06	-8.462953e-09	-2.683773e+01	-4.385116e+02
5.800000e-07	-3.731416e-06	-8.325595e-09	-2.587598e+01	-4.246431e+02
5.900000e-07	-3.591201e-06	-8.185894e-09	-2.490364e+01	-4.106220e+02
6.000000e-07	-3.449614e-06	-8.035173e-09	-2.392179e+01	-3.964534e+02
6.100000e-07	-3.306673e-06	-7.874843e-09	-2.293055e+01	-3.821423e+02
6.200000e-07	-3.162423e-06	-7.706476e-09	-2.193023e+01	-3.676938e+02
6.300000e-07	-3.017021e-06	-7.538313e-09	-2.092192e+01	-3.531133e+02
6.400000e-07	-2.870591e-06	-7.363105e-09	-1.990648e+01	-3.384057e+02
6.500000e-07	-2.723123e-06	-7.177128e-09	-1.888384e+01	-3.235766e+02
6.600000e-07	-2.574735e-06	-6.977724e-09	-1.785483e+01	-3.086311e+02
6.700000e-07	-2.425608e-06	-6.776319e-09	-1.682069e+01	-2.935747e+02
6.800000e-07	-2.275657e-06	-6.573648e-09	-1.578083e+01	-2.784127e+02
6.900000e-07	-2.124828e-06	-6.361206e-09	-1.473489e+01	-2.631506e+02
7.000000e-07	-1.973277e-06	-6.135876e-09	-1.368394e+01	-2.477938e+02
7.100000e-07	-1.821036e-06	-5.900158e-09	-1.262821e+01	-2.323479e+02
7.200000e-07	-1.668114e-06	-5.660221e-09	-1.156775e+01	-2.168184e+02
7.300000e-07	-1.514610e-06	-5.406819e-09	-1.050326e+01	-2.012109e+02
7.400000e-07	-1.360606e-06	-5.139139e-09	-9.435294e+00	-1.855310e+02
7.500000e-07	-1.206085e-06	-4.861167e-09	-8.363753e+00	-1.697843e+02
7.600000e-07	-1.051013e-06	-4.576124e-09	-7.288385e+00	-1.539764e+02
7.700000e-07	-8.954933e-07	-4.281744e-09	-6.209913e+00	-1.381130e+02
7.800000e-07	-7.396591e-07	-3.973565e-09	-5.129260e+00	-1.221999e+02
7.900000e-07	-5.836099e-07	-3.645731e-09	-4.047118e+00	-1.062426e+02
8.000000e-07	-4.273904e-07	-3.301440e-09	-2.963793e+00	-9.024706e+01
8.100000e-07	-2.710214e-07	-2.943452e-09	-1.879432e+00	-7.421886e+01
8.200000e-07	-1.145048e-07	-2.565875e-09	-7.940479e-01	-5.816379e+01
8.300000e-07	4.211173e-08	-2.169071e-09	2.920292e-01	-4.208763e+01
8.400000e-07	1.986784e-07	-1.752677e-09	1.377761e+00	-2.599612e+01
8.500000e-07	3.551374e-07	-1.321212e-09	2.462745e+00	-9.895048e+00
8.600000e-07	5.115078e-07	-8.722865e-10	3.547116e+00	6.209813e+00
8.700000e-07	6.677359e-07	-4.000339e-10	4.630500e+00	2.231268e+01
8.800000e-07	8.236719e-07	9.864242e-11	5.711858e+00	3.840779e+01
8.900000e-07	9.792232e-07	6.155314e-10	6.790548e+00	5.448935e+01
9.000000e-07	1.134374e-06	1.142021e-09	7.866459e+00	7.055161e+01
9.100000e-07	1.289063e-06	1.677158e-09	8.939169e+00	8.658880e+01
9.200000e-07	1.443259e-06	2.218743e-09	1.000846e+01	1.025952e+02
9.300000e-07	1.596971e-06	2.759959e-09	1.107440e+01	1.185649e+02
9.400000e-07	1.750137e-06	3.285983e-09	1.213655e+01	1.344924e+02
9.500000e-07	1.902660e-06	3.790251e-09	1.319424e+01	1.503719e+02
9.600000e-07	2.054479e-06	4.270773e-09	1.424705e+01	1.661977e+02
9.700000e-07	2.205560e-06	4.729379e-09	1.529474e+01	1.819641e+02
9.800000e-07	2.355826e-06	5.161838e-09	1.633678e+01	1.976654e+02
9.900000e-07	2.505237e-06	5.560725e-09	1.737289e+01	2.132961e+02
1.000000e-06	2.653827e-06	5.929104e-09	1.840330e+01	2.288505e+02
1.010000e-06	2.801492e-06	6.272868e-09	1.942730e+01	2.443230e+02
1.020000e-06	2.948137e-06	6.597108e-09	2.044423e+01	2.597082e+02
1.030000e-06	3.093730e-06	6.897872e-09	2.145387e+01	2.750003e+02
1.040000e-06	3.238198e-06	7.172812e-09	2.245570e+01	2.901941e+02
1.050000e-06	3.381440e-06	7.426666e-09	2.344903e+01	3.052840e+02
1.060000e-06	3.523357e-06	7.667274e-09	2.443317e+01	3.202646e+02
1.070000e-06	3.663907e-06	7.891954e-09	2.540783e+01	3.351306e+02
1.080000e-06	3.803086e-06	8.096172e-09	2.637299e+01	3.498766e+02
1.090000e-06	3.940865e-06	8.284763e-09	2.732843e+01	3.644972e+02
1.100000e-06	4.077139e-06	8.463416e-09	2.827344e+01	3.789874e+02
1.110000e-06	4.211905e-06	8.637074e-09	2.920799e+01	3.933418e+02
1.120000e-06	4.345190e-06	8.799644e-09	3.013227e+01	4.075554e+02
1.130000e-06	4.476870e-06	8.947178e-09	3.104542e+01	4.216230e+02
1.140000e-06	4.606941e-06	9.083841e-09	3.194742e+01	4.355396e+02
1.150000e-06	4.735455e-06	9.216469e-09	3.283862e+01	4.493001e+02
1.160000e-06	4.862331e-06	9.344679e-09	3.371845e+01	4.628997e+02
1.170000e-06	4.987507e-06	9.464083e-09	3.458650e+01	4.763335e+02
1.180000e-06	5.110873e-06	9.572836e-09	3.544200e+01	4.895967e+02
1.190000e-06	5.232400e-06	9.675245e-09	3.628474e+01	5.026844e+02
1.200000e-06	5.352039e-06	9.776239e-09	3.711440e+01	5.155920e+02
1.210000e-06	5.469697e-06	9.872279e-09	3.793031e+01	5.283149e+02
1.220000e-06	5.585234e-06	9.958857e-09	3.873152e+01	5.408485e+02
1.230000e-06	5.698578e-06	1.003737e-08	3.951752e+01	5.531883e+02
1.240000e-06	5.809850e-06	1.011515e-08	4.028915e+01	5.653299e+02
1.250000e-06	5.919111e-06	1.019307e-08	4.104683e+01	5.772689e+02
1.260000e-06	6.026309e-06	1.026541e-08	4.179021e+01	5.890011e+02
1.270000e-06	6.131353e-06	1.033071e-08	4.251865e+01	6.005222e+02
1.280000e-06	6.234191e-06	1.039362e-08	4.323179e+01	6.118281e+02
1.290000e-06	6.334746e-06	1.045758e-08	4.392910e+01	6.229147e+02
1.300000e-06	6.432920e-06	1.052131e-08	4.460991e+01	6.337781e+02
1.310000e-06	6.528749e-06	1.057799e-08	4.527444e+01	6.444144e+02
1.320000e-06	6.622359e-06	1.062776e-08	4.592359e+01	6.548197e+02
1.330000e-06	6.713694e-06	1.067719e-08	4.655697e+01	6.649904e+02
1.340000e-06	6.802609e-06	1.072736e-08	4.717356e+01	6.749227e+02
1.350000e-06	6.889115e-06	1.077451e-08	4.777345e+01	6.846132e+02
1.360000e-06	6.973290e-06	1.081540e-08	4.835717e+01	6.940582e+02
1.370000e-06	7.054983e-06	1.085275e-08	4.892368e+01	7.032545e+02
1.380000e-06	7.134106e-06	1.089304e-08	4.947237e+01	7.121988e+02
1.390000e-06	7.210604e-06	1.093623e-08	5.000286e+01	7.208878e+02
1.400000e-06	7.284366e-06	1.097477e-08	5.051436e+01	7.293184e+02
1.410000e-06	7.355488e-06	1.100482e-08	5.100757e+01	7.374876e+02
1.420000e-06	7.424023e-06	1.103188e-08	5.148284e+01	7.453925e+02
1.430000e-06	7.489897e-06	1.106187e-08	5.193965e+01	7.530302e+02
1.440000e-06	7.553132e-06	1.109170e-08	5.237816e+01	7.603980e+02
1.450000e-06	7.613809e-06	1.111732e-08	5.279893e+01	7.674932e+02
1.460000e-06	7.671804e-06	1.114067e-08	5.320110e+01	7.743134e+02
1.470000e-06	7.727016e-06	1.116610e-08	5.358398e+01	7.808560e+02
1.480000e-06	7.779262e-06	1.119359e-08	5.394628e+01	7.871187e+02
1.490000e-06	7.828321e-06	1.121775e-08	5.428649e+01	7.930992e+02
1.500000e-06	7.874462e-06	1.123369e-08	5.460646e+01	7.987955e+02
1.510000e-06	7.917839e-06	1.124469e-08	5.490727e+01	8.042055e+02
1.520000e-06	7.958337e-06	1.125727e-08	5.518810e+01	8.093272e+02
1.530000e-06	7.996057e-06	1.127056e-08	5.544968e+01	8.141587e+02
1.540000e-06	8.031022e-06	1.128206e-08	5.569215e+01	8.186985e+02
1.550000e-06	8.063162e-06	1.129178e-08	5.591502e+01	8.229448e+02
1.560000e-06	8.092571e-06	1.130352e-08	5.611897e+01	8.268960e+02
1.570000e-06	8.119104e-06	1.131912e-08	5.630296e+01	8.305509e+02
1.580000e-06	8.142674e-06	1.133178e-08	5.646641e+01	8.339081e+02
1.590000e-06	8.163485e-06	1.133831e-08	5.661073e+01	8.369663e+02
1.600000e-06	8.181469e-06	1.133982e-08	5.673544e+01	8.397245e+02
1.610000e-06	8.196436e-06	1.133917e-08	5.683923e+01	8.421817e+02
1.620000e-06	8.208220e-06	1.133914e-08	5.692095e+01	8.443370e+02
1.630000e-06	8.216847e-06	1.133805e-08	5.698077e+01	8.461897e+02
1.640000e-06	8.222611e-06	1.133696e-08	5.702075e+01	8.477390e+02
1.650000e-06	8.225548e-06	1.133948e-08	5.704111e+01	8.489845e+02
1.660000e-06	8.225604e-06	1.134475e-08	5.704150e+01	8.499256e+02
1.670000e-06	8.222942e-06	1.134806e-08	5.702304e+01	8.505620e+02
1.680000e-06	8.217506e-06	1.134651e-08	5.698535e+01	8.508936e+02
1.690000e-06	8.209295e-06	1.133782e-08	5.692841e+01	8.509201e+02
1.700000e-06	8.198289e-06	1.132720e-08	5.685208e+01	8.506416e+02
1.710000e-06	8.184383e-06	1.131917e-08	5.675565e+01	8.500582e+02
1.720000e-06	8.167855e-06	1.131258e-08	5.664103e+01	8.491701e+02
1.730000e-06	8.148935e-06	1.129563e-08	5.650983e+01	8.479775e+02
1.740000e-06	8.127332e-06	1.125389e-08	5.636002e+01	8.464811e+02
1.750000e-06	8.102332e-06	1.126270e-08	5.618665e+01	8.446811e+02
1.760000e-06	8.073474e-06	1.126373e-08	5.598653e+01	8.425784e+02
1.770000e-06	8.041184e-06	1.124165e-08	5.576261e+01	8.401737e+02
1.780000e-06	8.006335e-06	1.123964e-08	5.552095e+01	8.374678e+02
1.790000e-06	7.969214e-06	1.125613e-08	5.526353e+01	8.344617e+02
1.800000e-06	7.930037e-06	1.119857e-08	5.499185e+01	8.311565e+02
1.810000e-06	7.888740e-06	1.118915e-08	5.470548e+01	8.275534e+02
1.820000e-06	7.844720e-06	1.119648e-08	5.440021e+01	8.236536e+02
1.830000e-06	7.797911e-06	1.113670e-08	5.407561e+01	8.194586e+02
1.840000e-06	7.748072e-06	1.116909e-08	5.373000e+01	8.149699e+02
1.850000e-06	7.694995e-06	1.112428e-08	5.336193e+01	8.101890e+02
1.860000e-06	7.639084e-06	1.113071e-08	5.297420e+01	8.051178e+02
1.870000e-06	7.580410e-06	1.111173e-08	5.256732e+01	7.997579e+02
1.880000e-06	7.519051e-06	1.103536e-08	5.214182e+01	7.941114e+02
1.890000e-06	7.455038e-06	1.102539e-08	5.169791e+01	7.881803e+02
1.900000e-06	7.388232e-06	1.095496e-08	5.123464e+01	7.819666e+02
1.910000e-06	7.318668e-06	1.095741e-08	5.075224e+01	7.754727e+02
1.920000e-06	7.246260e-06	1.091587e-08	5.025012e+01	7.687008e+02
1.930000e-06	7.171084e-06	1.088565e-08	4.972879e+01	7.616534e+02
1.940000e-06	7.093146e-06	1.086179e-08	4.918833e+01	7.543330e+02
1.950000e-06	7.012587e-06	1.077608e-08	4.862968e+01	7.467423e+02
1.960000e-06	6.929559e-06	1.076312e-08	4.805391e+01	7.388839e+02
1.970000e-06	6.843919e-06	1.068125e-08	4.746003e+01	7.307607e+02
1.980000e-06	6.755810e-06	1.065225e-08	4.684902e+01	7.223756e+02
1.990000e-06	6.665357e-06	1.060815e-08	4.622177e+01	7.137315e+02
2.000000e-06	6.572565e-06	1.056494e-08	4.557829e+01	7.048317e+02
2.010000e-06	6.477461e-06	1.051823e-08	4.491878e+01	6.956793e+02
2.020000e-06	6.380050e-06	1.043296e-08	4.424327e+01	6.862776e+02
2.030000e-06	6.280397e-06	1.038399e-08	4.355221e+01	6.766299e+02
2.040000e-06	6.178531e-06	1.030335e-08	4.284581e+01	6.667398e+02
2.050000e-06	6.074412e-06	1.025828e-08	4.212379e+01	6.566107e+02
2.060000e-06	5.968116e-06	1.018064e-08	4.138666e+01	6.462463e+02
2.070000e-06	5.859721e-06	1.011514e-08	4.063498e+01	6.356503e+02
2.080000e-06	5.749199e-06	1.003766e-08	3.986856e+01	6.248266e+02
2.090000e-06	5.636524e-06	9.961948e-09	3.908720e+01	6.137789e+02
2.100000e-06	5.521661e-06	9.888625e-09	3.829066e+01	6.025113e+02
2.110000e-06	5.404630e-06	9.801063e-09	3.747910e+01	5.910279e+02
2.120000e-06	5.285541e-06	9.717995e-09	3.665326e+01	5.793326e+02
2.130000e-06	5.164493e-06	9.617426e-09	3.581384e+01	5.674298e+02
2.140000e-06	5.041594e-06	9.526565e-09	3.496158e+01	5.553237e+02
2.150000e-06	4.916878e-06	9.419617e-09	3.409672e+01	5.430186e+02
2.160000e-06	4.790351e-06	9.318524e-09	3.321930e+01	5.305190e+02
2.170000e-06	4.662096e-06	9.214633e-09	3.232990e+01	5.178294e+02
2.180000e-06	4.532178e-06	9.114998e-09	3.142897e+01	5.049542e+02
2.190000e-06	4.400751e-06	9.008487e-09	3.051757e+01	4.918981e+02
2.200000e-06	4.267787e-06	8.889055e-09	2.959551e+01	4.786659e+02
2.210000e-06	4.133213e-06	8.757598e-09	2.866230e+01	4.652621e+02
2.220000e-06	3.997122e-06	8.621610e-09	2.771855e+01	4.516918e+02
2.230000e-06	3.859503e-06	8.484066e-09	2.676422e+01	4.379596e+02
2.240000e-06	3.720474e-06	8.342908e-09	2.580010e+01	4.240707e+02
2.250000e-06	3.580128e-06	8.198420e-09	2.482686e+01	4.100298e+02
2.260000e-06	3.438366e-06	8.051455e-09	2.384379e+01	3.958421e+02
2.270000e-06	3.295305e-06	7.898655e-09	2.285171e+01	3.815127e+02
2.280000e-06	3.151113e-06	7.736930e-09	2.185180e+01	3.670467e+02
2.290000e-06	3.005719e-06	7.565236e-09	2.084354e+01	3.524493e+02
2.300000e-06	2.859245e-06	7.384143e-09	1.982780e+01	3.377257e+02
2.310000e-06	2.711872e-06	7.198108e-09	1.880582e+01	3.228812e+02
2.320000e-06	2.563588e-06	7.003586e-09	1.777753e+01	3.079212e+02
2.330000e-06	2.414389e-06	6.804911e-09	1.674289e+01	2.928509e+02
2.340000e-06	2.264234e-06	6.595772e-09	1.570162e+01	2.776759e+02
2.350000e-06	2.113227e-06	6.378817e-09	1.465444e+01	2.624016e+02
2.360000e-06	1.961598e-06	6.152685e-09	1.360295e+01	2.470334e+02
2.370000e-06	1.809320e-06	5.921369e-09	1.254696e+01	2.315768e+02
2.380000e-06	1.656240e-06	5.681635e-09	1.148540e+01	2.160375e+02
2.390000e-06	1.502466e-06	5.430814e-09	1.041904e+01	2.004209e+02
2.400000e-06	1.348236e-06	5.167709e-09	9.349515e+00	1.847327e+02
2.410000e-06	1.193627e-06	4.889388e-09	8.277360e+00	1.689785e+02
2.420000e-06	1.038599e-06	4.597654e-09	7.202296e+00	1.531639e+02
2.430000e-06	8.831768e-07	4.293913e-09	6.124502e+00	1.372947e+02
2.440000e-06	7.274483e-07	3.980026e-09	5.044583e+00	1.213765e+02
2.450000e-06	5.714283e-07	3.652316e-09	3.962642e+00	1.054151e+02
2.460000e-06	4.151621e-07	3.310760e-09	2.878995e+00	8.941613e+01
2.470000e-06	2.587658e-07	2.954157e-09	1.794444e+00	7.338536e+01
2.480000e-06	1.022724e-07	2.582366e-09	7.092209e-01	5.732855e+01
2.490000e-06	-5.425980e-08	2.189517e-09	-3.762715e-01	4.125145e+01
2.500000e-06	-2.107054e-07	1.773481e-09	-1.461163e+00	2.515985e+01
2.510000e-06	-3.670748e-07	1.335459e-09	-2.545527e+00	9.059498e+00
2.520000e-06	-5.233422e-07	8.776422e-10	-3.629183e+00	-7.043814e+00
2.530000e-06	-6.793607e-07	4.019996e-10	-4.711113e+00	-2.314431e+01
2.540000e-06	-8.350817e-07	-9.345955e-11	-5.790981e+00	-3.923622e+01
2.550000e-06	-9.904390e-07	-6.080497e-10	-6.868326e+00	-5.531376e+01
2.560000e-06	-1.145395e-06	-1.138467e-09	-7.942889e+00	-7.137117e+01
2.570000e-06	-1.299969e-06	-1.679197e-09	-9.014801e+00	-8.740268e+01
2.580000e-06	-1.454068e-06	-2.222282e-09	-1.008342e+01	-1.034025e+02
2.590000e-06	-1.607603e-06	-2.759617e-09	-1.114813e+01	-1.193650e+02
2.600000e-06	-1.760549e-06	-3.283957e-09	-1.220875e+01	-1.352844e+02
2.610000e-06	-1.912822e-06	-3.788300e-09	-1.326471e+01	-1.511549e+02
2.620000e-06	-2.064396e-06	-4.271067e-09	-1.431582e+01	-1.669710e+02
2.630000e-06	-2.215200e-06	-4.729943e-09	-1.536158e+01	-1.827268e+02
2.640000e-06	-2.365161e-06	-5.164659e-09	-1.640151e+01	-1.984168e+02
2.650000e-06	-2.514318e-06	-5.569827e-09	-1.743586e+01	-2.140353e+02
2.660000e-06	-2.662644e-06	-5.941913e-09	-1.846444e+01	-2.295767e+02
2.670000e-06	-2.810032e-06	-6.284933e-09	-1.948653e+01	-2.450355e+02
2.680000e-06	-2.956410e-06	-6.602401e-09	-2.050160e+01	-2.604060e+02
2.690000e-06	-3.101725e-06	-6.898151e-09	-2.150931e+01	-2.756829e+02
2.700000e-06	-3.245913e-06	-7.174223e-09	-2.250919e+01	-2.908605e+02
2.710000e-06	-3.388840e-06	-7.432844e-09	-2.350034e+01	-3.059335e+02
2.720000e-06	-3.530456e-06	-7.675712e-09	-2.448239e+01	-3.208964e+02
2.730000e-06	-3.670758e-06	-7.900220e-09	-2.545534e+01	-3.357440e+02
2.740000e-06	-3.809684e-06	-8.105186e-09	-2.641874e+01	-3.504707e+02
2.750000e-06	-3.947197e-06	-8.294173e-09	-2.737234e+01	-3.650715e+02
2.760000e-06	-4.083257e-06	-8.472557e-09	-2.831587e+01	-3.795410e+02
2.770000e-06	-4.217790e-06	-8.640168e-09	-2.924880e+01	-3.938740e+02
2.780000e-06	-4.350816e-06	-8.796363e-09	-3.017129e+01	-4.080654e+02
2.790000e-06	-4.482319e-06	-8.945770e-09	-3.108321e+01	-4.221101e+02
2.800000e-06	-4.612218e-06	-9.089794e-09	-3.198401e+01	-4.360030e+02
2.810000e-06	-4.740530e-06	-9.226763e-09	-3.287381e+01	-4.497393e+02
2.820000e-06	-4.867154e-06	-9.352356e-09	-3.375190e+01	-4.633139e+02
2.830000e-06	-4.992031e-06	-9.464977e-09	-3.461787e+01	-4.767220e+02
2.840000e-06	-5.115139e-06	-9.569284e-09	-3.547158e+01	-4.899587e+02
2.850000e-06	-5.236465e-06	-9.671218e-09	-3.631293e+01	-5.030194e+02
2.860000e-06	-5.355890e-06	-9.770623e-09	-3.714110e+01	-5.158993e+02
2.870000e-06	-5.473155e-06	-9.866015e-09	-3.795429e+01	-5.285938e+02
2.880000e-06	-5.588199e-06	-9.955567e-09	-3.875208e+01	-5.410984e+02
2.890000e-06	-5.700988e-06	-1.003869e-08	-3.953423e+01	-5.534085e+02
2.900000e-06	-5.811541e-06	-1.012126e-08	-4.030088e+01	-5.655198e+02
2.910000e-06	-5.920058e-06	-1.020073e-08	-4.105340e+01	-5.774279e+02
2.920000e-06	-6.026606e-06	-1.027386e-08	-4.179227e+01	-5.891286e+02
2.930000e-06	-6.131082e-06	-1.034029e-08	-4.251677e+01	-6.006176e+02
2.940000e-06	-6.233287e-06	-1.040513e-08	-4.322552e+01	-6.118908e+02
