# Temperatura_=_20.0
# Concentracion g/m^3_=_10000.0
# C_Vs_to_Am_M_A/Vsm_=_65563218390.804596
# pendiente_HvsI_1/m_=_3716.3
# ordenada_HvsI_A/m_=_1297.0
# frecuencia_Hz_=_301477.0966016598

Tiempo_(s)	Campo_(V.s)	Magnetizacion_(V.s)	Campo_(kA/m)	Magnetizacion_(A/m)
0.000000e+00	-8.157836e-06	-1.135195e-08	-5.690795e+01	-8.471096e+02
1.000000e-08	-8.155790e-06	-1.135562e-08	-5.689367e+01	-8.478323e+02
2.000000e-08	-8.151018e-06	-1.135735e-08	-5.686039e+01	-8.482507e+02
3.000000e-08	-8.143623e-06	-1.135395e-08	-5.680880e+01	-8.483645e+02
4.000000e-08	-8.133462e-06	-1.134586e-08	-5.673792e+01	-8.481737e+02
5.000000e-08	-8.120400e-06	-1.133717e-08	-5.664680e+01	-8.476784e+02
6.000000e-08	-8.104354e-06	-1.132676e-08	-5.653486e+01	-8.468788e+02
7.000000e-08	-8.085554e-06	-1.131151e-08	-5.640372e+01	-8.457751e+02
8.000000e-08	-8.064368e-06	-1.130284e-08	-5.625593e+01	-8.443678e+02
9.000000e-08	-8.040402e-06	-1.129887e-08	-5.608874e+01	-8.426573e+02
1.000000e-07	-8.013118e-06	-1.128869e-08	-5.589842e+01	-8.406443e+02
1.100000e-07	-7.982671e-06	-1.127986e-08	-5.568602e+01	-8.383294e+02
1.200000e-07	-7.949311e-06	-1.126768e-08	-5.545330e+01	-8.357136e+02
1.300000e-07	-7.913153e-06	-1.124301e-08	-5.520107e+01	-8.327978e+02
1.400000e-07	-7.874664e-06	-1.121382e-08	-5.493258e+01	-8.295829e+02
1.500000e-07	-7.834026e-06	-1.120622e-08	-5.464910e+01	-8.260702e+02
1.600000e-07	-7.790717e-06	-1.118676e-08	-5.434698e+01	-8.222609e+02
1.700000e-07	-7.744487e-06	-1.114968e-08	-5.402448e+01	-8.181564e+02
1.800000e-07	-7.695490e-06	-1.114916e-08	-5.368268e+01	-8.137582e+02
1.900000e-07	-7.643487e-06	-1.111886e-08	-5.331992e+01	-8.090677e+02
2.000000e-07	-7.588527e-06	-1.108716e-08	-5.293652e+01	-8.040868e+02
2.100000e-07	-7.530799e-06	-1.106485e-08	-5.253382e+01	-7.988172e+02
2.200000e-07	-7.470360e-06	-1.103263e-08	-5.211221e+01	-7.932608e+02
2.300000e-07	-7.407402e-06	-1.101395e-08	-5.167302e+01	-7.874195e+02
2.400000e-07	-7.341690e-06	-1.097680e-08	-5.121463e+01	-7.812955e+02
2.500000e-07	-7.273156e-06	-1.094885e-08	-5.073654e+01	-7.748910e+02
2.600000e-07	-7.201968e-06	-1.090330e-08	-5.023994e+01	-7.682083e+02
2.700000e-07	-7.127986e-06	-1.085536e-08	-4.972386e+01	-7.612498e+02
2.800000e-07	-7.051202e-06	-1.081350e-08	-4.918822e+01	-7.540179e+02
2.900000e-07	-6.971681e-06	-1.076923e-08	-4.863349e+01	-7.465153e+02
3.000000e-07	-6.889527e-06	-1.073495e-08	-4.806040e+01	-7.387446e+02
3.100000e-07	-6.804999e-06	-1.068794e-08	-4.747074e+01	-7.307086e+02
3.200000e-07	-6.718252e-06	-1.064557e-08	-4.686560e+01	-7.224103e+02
3.300000e-07	-6.629253e-06	-1.059372e-08	-4.624476e+01	-7.138526e+02
3.400000e-07	-6.537831e-06	-1.053806e-08	-4.560702e+01	-7.050386e+02
3.500000e-07	-6.443992e-06	-1.048001e-08	-4.495240e+01	-6.959713e+02
3.600000e-07	-6.347839e-06	-1.041698e-08	-4.428166e+01	-6.866542e+02
3.700000e-07	-6.249396e-06	-1.035931e-08	-4.359493e+01	-6.770905e+02
3.800000e-07	-6.148675e-06	-1.029980e-08	-4.289231e+01	-6.672836e+02
3.900000e-07	-6.045699e-06	-1.023842e-08	-4.217397e+01	-6.572371e+02
4.000000e-07	-5.940565e-06	-1.017048e-08	-4.144057e+01	-6.469546e+02
4.100000e-07	-5.833331e-06	-1.009965e-08	-4.069252e+01	-6.364398e+02
4.200000e-07	-5.723994e-06	-1.002175e-08	-3.992980e+01	-6.256964e+02
4.300000e-07	-5.612532e-06	-9.943348e-09	-3.915226e+01	-6.147283e+02
4.400000e-07	-5.498950e-06	-9.859389e-09	-3.835993e+01	-6.035394e+02
4.500000e-07	-5.383229e-06	-9.771921e-09	-3.755267e+01	-5.921338e+02
4.600000e-07	-5.265370e-06	-9.684757e-09	-3.673050e+01	-5.805155e+02
4.700000e-07	-5.145570e-06	-9.598384e-09	-3.589480e+01	-5.686887e+02
4.800000e-07	-5.024028e-06	-9.507252e-09	-3.504693e+01	-5.566577e+02
4.900000e-07	-4.900645e-06	-9.410856e-09	-3.418623e+01	-5.444267e+02
5.000000e-07	-4.775375e-06	-9.308759e-09	-3.331236e+01	-5.320001e+02
5.100000e-07	-4.648386e-06	-9.197683e-09	-3.242650e+01	-5.193825e+02
5.200000e-07	-4.519850e-06	-9.084563e-09	-3.152986e+01	-5.065783e+02
5.300000e-07	-4.389726e-06	-8.967950e-09	-3.062213e+01	-4.935921e+02
5.400000e-07	-4.257933e-06	-8.849990e-09	-2.970276e+01	-4.804286e+02
5.500000e-07	-4.124605e-06	-8.728675e-09	-2.877268e+01	-4.670926e+02
5.600000e-07	-3.989803e-06	-8.603378e-09	-2.783232e+01	-4.535887e+02
5.700000e-07	-3.853554e-06	-8.467143e-09	-2.688187e+01	-4.399218e+02
5.800000e-07	-3.715899e-06	-8.325025e-09	-2.592160e+01	-4.260969e+02
5.900000e-07	-3.576779e-06	-8.177389e-09	-2.495112e+01	-4.121189e+02
6.000000e-07	-3.436159e-06	-8.023112e-09	-2.397017e+01	-3.979928e+02
6.100000e-07	-3.294239e-06	-7.865745e-09	-2.298016e+01	-3.837237e+02
6.200000e-07	-3.151113e-06	-7.702426e-09	-2.198174e+01	-3.693167e+02
6.300000e-07	-3.006730e-06	-7.535892e-09	-2.097454e+01	-3.547769e+02
6.400000e-07	-2.861111e-06	-7.363753e-09	-1.995872e+01	-3.401097e+02
6.500000e-07	-2.714409e-06	-7.183959e-09	-1.893535e+01	-3.253202e+02
6.600000e-07	-2.566865e-06	-6.993130e-09	-1.790610e+01	-3.104137e+02
6.700000e-07	-2.418589e-06	-6.793593e-09	-1.687174e+01	-2.953956e+02
6.800000e-07	-2.269472e-06	-6.585936e-09	-1.583152e+01	-2.802714e+02
6.900000e-07	-2.119503e-06	-6.370956e-09	-1.478537e+01	-2.650463e+02
7.000000e-07	-1.968864e-06	-6.147645e-09	-1.373452e+01	-2.497259e+02
7.100000e-07	-1.817558e-06	-5.915470e-09	-1.267904e+01	-2.343157e+02
7.200000e-07	-1.665629e-06	-5.676265e-09	-1.161920e+01	-2.188212e+02
7.300000e-07	-1.513177e-06	-5.425311e-09	-1.055572e+01	-2.032480e+02
7.400000e-07	-1.360193e-06	-5.164184e-09	-9.488517e+00	-1.876016e+02
7.500000e-07	-1.206681e-06	-4.893943e-09	-8.417641e+00	-1.718877e+02
7.600000e-07	-1.052619e-06	-4.611069e-09	-7.342929e+00	-1.561118e+02
7.700000e-07	-8.981050e-07	-4.312276e-09	-6.265058e+00	-1.402797e+02
7.800000e-07	-7.433357e-07	-4.001038e-09	-5.185408e+00	-1.243971e+02
7.900000e-07	-5.883528e-07	-3.677178e-09	-4.104269e+00	-1.084696e+02
8.000000e-07	-4.331447e-07	-3.339328e-09	-3.021558e+00	-9.250291e+01
8.100000e-07	-2.777340e-07	-2.986207e-09	-1.937434e+00	-7.650282e+01
8.200000e-07	-1.221842e-07	-2.614791e-09	-8.523406e-01	-6.047505e+01
8.300000e-07	3.344592e-08	-2.227553e-09	2.333142e-01	-4.442535e+01
8.400000e-07	1.890848e-07	-1.820349e-09	1.319029e+00	-2.835947e+01
8.500000e-07	3.446359e-07	-1.390833e-09	2.404133e+00	-1.228319e+01
8.600000e-07	5.000428e-07	-9.405204e-10	3.488230e+00	3.797747e+00
8.700000e-07	6.552697e-07	-4.708243e-10	4.571072e+00	1.987755e+01
8.800000e-07	8.102487e-07	1.856095e-11	5.652184e+00	3.595047e+01
8.900000e-07	9.649009e-07	5.269535e-10	6.731016e+00	5.201072e+01
9.000000e-07	1.119149e-06	1.047906e-09	7.807027e+00	6.805255e+01
9.100000e-07	1.272859e-06	1.578281e-09	8.879291e+00	8.407021e+01
9.200000e-07	1.426019e-06	2.113687e-09	9.947712e+00	1.000579e+02
9.300000e-07	1.578699e-06	2.646641e-09	1.101279e+01	1.160100e+02
9.400000e-07	1.730828e-06	3.169988e-09	1.207402e+01	1.319207e+02
9.500000e-07	1.882379e-06	3.677103e-09	1.313122e+01	1.477843e+02
9.600000e-07	2.033362e-06	4.162115e-09	1.418445e+01	1.635951e+02
9.700000e-07	2.183687e-06	4.623514e-09	1.523310e+01	1.793475e+02
9.800000e-07	2.333256e-06	5.058378e-09	1.627647e+01	1.950358e+02
9.900000e-07	2.481982e-06	5.462614e-09	1.731397e+01	2.106543e+02
1.000000e-06	2.629813e-06	5.837740e-09	1.834522e+01	2.261975e+02
1.010000e-06	2.776665e-06	6.186748e-09	1.936964e+01	2.416598e+02
1.020000e-06	2.922439e-06	6.514120e-09	2.038653e+01	2.570356e+02
1.030000e-06	3.067128e-06	6.819003e-09	2.139587e+01	2.723195e+02
1.040000e-06	3.210761e-06	7.099381e-09	2.239783e+01	2.875059e+02
1.050000e-06	3.353222e-06	7.358327e-09	2.339162e+01	3.025893e+02
1.060000e-06	3.494375e-06	7.601700e-09	2.437629e+01	3.175645e+02
1.070000e-06	3.634175e-06	7.828801e-09	2.535150e+01	3.324260e+02
1.080000e-06	3.772518e-06	8.037954e-09	2.631657e+01	3.471685e+02
1.090000e-06	3.909458e-06	8.231816e-09	2.727184e+01	3.617866e+02
1.100000e-06	4.045082e-06	8.413275e-09	2.821794e+01	3.762752e+02
1.110000e-06	4.179321e-06	8.586276e-09	2.915437e+01	3.906291e+02
1.120000e-06	4.312063e-06	8.748994e-09	3.008036e+01	4.048430e+02
1.130000e-06	4.443128e-06	8.901437e-09	3.099466e+01	4.189119e+02
1.140000e-06	4.572493e-06	9.044265e-09	3.189708e+01	4.328308e+02
1.150000e-06	4.700304e-06	9.179144e-09	3.278868e+01	4.465947e+02
1.160000e-06	4.826545e-06	9.308249e-09	3.366931e+01	4.601985e+02
1.170000e-06	4.951143e-06	9.429478e-09	3.453849e+01	4.736376e+02
1.180000e-06	5.073945e-06	9.541448e-09	3.539515e+01	4.869069e+02
1.190000e-06	5.194868e-06	9.647224e-09	3.623869e+01	5.000018e+02
1.200000e-06	5.313916e-06	9.748891e-09	3.706915e+01	5.129175e+02
1.210000e-06	5.430946e-06	9.844826e-09	3.788554e+01	5.256495e+02
1.220000e-06	5.545819e-06	9.933320e-09	3.868687e+01	5.381932e+02
1.230000e-06	5.658571e-06	1.001409e-08	3.947342e+01	5.505439e+02
1.240000e-06	5.769369e-06	1.009278e-08	4.024633e+01	5.626975e+02
1.250000e-06	5.878195e-06	1.016880e-08	4.100549e+01	5.746494e+02
1.260000e-06	5.984856e-06	1.024067e-08	4.174953e+01	5.863953e+02
1.270000e-06	6.089296e-06	1.030973e-08	4.247810e+01	5.979312e+02
1.280000e-06	6.191589e-06	1.037509e-08	4.319168e+01	6.092528e+02
1.290000e-06	6.291669e-06	1.043915e-08	4.388982e+01	6.203560e+02
1.300000e-06	6.389397e-06	1.050209e-08	4.457156e+01	6.312369e+02
1.310000e-06	6.484828e-06	1.055983e-08	4.523727e+01	6.418916e+02
1.320000e-06	6.578062e-06	1.061069e-08	4.588766e+01	6.523163e+02
1.330000e-06	6.668949e-06	1.065762e-08	4.652168e+01	6.625072e+02
1.340000e-06	6.757428e-06	1.070400e-08	4.713889e+01	6.724606e+02
1.350000e-06	6.843607e-06	1.075112e-08	4.774007e+01	6.821731e+02
1.360000e-06	6.927456e-06	1.079701e-08	4.832498e+01	6.916410e+02
1.370000e-06	7.008809e-06	1.083885e-08	4.889249e+01	7.008611e+02
1.380000e-06	7.087588e-06	1.087967e-08	4.944205e+01	7.098299e+02
1.390000e-06	7.163750e-06	1.092121e-08	4.997334e+01	7.185444e+02
1.400000e-06	7.237222e-06	1.095909e-08	5.048587e+01	7.270013e+02
1.410000e-06	7.308078e-06	1.098975e-08	5.098016e+01	7.351976e+02
1.420000e-06	7.376378e-06	1.101385e-08	5.145660e+01	7.431304e+02
1.430000e-06	7.442017e-06	1.103847e-08	5.191449e+01	7.507969e+02
1.440000e-06	7.505030e-06	1.106835e-08	5.235406e+01	7.581943e+02
1.450000e-06	7.565475e-06	1.109812e-08	5.277572e+01	7.653198e+02
1.460000e-06	7.623252e-06	1.112445e-08	5.317876e+01	7.721711e+02
1.470000e-06	7.678272e-06	1.114954e-08	5.356258e+01	7.787456e+02
1.480000e-06	7.730277e-06	1.117452e-08	5.392535e+01	7.850410e+02
1.490000e-06	7.779163e-06	1.119673e-08	5.426637e+01	7.910549e+02
1.500000e-06	7.825201e-06	1.121218e-08	5.458753e+01	7.967853e+02
1.510000e-06	7.868508e-06	1.122144e-08	5.488964e+01	8.022301e+02
1.520000e-06	7.908978e-06	1.123100e-08	5.517195e+01	8.073874e+02
1.530000e-06	7.946651e-06	1.124589e-08	5.543475e+01	8.122552e+02
1.540000e-06	7.981630e-06	1.126210e-08	5.567876e+01	8.168319e+02
1.550000e-06	8.013827e-06	1.127573e-08	5.590336e+01	8.211157e+02
1.560000e-06	8.043236e-06	1.128771e-08	5.610851e+01	8.251053e+02
1.570000e-06	8.069794e-06	1.130000e-08	5.629378e+01	8.287990e+02
1.580000e-06	8.093391e-06	1.131040e-08	5.645839e+01	8.321957e+02
1.590000e-06	8.114214e-06	1.131626e-08	5.660365e+01	8.352941e+02
1.600000e-06	8.132250e-06	1.131803e-08	5.672946e+01	8.380931e+02
1.610000e-06	8.147283e-06	1.131945e-08	5.683433e+01	8.405916e+02
1.620000e-06	8.159196e-06	1.132335e-08	5.691743e+01	8.427888e+02
1.630000e-06	8.167980e-06	1.132685e-08	5.697871e+01	8.446839e+02
1.640000e-06	8.173849e-06	1.132715e-08	5.701966e+01	8.462762e+02
1.650000e-06	8.176847e-06	1.132490e-08	5.704057e+01	8.475652e+02
1.660000e-06	8.176981e-06	1.132396e-08	5.704150e+01	8.485503e+02
1.670000e-06	8.174491e-06	1.132545e-08	5.702413e+01	8.492312e+02
1.680000e-06	8.169296e-06	1.132500e-08	5.698789e+01	8.496078e+02
1.690000e-06	8.161326e-06	1.131957e-08	5.693230e+01	8.496798e+02
1.700000e-06	8.150634e-06	1.131198e-08	5.685771e+01	8.494472e+02
1.710000e-06	8.137048e-06	1.130650e-08	5.676293e+01	8.489101e+02
1.720000e-06	8.120752e-06	1.130168e-08	5.664925e+01	8.480687e+02
1.730000e-06	8.102081e-06	1.129096e-08	5.651901e+01	8.469233e+02
1.740000e-06	8.080795e-06	1.126666e-08	5.637052e+01	8.454743e+02
1.750000e-06	8.056131e-06	1.125916e-08	5.619847e+01	8.437223e+02
1.760000e-06	8.027579e-06	1.124917e-08	5.599929e+01	8.416678e+02
1.770000e-06	7.995582e-06	1.123587e-08	5.577609e+01	8.393116e+02
1.780000e-06	7.961035e-06	1.122996e-08	5.553509e+01	8.366546e+02
1.790000e-06	7.924265e-06	1.122513e-08	5.527859e+01	8.336976e+02
1.800000e-06	7.885398e-06	1.118544e-08	5.500745e+01	8.304419e+02
1.810000e-06	7.844421e-06	1.118092e-08	5.472161e+01	8.268884e+02
1.820000e-06	7.800814e-06	1.117573e-08	5.441741e+01	8.230385e+02
1.830000e-06	7.754441e-06	1.114900e-08	5.409392e+01	8.188937e+02
1.840000e-06	7.705087e-06	1.116423e-08	5.374963e+01	8.144553e+02
1.850000e-06	7.652482e-06	1.113004e-08	5.338267e+01	8.097249e+02
1.860000e-06	7.597002e-06	1.111450e-08	5.299565e+01	8.047044e+02
1.870000e-06	7.538813e-06	1.108234e-08	5.258973e+01	7.993953e+02
1.880000e-06	7.478001e-06	1.104454e-08	5.216551e+01	7.937998e+02
1.890000e-06	7.414540e-06	1.102056e-08	5.172281e+01	7.879197e+02
1.900000e-06	7.348245e-06	1.097066e-08	5.126035e+01	7.817572e+02
1.910000e-06	7.279202e-06	1.096558e-08	5.077872e+01	7.753145e+02
1.920000e-06	7.207338e-06	1.092414e-08	5.027740e+01	7.685940e+02
1.930000e-06	7.132730e-06	1.088430e-08	4.975695e+01	7.615979e+02
1.940000e-06	7.055387e-06	1.084689e-08	4.921742e+01	7.543289e+02
1.950000e-06	6.975387e-06	1.078458e-08	4.865934e+01	7.467895e+02
1.960000e-06	6.892948e-06	1.074836e-08	4.808427e+01	7.389824e+02
1.970000e-06	6.807940e-06	1.068930e-08	4.749126e+01	7.309105e+02
1.980000e-06	6.720445e-06	1.065326e-08	4.688090e+01	7.225766e+02
1.990000e-06	6.630625e-06	1.060386e-08	4.625434e+01	7.139838e+02
2.000000e-06	6.538596e-06	1.056240e-08	4.561235e+01	7.051351e+02
2.010000e-06	6.444242e-06	1.051061e-08	4.495415e+01	6.960337e+02
2.020000e-06	6.347513e-06	1.044035e-08	4.427938e+01	6.866828e+02
2.030000e-06	6.248531e-06	1.037955e-08	4.358890e+01	6.770858e+02
2.040000e-06	6.147305e-06	1.030286e-08	4.288276e+01	6.672462e+02
2.050000e-06	6.043828e-06	1.024248e-08	4.216092e+01	6.571675e+02
2.060000e-06	5.938187e-06	1.016981e-08	4.142398e+01	6.468533e+02
2.070000e-06	5.830557e-06	1.010638e-08	4.067317e+01	6.363072e+02
2.080000e-06	5.720827e-06	1.003857e-08	3.990771e+01	6.255332e+02
2.090000e-06	5.608916e-06	9.968230e-09	3.912703e+01	6.145350e+02
2.100000e-06	5.494858e-06	9.889138e-09	3.833138e+01	6.033166e+02
2.110000e-06	5.378691e-06	9.800023e-09	3.752101e+01	5.918820e+02
2.120000e-06	5.260430e-06	9.708104e-09	3.669604e+01	5.802354e+02
2.130000e-06	5.140208e-06	9.609010e-09	3.585739e+01	5.683809e+02
2.140000e-06	5.018141e-06	9.515399e-09	3.500587e+01	5.563227e+02
2.150000e-06	4.894242e-06	9.415812e-09	3.414156e+01	5.440652e+02
2.160000e-06	4.768567e-06	9.318513e-09	3.326487e+01	5.316128e+02
2.170000e-06	4.641185e-06	9.217239e-09	3.237627e+01	5.189699e+02
2.180000e-06	4.512214e-06	9.113797e-09	3.147659e+01	5.061411e+02
2.190000e-06	4.381696e-06	9.002219e-09	3.056611e+01	4.931310e+02
2.200000e-06	4.249668e-06	8.881505e-09	2.964510e+01	4.799443e+02
2.210000e-06	4.116097e-06	8.754895e-09	2.871333e+01	4.665856e+02
2.220000e-06	3.980919e-06	8.622982e-09	2.777035e+01	4.530598e+02
2.230000e-06	3.844170e-06	8.485844e-09	2.681640e+01	4.393718e+02
2.240000e-06	3.706036e-06	8.345228e-09	2.585280e+01	4.255264e+02
2.250000e-06	3.566626e-06	8.201172e-09	2.488030e+01	4.115286e+02
2.260000e-06	3.425850e-06	8.054584e-09	2.389826e+01	3.973835e+02
2.270000e-06	3.283704e-06	7.900754e-09	2.290667e+01	3.830961e+02
2.280000e-06	3.140361e-06	7.739701e-09	2.190673e+01	3.686715e+02
2.290000e-06	2.995876e-06	7.571237e-09	2.089882e+01	3.541149e+02
2.300000e-06	2.850270e-06	7.393990e-09	1.988309e+01	3.394315e+02
2.310000e-06	2.703707e-06	7.208718e-09	1.886069e+01	3.246267e+02
2.320000e-06	2.556305e-06	7.015054e-09	1.783243e+01	3.097056e+02
2.330000e-06	2.408086e-06	6.816762e-09	1.679848e+01	2.946738e+02
2.340000e-06	2.258994e-06	6.610331e-09	1.575843e+01	2.795365e+02
2.350000e-06	2.109035e-06	6.396385e-09	1.471234e+01	2.642991e+02
2.360000e-06	1.958366e-06	6.172548e-09	1.366129e+01	2.489673e+02
2.370000e-06	1.807023e-06	5.940650e-09	1.260555e+01	2.335464e+02
2.380000e-06	1.654860e-06	5.699819e-09	1.154408e+01	2.180420e+02
2.390000e-06	1.501924e-06	5.450307e-09	1.047722e+01	2.024596e+02
2.400000e-06	1.348490e-06	5.190600e-09	9.406885e+00	1.868049e+02
2.410000e-06	1.194680e-06	4.917245e-09	8.333926e+00	1.710835e+02
2.420000e-06	1.040492e-06	4.631939e-09	7.258331e+00	1.553010e+02
2.430000e-06	8.859884e-07	4.335126e-09	6.180534e+00	1.394630e+02
2.440000e-06	7.311691e-07	4.025359e-09	5.100536e+00	1.235753e+02
2.450000e-06	5.760724e-07	3.699359e-09	4.018602e+00	1.076436e+02
2.460000e-06	4.208205e-07	3.356861e-09	2.935586e+00	9.167346e+01
2.470000e-06	2.654707e-07	2.999952e-09	1.851887e+00	7.567076e+01
2.480000e-06	1.100192e-07	2.630550e-09	7.674788e-01	5.964120e+01
2.490000e-06	-4.546849e-08	2.243068e-09	-3.171820e-01	4.359053e+01
2.500000e-06	-2.008930e-07	1.836110e-09	-1.401402e+00	2.752451e+01
2.510000e-06	-3.562253e-07	1.409350e-09	-2.484979e+00	1.144890e+01
2.520000e-06	-5.114507e-07	9.615189e-10	-3.567810e+00	-4.630532e+00
2.530000e-06	-6.665001e-07	4.924876e-10	-4.649413e+00	-2.070801e+01
2.540000e-06	-8.212809e-07	-1.546206e-13	-5.729143e+00	-3.677778e+01
2.550000e-06	-9.757117e-07	-5.133070e-10	-6.806432e+00	-5.283406e+01
2.560000e-06	-1.129786e-06	-1.040691e-09	-7.881229e+00	-6.887110e+01
2.570000e-06	-1.283548e-06	-1.575791e-09	-8.953855e+00	-8.488313e+01
2.580000e-06	-1.436917e-06	-2.113673e-09	-1.002374e+01	-1.008644e+02
2.590000e-06	-1.589733e-06	-2.646942e-09	-1.108976e+01	-1.168092e+02
2.600000e-06	-1.741899e-06	-3.166633e-09	-1.215125e+01	-1.327119e+02
2.610000e-06	-1.893358e-06	-3.670267e-09	-1.320780e+01	-1.485666e+02
2.620000e-06	-2.044079e-06	-4.155820e-09	-1.425922e+01	-1.643677e+02
2.630000e-06	-2.194045e-06	-4.619637e-09	-1.530536e+01	-1.801096e+02
2.640000e-06	-2.343170e-06	-5.057883e-09	-1.634563e+01	-1.957865e+02
2.650000e-06	-2.491396e-06	-5.466359e-09	-1.737964e+01	-2.113929e+02
2.660000e-06	-2.638782e-06	-5.843148e-09	-1.840778e+01	-2.269232e+02
2.670000e-06	-2.785352e-06	-6.191712e-09	-1.943023e+01	-2.423718e+02
2.680000e-06	-2.931022e-06	-6.516631e-09	-2.044641e+01	-2.577331e+02
2.690000e-06	-3.075634e-06	-6.816943e-09	-2.145520e+01	-2.730017e+02
2.700000e-06	-3.219076e-06	-7.093803e-09	-2.245583e+01	-2.881720e+02
2.710000e-06	-3.361271e-06	-7.354234e-09	-2.344777e+01	-3.032387e+02
2.720000e-06	-3.502072e-06	-7.602679e-09	-2.442997e+01	-3.181963e+02
2.730000e-06	-3.641494e-06	-7.835322e-09	-2.540257e+01	-3.330394e+02
2.740000e-06	-3.779654e-06	-8.045375e-09	-2.636635e+01	-3.477627e+02
2.750000e-06	-3.916494e-06	-8.237502e-09	-2.732093e+01	-3.623610e+02
2.760000e-06	-4.051878e-06	-8.422046e-09	-2.826535e+01	-3.768289e+02
2.770000e-06	-4.185711e-06	-8.596975e-09	-2.919895e+01	-3.911614e+02
2.780000e-06	-4.318007e-06	-8.757021e-09	-3.012183e+01	-4.053533e+02
2.790000e-06	-4.448818e-06	-8.902467e-09	-3.103434e+01	-4.193994e+02
2.800000e-06	-4.578129e-06	-9.042642e-09	-3.193640e+01	-4.332947e+02
2.810000e-06	-4.705852e-06	-9.180988e-09	-3.282738e+01	-4.470343e+02
2.820000e-06	-4.831804e-06	-9.309623e-09	-3.370600e+01	-4.606133e+02
2.830000e-06	-4.956023e-06	-9.424331e-09	-3.457254e+01	-4.740266e+02
2.840000e-06	-5.078581e-06	-9.530901e-09	-3.542748e+01	-4.872696e+02
2.850000e-06	-5.199324e-06	-9.636868e-09	-3.626978e+01	-5.003375e+02
2.860000e-06	-5.318051e-06	-9.740818e-09	-3.709800e+01	-5.132256e+02
2.870000e-06	-5.434662e-06	-9.838682e-09	-3.791146e+01	-5.259293e+02
2.880000e-06	-5.549148e-06	-9.927137e-09	-3.871010e+01	-5.384439e+02
2.890000e-06	-5.661361e-06	-1.000796e-08	-3.949288e+01	-5.507651e+02
2.900000e-06	-5.771381e-06	-1.008759e-08	-4.026037e+01	-5.628884e+02
2.910000e-06	-5.879442e-06	-1.016588e-08	-4.101418e+01	-5.748095e+02
2.920000e-06	-5.985495e-06	-1.024012e-08	-4.175399e+01	-5.865240e+02
2.930000e-06	-6.089443e-06	-1.031187e-08	-4.247912e+01	-5.980278e+02
2.940000e-06	-6.191136e-06	-1.038357e-08	-4.318852e+01	-6.093167e+02
