# Temperatura_=_20.0
# Concentracion g/m^3_=_10000.0
# C_Vs_to_Am_M_A/Vsm_=_65563218390.804596
# pendiente_HvsI_1/m_=_3716.3
# ordenada_HvsI_A/m_=_1297.0
# frecuencia_Hz_=_301480.7968713521

Tiempo_(s)	Campo_(V.s)	Magnetizacion_(V.s)	Campo_(kA/m)	Magnetizacion_(A/m)
0.000000e+00	-8.274090e-06	-1.135561e-08	-5.690708e+01	-8.493179e+02
1.000000e-08	-8.271939e-06	-1.135567e-08	-5.689228e+01	-8.499924e+02
2.000000e-08	-8.266984e-06	-1.135338e-08	-5.685820e+01	-8.503616e+02
3.000000e-08	-8.259427e-06	-1.135044e-08	-5.680623e+01	-8.504256e+02
4.000000e-08	-8.249092e-06	-1.134871e-08	-5.673515e+01	-8.501842e+02
5.000000e-08	-8.235806e-06	-1.134500e-08	-5.664377e+01	-8.496376e+02
6.000000e-08	-8.219476e-06	-1.133648e-08	-5.653146e+01	-8.487860e+02
7.000000e-08	-8.200373e-06	-1.132295e-08	-5.640007e+01	-8.476296e+02
8.000000e-08	-8.178835e-06	-1.132315e-08	-5.625193e+01	-8.461689e+02
9.000000e-08	-8.154467e-06	-1.134300e-08	-5.608434e+01	-8.444044e+02
1.000000e-07	-8.126731e-06	-1.132037e-08	-5.589358e+01	-8.423368e+02
1.100000e-07	-8.095770e-06	-1.128613e-08	-5.568064e+01	-8.399667e+02
1.200000e-07	-8.061902e-06	-1.127724e-08	-5.544770e+01	-8.372950e+02
1.300000e-07	-8.025236e-06	-1.126821e-08	-5.519552e+01	-8.343227e+02
1.400000e-07	-7.986141e-06	-1.122945e-08	-5.492664e+01	-8.310509e+02
1.500000e-07	-7.944803e-06	-1.118905e-08	-5.464232e+01	-8.274807e+02
1.600000e-07	-7.900790e-06	-1.120790e-08	-5.433961e+01	-8.236134e+02
1.700000e-07	-7.853861e-06	-1.116174e-08	-5.401685e+01	-8.194504e+02
1.800000e-07	-7.804072e-06	-1.115057e-08	-5.367442e+01	-8.149932e+02
1.900000e-07	-7.751257e-06	-1.116038e-08	-5.331116e+01	-8.102433e+02
2.000000e-07	-7.695512e-06	-1.110224e-08	-5.292776e+01	-8.052026e+02
2.100000e-07	-7.636993e-06	-1.106574e-08	-5.252529e+01	-7.998727e+02
2.200000e-07	-7.575715e-06	-1.102926e-08	-5.210383e+01	-7.942557e+02
2.300000e-07	-7.511748e-06	-1.102552e-08	-5.166388e+01	-7.883535e+02
2.400000e-07	-7.444962e-06	-1.098369e-08	-5.120454e+01	-7.821682e+02
2.500000e-07	-7.375368e-06	-1.092900e-08	-5.072590e+01	-7.757021e+02
2.600000e-07	-7.303031e-06	-1.090476e-08	-5.022838e+01	-7.689574e+02
2.700000e-07	-7.227858e-06	-1.086603e-08	-4.971136e+01	-7.619367e+02
2.800000e-07	-7.149916e-06	-1.083791e-08	-4.917529e+01	-7.546423e+02
2.900000e-07	-7.069194e-06	-1.078952e-08	-4.862011e+01	-7.470770e+02
3.000000e-07	-6.985837e-06	-1.074181e-08	-4.804680e+01	-7.392435e+02
3.100000e-07	-6.900226e-06	-1.069631e-08	-4.745799e+01	-7.311445e+02
3.200000e-07	-6.812325e-06	-1.065104e-08	-4.685343e+01	-7.227829e+02
3.300000e-07	-6.721951e-06	-1.060497e-08	-4.623186e+01	-7.141619e+02
3.400000e-07	-6.629158e-06	-1.053029e-08	-4.559365e+01	-7.052843e+02
3.500000e-07	-6.533998e-06	-1.047354e-08	-4.493917e+01	-6.961536e+02
3.600000e-07	-6.436462e-06	-1.042898e-08	-4.426834e+01	-6.867728e+02
3.700000e-07	-6.336561e-06	-1.038744e-08	-4.358125e+01	-6.771454e+02
3.800000e-07	-6.234375e-06	-1.032460e-08	-4.287844e+01	-6.672749e+02
3.900000e-07	-6.129930e-06	-1.024098e-08	-4.216009e+01	-6.571647e+02
4.000000e-07	-6.023309e-06	-1.016537e-08	-4.142678e+01	-6.468185e+02
4.100000e-07	-5.914618e-06	-1.009467e-08	-4.067923e+01	-6.362401e+02
4.200000e-07	-5.803815e-06	-1.002414e-08	-3.991715e+01	-6.254331e+02
4.300000e-07	-5.690749e-06	-9.940633e-09	-3.913952e+01	-6.144016e+02
4.400000e-07	-5.575393e-06	-9.863087e-09	-3.834612e+01	-6.031493e+02
4.500000e-07	-5.457923e-06	-9.792492e-09	-3.753820e+01	-5.916805e+02
4.600000e-07	-5.338380e-06	-9.718624e-09	-3.671601e+01	-5.799992e+02
4.700000e-07	-5.216848e-06	-9.626098e-09	-3.588015e+01	-5.681095e+02
4.800000e-07	-5.093498e-06	-9.517057e-09	-3.503178e+01	-5.560158e+02
4.900000e-07	-4.968359e-06	-9.414686e-09	-3.417110e+01	-5.437224e+02
5.000000e-07	-4.841413e-06	-9.318170e-09	-3.329800e+01	-5.312336e+02
5.100000e-07	-4.712695e-06	-9.217260e-09	-3.241271e+01	-5.185541e+02
5.200000e-07	-4.582292e-06	-9.102816e-09	-3.151583e+01	-5.056883e+02
5.300000e-07	-4.450185e-06	-8.984656e-09	-3.060723e+01	-4.926408e+02
5.400000e-07	-4.316498e-06	-8.868777e-09	-2.968777e+01	-4.794164e+02
5.500000e-07	-4.181331e-06	-8.748969e-09	-2.875813e+01	-4.660197e+02
5.600000e-07	-4.044588e-06	-8.617652e-09	-2.781764e+01	-4.524556e+02
5.700000e-07	-3.906247e-06	-8.473045e-09	-2.686617e+01	-4.387289e+02
5.800000e-07	-3.766384e-06	-8.329945e-09	-2.590422e+01	-4.248446e+02
5.900000e-07	-3.624987e-06	-8.191028e-09	-2.493174e+01	-4.108077e+02
6.000000e-07	-3.482088e-06	-8.046924e-09	-2.394891e+01	-3.966231e+02
6.100000e-07	-3.337889e-06	-7.888067e-09	-2.295715e+01	-3.822960e+02
6.200000e-07	-3.192579e-06	-7.719415e-09	-2.195774e+01	-3.678315e+02
6.300000e-07	-3.046174e-06	-7.551525e-09	-2.095081e+01	-3.532348e+02
6.400000e-07	-2.898663e-06	-7.382333e-09	-1.993626e+01	-3.385112e+02
6.500000e-07	-2.750119e-06	-7.199954e-09	-1.891462e+01	-3.236658e+02
6.600000e-07	-2.600655e-06	-7.000645e-09	-1.788664e+01	-3.087042e+02
6.700000e-07	-2.450389e-06	-6.797302e-09	-1.685315e+01	-2.936315e+02
6.800000e-07	-2.299281e-06	-6.594704e-09	-1.581386e+01	-2.784532e+02
6.900000e-07	-2.147251e-06	-6.386117e-09	-1.476824e+01	-2.631748e+02
7.000000e-07	-1.994356e-06	-6.161050e-09	-1.371667e+01	-2.478018e+02
7.100000e-07	-1.840705e-06	-5.923371e-09	-1.265990e+01	-2.323396e+02
7.200000e-07	-1.686391e-06	-5.682098e-09	-1.159856e+01	-2.167938e+02
7.300000e-07	-1.531547e-06	-5.433679e-09	-1.053359e+01	-2.011700e+02
7.400000e-07	-1.376237e-06	-5.171338e-09	-9.465409e+00	-1.854738e+02
7.500000e-07	-1.220364e-06	-4.893330e-09	-8.393354e+00	-1.697109e+02
7.600000e-07	-1.063938e-06	-4.603414e-09	-7.317490e+00	-1.538868e+02
7.700000e-07	-9.071434e-07	-4.306019e-09	-6.239100e+00	-1.380072e+02
7.800000e-07	-7.501206e-07	-3.999284e-09	-5.159138e+00	-1.220779e+02
7.900000e-07	-5.929391e-07	-3.672430e-09	-4.078083e+00	-1.061046e+02
8.000000e-07	-4.355759e-07	-3.325198e-09	-2.995780e+00	-9.009293e+01
8.100000e-07	-2.780206e-07	-2.963305e-09	-1.912155e+00	-7.404874e+01
8.200000e-07	-1.203598e-07	-2.586349e-09	-8.278043e-01	-5.797773e+01
8.300000e-07	3.735152e-08	-2.189650e-09	2.568942e-01	-4.188569e+01
8.400000e-07	1.950525e-07	-1.769474e-09	1.341521e+00	-2.577838e+01
8.500000e-07	3.526453e-07	-1.328711e-09	2.425404e+00	-9.661585e+00
8.600000e-07	5.100997e-07	-8.720073e-10	3.508335e+00	6.458916e+00
8.700000e-07	6.673977e-07	-3.979523e-10	4.590191e+00	2.257734e+01
8.800000e-07	8.244719e-07	9.915858e-11	5.670507e+00	3.868790e+01
8.900000e-07	9.812702e-07	6.175215e-10	6.748925e+00	5.478482e+01
9.000000e-07	1.137699e-06	1.149431e-09	7.824804e+00	7.086233e+01
9.100000e-07	1.293679e-06	1.689275e-09	8.897592e+00	8.691466e+01
9.200000e-07	1.449193e-06	2.237015e-09	9.967179e+00	1.029360e+02
9.300000e-07	1.604271e-06	2.786238e-09	1.103377e+01	1.189207e+02
9.400000e-07	1.758848e-06	3.321414e-09	1.209690e+01	1.348630e+02
9.500000e-07	1.912777e-06	3.830692e-09	1.315559e+01	1.507571e+02
9.600000e-07	2.066024e-06	4.309868e-09	1.420959e+01	1.665974e+02
9.700000e-07	2.218487e-06	4.764388e-09	1.525819e+01	1.823782e+02
9.800000e-07	2.370024e-06	5.194313e-09	1.630042e+01	1.980937e+02
9.900000e-07	2.520623e-06	5.594644e-09	1.733620e+01	2.137385e+02
1.000000e-06	2.670329e-06	5.966529e-09	1.836584e+01	2.293068e+02
1.010000e-06	2.819090e-06	6.313869e-09	1.938898e+01	2.447930e+02
1.020000e-06	2.966847e-06	6.640389e-09	2.040521e+01	2.601917e+02
1.030000e-06	3.113616e-06	6.942590e-09	2.141466e+01	2.754973e+02
1.040000e-06	3.259347e-06	7.217344e-09	2.241695e+01	2.907043e+02
1.050000e-06	3.403861e-06	7.467886e-09	2.341089e+01	3.058072e+02
1.060000e-06	3.547045e-06	7.702335e-09	2.439567e+01	3.208007e+02
1.070000e-06	3.688896e-06	7.923700e-09	2.537128e+01	3.356793e+02
1.080000e-06	3.829391e-06	8.129654e-09	2.633757e+01	3.504377e+02
1.090000e-06	3.968491e-06	8.319272e-09	2.729427e+01	3.650707e+02
1.100000e-06	4.106049e-06	8.497907e-09	2.824036e+01	3.795729e+02
1.110000e-06	4.241971e-06	8.671397e-09	2.917519e+01	3.939392e+02
1.120000e-06	4.376336e-06	8.835458e-09	3.009932e+01	4.081644e+02
1.130000e-06	4.509169e-06	8.985470e-09	3.101291e+01	4.222434e+02
1.140000e-06	4.640508e-06	9.122320e-09	3.191623e+01	4.361711e+02
1.150000e-06	4.770185e-06	9.251123e-09	3.280811e+01	4.499426e+02
1.160000e-06	4.898050e-06	9.374277e-09	3.368754e+01	4.635530e+02
1.170000e-06	5.024212e-06	9.490101e-09	3.455525e+01	4.769973e+02
1.180000e-06	5.148643e-06	9.595778e-09	3.541105e+01	4.902707e+02
1.190000e-06	5.271312e-06	9.696307e-09	3.625474e+01	5.033684e+02
1.200000e-06	5.392045e-06	9.798402e-09	3.708510e+01	5.162858e+02
1.210000e-06	5.510714e-06	9.899300e-09	3.790128e+01	5.290182e+02
1.220000e-06	5.627328e-06	9.990925e-09	3.870332e+01	5.415611e+02
1.230000e-06	5.741750e-06	1.007212e-08	3.949029e+01	5.539099e+02
1.240000e-06	5.853969e-06	1.014812e-08	4.026210e+01	5.660603e+02
1.250000e-06	5.964121e-06	1.022098e-08	4.101970e+01	5.780078e+02
1.260000e-06	6.072263e-06	1.028834e-08	4.176347e+01	5.897482e+02
1.270000e-06	6.178303e-06	1.035035e-08	4.249279e+01	6.012773e+02
1.280000e-06	6.282120e-06	1.041055e-08	4.320681e+01	6.125909e+02
1.290000e-06	6.383639e-06	1.047259e-08	4.390503e+01	6.236849e+02
1.300000e-06	6.482803e-06	1.053532e-08	4.458706e+01	6.345555e+02
1.310000e-06	6.579529e-06	1.059195e-08	4.525232e+01	6.451986e+02
1.320000e-06	6.673884e-06	1.064261e-08	4.590127e+01	6.556105e+02
1.330000e-06	6.765988e-06	1.069093e-08	4.653473e+01	6.657875e+02
1.340000e-06	6.855709e-06	1.073907e-08	4.715181e+01	6.757258e+02
1.350000e-06	6.942998e-06	1.078499e-08	4.775217e+01	6.854220e+02
1.360000e-06	7.027923e-06	1.082505e-08	4.833625e+01	6.948725e+02
1.370000e-06	7.110344e-06	1.086092e-08	4.890313e+01	7.040740e+02
1.380000e-06	7.190174e-06	1.089648e-08	4.945218e+01	7.130231e+02
1.390000e-06	7.267406e-06	1.093412e-08	4.998336e+01	7.217166e+02
1.400000e-06	7.341888e-06	1.097112e-08	5.049563e+01	7.301515e+02
1.410000e-06	7.413650e-06	1.100378e-08	5.098919e+01	7.383247e+02
1.420000e-06	7.482876e-06	1.103336e-08	5.146531e+01	7.462332e+02
1.430000e-06	7.549448e-06	1.106383e-08	5.192317e+01	7.538743e+02
1.440000e-06	7.613268e-06	1.109453e-08	5.236211e+01	7.612451e+02
1.450000e-06	7.674475e-06	1.112186e-08	5.278308e+01	7.683431e+02
1.460000e-06	7.732993e-06	1.114480e-08	5.318555e+01	7.751657e+02
1.470000e-06	7.788744e-06	1.116457e-08	5.356899e+01	7.817105e+02
1.480000e-06	7.841532e-06	1.118577e-08	5.393206e+01	7.879750e+02
1.490000e-06	7.891129e-06	1.120735e-08	5.427317e+01	7.939571e+02
1.500000e-06	7.937770e-06	1.122373e-08	5.459395e+01	7.996546e+02
1.510000e-06	7.981625e-06	1.123595e-08	5.489558e+01	8.050655e+02
1.520000e-06	8.022615e-06	1.124913e-08	5.517749e+01	8.101878e+02
1.530000e-06	8.060765e-06	1.126781e-08	5.543988e+01	8.150196e+02
1.540000e-06	8.096135e-06	1.128785e-08	5.568315e+01	8.195594e+02
1.550000e-06	8.128703e-06	1.130207e-08	5.590714e+01	8.238053e+02
1.560000e-06	8.158468e-06	1.131168e-08	5.611186e+01	8.277560e+02
1.570000e-06	8.185332e-06	1.132106e-08	5.629662e+01	8.314099e+02
1.580000e-06	8.209242e-06	1.132915e-08	5.646107e+01	8.347658e+02
1.590000e-06	8.230361e-06	1.133195e-08	5.660632e+01	8.378225e+02
1.600000e-06	8.248588e-06	1.133181e-08	5.673168e+01	8.405789e+02
1.610000e-06	8.263732e-06	1.133428e-08	5.683584e+01	8.430339e+02
1.620000e-06	8.275720e-06	1.134240e-08	5.691829e+01	8.451868e+02
1.630000e-06	8.284561e-06	1.135148e-08	5.697909e+01	8.470367e+02
1.640000e-06	8.290464e-06	1.135580e-08	5.701969e+01	8.485829e+02
1.650000e-06	8.293490e-06	1.135522e-08	5.704050e+01	8.498250e+02
1.660000e-06	8.293635e-06	1.135465e-08	5.704150e+01	8.507624e+02
1.670000e-06	8.291050e-06	1.135130e-08	5.702372e+01	8.513949e+02
1.680000e-06	8.285729e-06	1.134667e-08	5.698712e+01	8.517221e+02
1.690000e-06	8.277627e-06	1.133803e-08	5.693140e+01	8.517441e+02
1.700000e-06	8.266659e-06	1.132862e-08	5.685596e+01	8.514607e+02
1.710000e-06	8.252751e-06	1.132527e-08	5.676031e+01	8.508721e+02
1.720000e-06	8.236191e-06	1.132679e-08	5.664642e+01	8.499786e+02
1.730000e-06	8.217193e-06	1.131873e-08	5.651575e+01	8.487803e+02
1.740000e-06	8.195479e-06	1.127110e-08	5.636641e+01	8.472778e+02
1.750000e-06	8.170357e-06	1.126023e-08	5.619363e+01	8.454715e+02
1.760000e-06	8.141262e-06	1.127313e-08	5.599352e+01	8.433622e+02
1.770000e-06	8.108710e-06	1.125665e-08	5.576964e+01	8.409506e+02
1.780000e-06	8.073677e-06	1.123661e-08	5.552869e+01	8.382376e+02
1.790000e-06	8.036363e-06	1.126024e-08	5.527205e+01	8.352240e+02
1.800000e-06	7.996928e-06	1.124426e-08	5.500082e+01	8.319111e+02
1.810000e-06	7.955373e-06	1.120106e-08	5.471502e+01	8.283000e+02
1.820000e-06	7.911075e-06	1.123082e-08	5.441035e+01	8.243920e+02
1.830000e-06	7.863977e-06	1.117589e-08	5.408642e+01	8.201885e+02
1.840000e-06	7.813908e-06	1.115900e-08	5.374206e+01	8.156910e+02
1.850000e-06	7.760494e-06	1.115159e-08	5.337470e+01	8.109011e+02
1.860000e-06	7.704247e-06	1.112595e-08	5.298784e+01	8.058205e+02
1.870000e-06	7.645238e-06	1.113287e-08	5.258199e+01	8.004511e+02
1.880000e-06	7.583461e-06	1.105862e-08	5.215711e+01	7.947948e+02
1.890000e-06	7.519049e-06	1.104346e-08	5.171410e+01	7.888536e+02
1.900000e-06	7.451742e-06	1.099901e-08	5.125118e+01	7.826297e+02
1.910000e-06	7.381596e-06	1.096445e-08	5.076873e+01	7.761253e+02
1.920000e-06	7.308598e-06	1.094339e-08	5.026667e+01	7.693426e+02
1.930000e-06	7.232821e-06	1.088197e-08	4.974549e+01	7.622843e+02
1.940000e-06	7.154294e-06	1.087216e-08	4.920540e+01	7.549527e+02
1.950000e-06	7.073153e-06	1.080294e-08	4.864734e+01	7.473505e+02
1.960000e-06	6.989605e-06	1.076811e-08	4.807272e+01	7.394805e+02
1.970000e-06	6.903419e-06	1.071121e-08	4.747995e+01	7.313454e+02
1.980000e-06	6.814703e-06	1.065484e-08	4.686978e+01	7.229482e+02
1.990000e-06	6.723665e-06	1.062780e-08	4.624365e+01	7.142919e+02
2.000000e-06	6.630315e-06	1.057385e-08	4.560161e+01	7.053796e+02
2.010000e-06	6.534575e-06	1.053246e-08	4.494313e+01	6.962145e+02
2.020000e-06	6.436456e-06	1.044389e-08	4.426830e+01	6.868000e+02
2.030000e-06	6.336015e-06	1.038756e-08	4.357749e+01	6.771392e+02
2.040000e-06	6.233272e-06	1.032038e-08	4.287085e+01	6.672359e+02
2.050000e-06	6.128348e-06	1.026531e-08	4.214921e+01	6.570934e+02
2.060000e-06	6.021293e-06	1.020342e-08	4.141292e+01	6.467154e+02
2.070000e-06	5.912111e-06	1.012926e-08	4.066199e+01	6.361057e+02
2.080000e-06	5.800728e-06	1.005963e-08	3.989592e+01	6.252680e+02
2.090000e-06	5.687124e-06	9.972379e-09	3.911458e+01	6.142063e+02
2.100000e-06	5.571282e-06	9.889347e-09	3.831786e+01	6.029245e+02
2.110000e-06	5.453259e-06	9.790690e-09	3.750612e+01	5.914266e+02
2.120000e-06	5.333221e-06	9.710424e-09	3.668053e+01	5.797169e+02
2.130000e-06	5.211308e-06	9.628277e-09	3.584204e+01	5.677994e+02
2.140000e-06	5.087563e-06	9.547351e-09	3.499096e+01	5.556785e+02
2.150000e-06	4.961916e-06	9.448628e-09	3.412679e+01	5.433585e+02
2.160000e-06	4.834464e-06	9.337918e-09	3.325021e+01	5.308439e+02
2.170000e-06	4.705315e-06	9.227078e-09	3.236195e+01	5.181391e+02
2.180000e-06	4.574461e-06	9.115844e-09	3.146197e+01	5.052486e+02
2.190000e-06	4.441952e-06	9.006000e-09	3.055061e+01	4.921772e+02
2.200000e-06	4.307888e-06	8.886790e-09	2.962855e+01	4.789295e+02
2.210000e-06	4.172358e-06	8.765709e-09	2.869641e+01	4.655102e+02
2.220000e-06	4.035297e-06	8.641866e-09	2.775374e+01	4.519242e+02
2.230000e-06	3.896562e-06	8.510097e-09	2.679956e+01	4.381763e+02
2.240000e-06	3.756264e-06	8.364872e-09	2.583462e+01	4.242715e+02
2.250000e-06	3.614612e-06	8.210166e-09	2.486038e+01	4.102148e+02
2.260000e-06	3.471668e-06	8.057748e-09	2.387725e+01	3.960111e+02
2.270000e-06	3.327498e-06	7.907048e-09	2.288568e+01	3.816657e+02
2.280000e-06	3.182207e-06	7.748316e-09	2.188641e+01	3.671836e+02
2.290000e-06	3.035830e-06	7.577595e-09	2.087966e+01	3.525701e+02
2.300000e-06	2.888325e-06	7.397990e-09	1.986516e+01	3.378304e+02
2.310000e-06	2.739708e-06	7.217595e-09	1.884301e+01	3.229697e+02
2.320000e-06	2.590134e-06	7.029342e-09	1.781428e+01	3.079934e+02
2.330000e-06	2.439658e-06	6.829942e-09	1.677934e+01	2.929069e+02
2.340000e-06	2.288288e-06	6.618433e-09	1.573826e+01	2.777157e+02
2.350000e-06	2.136153e-06	6.401622e-09	1.469192e+01	2.624250e+02
2.360000e-06	1.983340e-06	6.179987e-09	1.364091e+01	2.470405e+02
2.370000e-06	1.829899e-06	5.947479e-09	1.258557e+01	2.315677e+02
2.380000e-06	1.675779e-06	5.700808e-09	1.152558e+01	2.160120e+02
2.390000e-06	1.520920e-06	5.444755e-09	1.046050e+01	2.003792e+02
2.400000e-06	1.365412e-06	5.183070e-09	9.390956e+00	1.846747e+02
2.410000e-06	1.209430e-06	4.909708e-09	8.318153e+00	1.689042e+02
2.420000e-06	1.053000e-06	4.619748e-09	7.242268e+00	1.530735e+02
2.430000e-06	8.961158e-07	4.313073e-09	6.163256e+00	1.371881e+02
2.440000e-06	7.388825e-07	3.997614e-09	5.081845e+00	1.212538e+02
2.450000e-06	5.814309e-07	3.671854e-09	3.998933e+00	1.052762e+02
2.460000e-06	4.238259e-07	3.330087e-09	2.914966e+00	8.926118e+01
2.470000e-06	2.660932e-07	2.968776e-09	1.830121e+00	7.321441e+01
2.480000e-06	1.082679e-07	2.590519e-09	7.446386e-01	5.714166e+01
2.490000e-06	-4.962528e-08	2.196111e-09	-3.413100e-01	4.104869e+01
2.500000e-06	-2.074608e-07	1.780630e-09	-1.426862e+00	2.494129e+01
2.510000e-06	-3.651738e-07	1.340083e-09	-2.511572e+00	8.825221e+00
2.520000e-06	-5.228001e-07	8.748429e-10	-3.595685e+00	-7.293725e+00
2.530000e-06	-6.802406e-07	3.916962e-10	-4.678521e+00	-2.340977e+01
2.540000e-06	-8.373657e-07	-1.070495e-10	-5.759187e+00	-3.951712e+01
2.550000e-06	-9.941181e-07	-6.231613e-10	-6.837290e+00	-5.561001e+01
2.560000e-06	-1.150469e-06	-1.157987e-09	-7.912635e+00	-7.168266e+01
2.570000e-06	-1.306397e-06	-1.705298e-09	-8.985063e+00	-8.772931e+01
2.580000e-06	-1.461812e-06	-2.254389e-09	-1.005397e+01	-1.037442e+02
2.590000e-06	-1.616578e-06	-2.796246e-09	-1.111841e+01	-1.197216e+02
2.600000e-06	-1.770665e-06	-3.325188e-09	-1.217818e+01	-1.356557e+02
2.610000e-06	-1.924097e-06	-3.836219e-09	-1.323345e+01	-1.515409e+02
2.620000e-06	-2.076858e-06	-4.322751e-09	-1.428410e+01	-1.673714e+02
2.630000e-06	-2.228873e-06	-4.779818e-09	-1.532962e+01	-1.831415e+02
2.640000e-06	-2.380057e-06	-5.207574e-09	-1.636943e+01	-1.988457e+02
2.650000e-06	-2.530406e-06	-5.608896e-09	-1.740348e+01	-2.144783e+02
2.660000e-06	-2.679965e-06	-5.983797e-09	-1.843211e+01	-2.300336e+02
2.670000e-06	-2.828619e-06	-6.331620e-09	-1.945452e+01	-2.455061e+02
2.680000e-06	-2.976144e-06	-6.652478e-09	-2.046916e+01	-2.608902e+02
2.690000e-06	-3.122545e-06	-6.949731e-09	-2.147607e+01	-2.761804e+02
2.700000e-06	-3.267805e-06	-7.228166e-09	-2.247513e+01	-2.913712e+02
2.710000e-06	-3.411871e-06	-7.487776e-09	-2.346598e+01	-3.064572e+02
2.720000e-06	-3.554767e-06	-7.726679e-09	-2.444878e+01	-3.214330e+02
2.730000e-06	-3.696497e-06	-7.944887e-09	-2.542356e+01	-3.362932e+02
2.740000e-06	-3.836791e-06	-8.146286e-09	-2.638847e+01	-3.510324e+02
2.750000e-06	-3.975489e-06	-8.336226e-09	-2.734240e+01	-3.656454e+02
2.760000e-06	-4.112698e-06	-8.516483e-09	-2.828609e+01	-3.801269e+02
2.770000e-06	-4.248365e-06	-8.684604e-09	-2.921917e+01	-3.944717e+02
2.780000e-06	-4.382538e-06	-8.840571e-09	-3.014197e+01	-4.086747e+02
2.790000e-06	-4.515180e-06	-8.990145e-09	-3.105425e+01	-4.227308e+02
2.800000e-06	-4.646173e-06	-9.134840e-09	-3.195519e+01	-4.366349e+02
2.810000e-06	-4.775530e-06	-9.270133e-09	-3.284487e+01	-4.503821e+02
2.820000e-06	-4.903222e-06	-9.391126e-09	-3.372311e+01	-4.639674e+02
2.830000e-06	-5.029229e-06	-9.499628e-09	-3.458975e+01	-4.773860e+02
2.840000e-06	-5.153425e-06	-9.601418e-09	-3.544394e+01	-4.906330e+02
2.850000e-06	-5.275742e-06	-9.701132e-09	-3.628520e+01	-5.037036e+02
2.860000e-06	-5.396169e-06	-9.798952e-09	-3.711347e+01	-5.165933e+02
2.870000e-06	-5.514620e-06	-9.894471e-09	-3.792815e+01	-5.292973e+02
2.880000e-06	-5.630870e-06	-9.986692e-09	-3.872768e+01	-5.418111e+02
2.890000e-06	-5.744732e-06	-1.007265e-08	-3.951080e+01	-5.541302e+02
2.900000e-06	-5.856303e-06	-1.015308e-08	-4.027816e+01	-5.662503e+02
2.910000e-06	-5.965682e-06	-1.022696e-08	-4.103043e+01	-5.781668e+02
2.920000e-06	-6.073013e-06	-1.029433e-08	-4.176863e+01	-5.898757e+02
2.930000e-06	-6.178331e-06	-1.035716e-08	-4.249298e+01	-6.013726e+02
2.940000e-06	-6.281522e-06	-1.041973e-08	-4.320271e+01	-6.126535e+02
