# Temperatura_=_20.0
# Concentracion g/m^3_=_10000.0
# C_Vs_to_Am_M_A/Vsm_=_65563218390.804596
# pendiente_HvsI_1/m_=_3716.3
# ordenada_HvsI_A/m_=_1297.0
# frecuencia_Hz_=_301484.5049048725

Tiempo_(s)	Campo_(V.s)	Magnetizacion_(V.s)	Campo_(kA/m)	Magnetizacion_(A/m)
0.000000e+00	-8.253529e-06	-1.144997e-08	-5.689484e+01	-8.566289e+02
1.000000e-08	-8.249072e-06	-1.145417e-08	-5.686411e+01	-8.570283e+02
2.000000e-08	-8.242047e-06	-1.145209e-08	-5.681568e+01	-8.571199e+02
3.000000e-08	-8.232301e-06	-1.144579e-08	-5.674850e+01	-8.569035e+02
4.000000e-08	-8.219584e-06	-1.143565e-08	-5.666084e+01	-8.563792e+02
5.000000e-08	-8.203779e-06	-1.142364e-08	-5.655189e+01	-8.555473e+02
6.000000e-08	-8.185189e-06	-1.141008e-08	-5.642374e+01	-8.544080e+02
7.000000e-08	-8.164253e-06	-1.139182e-08	-5.627942e+01	-8.529618e+02
8.000000e-08	-8.140622e-06	-1.140205e-08	-5.611652e+01	-8.512091e+02
9.000000e-08	-8.113670e-06	-1.141831e-08	-5.593073e+01	-8.491506e+02
1.000000e-07	-8.083454e-06	-1.138842e-08	-5.572244e+01	-8.467871e+02
1.100000e-07	-8.050249e-06	-1.135911e-08	-5.549354e+01	-8.441193e+02
1.200000e-07	-8.014189e-06	-1.135193e-08	-5.524497e+01	-8.411482e+02
1.300000e-07	-7.975664e-06	-1.133449e-08	-5.497940e+01	-8.378750e+02
1.400000e-07	-7.934944e-06	-1.125861e-08	-5.469870e+01	-8.343007e+02
1.500000e-07	-7.891629e-06	-1.125026e-08	-5.440011e+01	-8.304266e+02
1.600000e-07	-7.845388e-06	-1.127409e-08	-5.408136e+01	-8.262542e+02
1.700000e-07	-7.796325e-06	-1.119289e-08	-5.374314e+01	-8.217850e+02
1.800000e-07	-7.744235e-06	-1.122515e-08	-5.338407e+01	-8.170205e+02
1.900000e-07	-7.689103e-06	-1.121034e-08	-5.300402e+01	-8.119624e+02
2.000000e-07	-7.631123e-06	-1.114693e-08	-5.260434e+01	-8.066126e+02
2.100000e-07	-7.570427e-06	-1.113542e-08	-5.218594e+01	-8.009731e+02
2.200000e-07	-7.507186e-06	-1.109956e-08	-5.175000e+01	-7.950457e+02
2.300000e-07	-7.441141e-06	-1.109231e-08	-5.129472e+01	-7.888327e+02
2.400000e-07	-7.372218e-06	-1.101685e-08	-5.081961e+01	-7.823362e+02
2.500000e-07	-7.300610e-06	-1.098174e-08	-5.032598e+01	-7.755587e+02
2.600000e-07	-7.226203e-06	-1.095211e-08	-4.981307e+01	-7.685024e+02
2.700000e-07	-7.148970e-06	-1.090999e-08	-4.928067e+01	-7.611701e+02
2.800000e-07	-7.068924e-06	-1.087925e-08	-4.872888e+01	-7.535642e+02
2.900000e-07	-6.986199e-06	-1.082316e-08	-4.815863e+01	-7.456876e+02
3.000000e-07	-6.901075e-06	-1.079498e-08	-4.757183e+01	-7.375431e+02
3.100000e-07	-6.813683e-06	-1.073948e-08	-4.696940e+01	-7.291335e+02
3.200000e-07	-6.723924e-06	-1.069477e-08	-4.635066e+01	-7.204619e+02
3.300000e-07	-6.631747e-06	-1.063443e-08	-4.571525e+01	-7.115314e+02
3.400000e-07	-6.537248e-06	-1.056267e-08	-4.506383e+01	-7.023452e+02
3.500000e-07	-6.440331e-06	-1.051541e-08	-4.439574e+01	-6.929067e+02
3.600000e-07	-6.341023e-06	-1.046993e-08	-4.371117e+01	-6.832191e+02
3.700000e-07	-6.239519e-06	-1.041809e-08	-4.301147e+01	-6.732861e+02
3.800000e-07	-6.135817e-06	-1.033858e-08	-4.229661e+01	-6.631110e+02
3.900000e-07	-6.029803e-06	-1.026641e-08	-4.156581e+01	-6.526977e+02
4.000000e-07	-5.921598e-06	-1.019672e-08	-4.081991e+01	-6.420498e+02
4.100000e-07	-5.811337e-06	-1.012609e-08	-4.005984e+01	-6.311711e+02
4.200000e-07	-5.698885e-06	-1.004313e-08	-3.928466e+01	-6.200656e+02
4.300000e-07	-5.584193e-06	-9.960381e-09	-3.849404e+01	-6.087373e+02
4.400000e-07	-5.467369e-06	-9.885205e-09	-3.768873e+01	-5.971901e+02
4.500000e-07	-5.348495e-06	-9.808520e-09	-3.686929e+01	-5.854283e+02
4.600000e-07	-5.227608e-06	-9.717698e-09	-3.603596e+01	-5.734561e+02
4.700000e-07	-5.104874e-06	-9.610718e-09	-3.518991e+01	-5.612777e+02
4.800000e-07	-4.980384e-06	-9.505192e-09	-3.433175e+01	-5.488976e+02
4.900000e-07	-4.854100e-06	-9.406855e-09	-3.346123e+01	-5.363202e+02
5.000000e-07	-4.726017e-06	-9.308996e-09	-3.257830e+01	-5.235500e+02
5.100000e-07	-4.596219e-06	-9.197489e-09	-3.168355e+01	-5.105915e+02
5.200000e-07	-4.464827e-06	-9.079762e-09	-3.077781e+01	-4.974495e+02
5.300000e-07	-4.331779e-06	-8.959929e-09	-2.986066e+01	-4.841287e+02
5.400000e-07	-4.197210e-06	-8.839475e-09	-2.893303e+01	-4.706337e+02
5.500000e-07	-4.061071e-06	-8.704957e-09	-2.799457e+01	-4.569696e+02
5.600000e-07	-3.923267e-06	-8.556132e-09	-2.704463e+01	-4.431411e+02
5.700000e-07	-3.784011e-06	-8.406666e-09	-2.608468e+01	-4.291532e+02
5.800000e-07	-3.643214e-06	-8.267795e-09	-2.511411e+01	-4.150111e+02
5.900000e-07	-3.500842e-06	-8.127639e-09	-2.413268e+01	-4.007196e+02
6.000000e-07	-3.357152e-06	-7.971074e-09	-2.314217e+01	-3.862841e+02
6.100000e-07	-3.212319e-06	-7.802431e-09	-2.214378e+01	-3.717095e+02
6.200000e-07	-3.066384e-06	-7.629025e-09	-2.113779e+01	-3.570013e+02
6.300000e-07	-2.919405e-06	-7.455090e-09	-2.012461e+01	-3.421646e+02
6.400000e-07	-2.771373e-06	-7.266748e-09	-1.910417e+01	-3.272048e+02
6.500000e-07	-2.622382e-06	-7.063428e-09	-1.807711e+01	-3.121272e+02
6.600000e-07	-2.472611e-06	-6.854672e-09	-1.704469e+01	-2.969374e+02
6.700000e-07	-2.322022e-06	-6.650882e-09	-1.600662e+01	-2.816406e+02
6.800000e-07	-2.170606e-06	-6.444839e-09	-1.496285e+01	-2.662424e+02
6.900000e-07	-2.018306e-06	-6.222158e-09	-1.391298e+01	-2.507484e+02
7.000000e-07	-1.865099e-06	-5.982217e-09	-1.285686e+01	-2.351640e+02
7.100000e-07	-1.711257e-06	-5.733802e-09	-1.179637e+01	-2.194950e+02
7.200000e-07	-1.556957e-06	-5.481482e-09	-1.073272e+01	-2.037468e+02
7.300000e-07	-1.402134e-06	-5.215549e-09	-9.665464e+00	-1.879253e+02
7.400000e-07	-1.246746e-06	-4.934718e-09	-8.594309e+00	-1.720359e+02
7.500000e-07	-1.090839e-06	-4.640099e-09	-7.519581e+00	-1.560845e+02
7.600000e-07	-9.345547e-07	-4.337857e-09	-6.442254e+00	-1.400768e+02
7.700000e-07	-7.780401e-07	-4.027706e-09	-5.363337e+00	-1.240185e+02
7.800000e-07	-6.213167e-07	-3.701538e-09	-4.282981e+00	-1.079153e+02
7.900000e-07	-4.643481e-07	-3.354072e-09	-3.200935e+00	-9.177315e+01
8.000000e-07	-3.071521e-07	-2.988429e-09	-2.117320e+00	-7.559772e+01
8.100000e-07	-1.498471e-07	-2.610140e-09	-1.032955e+00	-5.939485e+01
8.200000e-07	7.503004e-09	-2.214126e-09	5.172117e-02	-4.317035e+01
8.300000e-07	1.648790e-07	-1.794920e-09	1.136576e+00	-2.693005e+01
8.400000e-07	3.221958e-07	-1.350668e-09	2.221023e+00	-1.067976e+01
8.500000e-07	4.793689e-07	-8.889189e-10	3.304479e+00	5.574661e+00
8.600000e-07	6.363452e-07	-4.101750e-10	4.386578e+00	2.182740e+01
8.700000e-07	7.930421e-07	9.141353e-11	5.466752e+00	3.807261e+01
8.800000e-07	9.494306e-07	6.159388e-10	6.544800e+00	5.430446e+01
8.900000e-07	1.105561e-06	1.154562e-09	7.621070e+00	7.051714e+01
9.000000e-07	1.261346e-06	1.698675e-09	8.694954e+00	8.670482e+01
9.100000e-07	1.416658e-06	2.245667e-09	9.765583e+00	1.028617e+02
9.200000e-07	1.571478e-06	2.791367e-09	1.083282e+01	1.189820e+02
9.300000e-07	1.725757e-06	3.328608e-09	1.189632e+01	1.350598e+02
9.400000e-07	1.879461e-06	3.843712e-09	1.295587e+01	1.510895e+02
9.500000e-07	2.032564e-06	4.330364e-09	1.401127e+01	1.670653e+02
9.600000e-07	2.184866e-06	4.790568e-09	1.506115e+01	1.829815e+02
9.700000e-07	2.336226e-06	5.225668e-09	1.610453e+01	1.988322e+02
9.800000e-07	2.486658e-06	5.630872e-09	1.714152e+01	2.146119e+02
9.900000e-07	2.636197e-06	6.002462e-09	1.817234e+01	2.303150e+02
1.000000e-06	2.784835e-06	6.344115e-09	1.919697e+01	2.459356e+02
1.010000e-06	2.932481e-06	6.664578e-09	2.021475e+01	2.614683e+02
1.020000e-06	3.079069e-06	6.966707e-09	2.122524e+01	2.769075e+02
1.030000e-06	3.224625e-06	7.244997e-09	2.222861e+01	2.922476e+02
1.040000e-06	3.369056e-06	7.500261e-09	2.322423e+01	3.074831e+02
1.050000e-06	3.512201e-06	7.738062e-09	2.421098e+01	3.226085e+02
1.060000e-06	3.653999e-06	7.960266e-09	2.518845e+01	3.376185e+02
1.070000e-06	3.794450e-06	8.166412e-09	2.615664e+01	3.525076e+02
1.080000e-06	3.933539e-06	8.356075e-09	2.711544e+01	3.672705e+02
1.090000e-06	4.071080e-06	8.531813e-09	2.806356e+01	3.819019e+02
1.100000e-06	4.206991e-06	8.701028e-09	2.900045e+01	3.963966e+02
1.110000e-06	4.341396e-06	8.864146e-09	2.992696e+01	4.107493e+02
1.120000e-06	4.474223e-06	9.016077e-09	3.084259e+01	4.249548e+02
1.130000e-06	4.605459e-06	9.155983e-09	3.174725e+01	4.390082e+02
1.140000e-06	4.735144e-06	9.286729e-09	3.264122e+01	4.529043e+02
1.150000e-06	4.863106e-06	9.412458e-09	3.352331e+01	4.666382e+02
1.160000e-06	4.989321e-06	9.533199e-09	3.439336e+01	4.802049e+02
1.170000e-06	5.113831e-06	9.644230e-09	3.525166e+01	4.935995e+02
1.180000e-06	5.236623e-06	9.746855e-09	3.609811e+01	5.068173e+02
1.190000e-06	5.357488e-06	9.845738e-09	3.693128e+01	5.198536e+02
1.200000e-06	5.476231e-06	9.943217e-09	3.774982e+01	5.327035e+02
1.210000e-06	5.592936e-06	1.003579e-08	3.855431e+01	5.453626e+02
1.220000e-06	5.707580e-06	1.012022e-08	3.934460e+01	5.578262e+02
1.230000e-06	5.820037e-06	1.019992e-08	4.011981e+01	5.700900e+02
1.240000e-06	5.930337e-06	1.027699e-08	4.088016e+01	5.821494e+02
1.250000e-06	6.038571e-06	1.035017e-08	4.162625e+01	5.940002e+02
1.260000e-06	6.144723e-06	1.041901e-08	4.235800e+01	6.056382e+02
1.270000e-06	6.248644e-06	1.048355e-08	4.307437e+01	6.170590e+02
1.280000e-06	6.350238e-06	1.054440e-08	4.377470e+01	6.282588e+02
1.290000e-06	6.449528e-06	1.060458e-08	4.445914e+01	6.392333e+02
1.300000e-06	6.546412e-06	1.066115e-08	4.512700e+01	6.499787e+02
1.310000e-06	6.640986e-06	1.071412e-08	4.577894e+01	6.604912e+02
1.320000e-06	6.733358e-06	1.076679e-08	4.641569e+01	6.707669e+02
1.330000e-06	6.823353e-06	1.081930e-08	4.703606e+01	6.808022e+02
1.340000e-06	6.910902e-06	1.087130e-08	4.763957e+01	6.905934e+02
1.350000e-06	6.996067e-06	1.091729e-08	4.822665e+01	7.001371e+02
1.360000e-06	7.078799e-06	1.095587e-08	4.879696e+01	7.094298e+02
1.370000e-06	7.158980e-06	1.099245e-08	4.934967e+01	7.184682e+02
1.380000e-06	7.236544e-06	1.103075e-08	4.988435e+01	7.272491e+02
1.390000e-06	7.311398e-06	1.107007e-08	5.040035e+01	7.357692e+02
1.400000e-06	7.383540e-06	1.110653e-08	5.089766e+01	7.440256e+02
1.410000e-06	7.453063e-06	1.113885e-08	5.137690e+01	7.520152e+02
1.420000e-06	7.519923e-06	1.116936e-08	5.183779e+01	7.597353e+02
1.430000e-06	7.584040e-06	1.119833e-08	5.227978e+01	7.671830e+02
1.440000e-06	7.645573e-06	1.122439e-08	5.270395e+01	7.743557e+02
1.450000e-06	7.704515e-06	1.124811e-08	5.311026e+01	7.812507e+02
1.460000e-06	7.760697e-06	1.127074e-08	5.349755e+01	7.878657e+02
1.470000e-06	7.813937e-06	1.129435e-08	5.386455e+01	7.941982e+02
1.480000e-06	7.864012e-06	1.131878e-08	5.420974e+01	8.002460e+02
1.490000e-06	7.911073e-06	1.133958e-08	5.453414e+01	8.060069e+02
1.500000e-06	7.955356e-06	1.135534e-08	5.483941e+01	8.114788e+02
1.510000e-06	7.996809e-06	1.136967e-08	5.512516e+01	8.166597e+02
1.520000e-06	8.035431e-06	1.138228e-08	5.539140e+01	8.215479e+02
1.530000e-06	8.071278e-06	1.139255e-08	5.563850e+01	8.261415e+02
1.540000e-06	8.104240e-06	1.140205e-08	5.586572e+01	8.304390e+02
1.550000e-06	8.134415e-06	1.141322e-08	5.607373e+01	8.344386e+02
1.560000e-06	8.161792e-06	1.142684e-08	5.626246e+01	8.381392e+02
1.570000e-06	8.186192e-06	1.143825e-08	5.643065e+01	8.415392e+02
1.580000e-06	8.207740e-06	1.144497e-08	5.657919e+01	8.446375e+02
1.590000e-06	8.226471e-06	1.144779e-08	5.670831e+01	8.474329e+02
1.600000e-06	8.242192e-06	1.144984e-08	5.681668e+01	8.499246e+02
1.610000e-06	8.254757e-06	1.145089e-08	5.690330e+01	8.521115e+02
1.620000e-06	8.264157e-06	1.145070e-08	5.696810e+01	8.539928e+02
1.630000e-06	8.270612e-06	1.145119e-08	5.701260e+01	8.555680e+02
1.640000e-06	8.274182e-06	1.145268e-08	5.703720e+01	8.568365e+02
1.650000e-06	8.274806e-06	1.145470e-08	5.704150e+01	8.577977e+02
1.660000e-06	8.272723e-06	1.145351e-08	5.702714e+01	8.584513e+02
1.670000e-06	8.267960e-06	1.144801e-08	5.699431e+01	8.587972e+02
1.680000e-06	8.260375e-06	1.144213e-08	5.694202e+01	8.588352e+02
1.690000e-06	8.250005e-06	1.143676e-08	5.687054e+01	8.585652e+02
1.700000e-06	8.236776e-06	1.142961e-08	5.677935e+01	8.579874e+02
1.710000e-06	8.220778e-06	1.142244e-08	5.666907e+01	8.571020e+02
1.720000e-06	8.202328e-06	1.141815e-08	5.654189e+01	8.559093e+02
1.730000e-06	8.181296e-06	1.139539e-08	5.639690e+01	8.544097e+02
1.740000e-06	8.157033e-06	1.134111e-08	5.622965e+01	8.526038e+02
1.750000e-06	8.128901e-06	1.134576e-08	5.603573e+01	8.504921e+02
1.760000e-06	8.097123e-06	1.135461e-08	5.581667e+01	8.480756e+02
1.770000e-06	8.062652e-06	1.133134e-08	5.557904e+01	8.453550e+02
1.780000e-06	8.025845e-06	1.132922e-08	5.532531e+01	8.423313e+02
1.790000e-06	7.986861e-06	1.137374e-08	5.505659e+01	8.390056e+02
1.800000e-06	7.945816e-06	1.129514e-08	5.477365e+01	8.353790e+02
1.810000e-06	7.902170e-06	1.128604e-08	5.447278e+01	8.314530e+02
1.820000e-06	7.855730e-06	1.131621e-08	5.415265e+01	8.272289e+02
1.830000e-06	7.806428e-06	1.122673e-08	5.381279e+01	8.227082e+02
1.840000e-06	7.753820e-06	1.126570e-08	5.345014e+01	8.178926e+02
1.850000e-06	7.698224e-06	1.120673e-08	5.306690e+01	8.127837e+02
1.860000e-06	7.639876e-06	1.120664e-08	5.266468e+01	8.073834e+02
1.870000e-06	7.578715e-06	1.119941e-08	5.224307e+01	8.016937e+02
1.880000e-06	7.514880e-06	1.111521e-08	5.180304e+01	7.957166e+02
1.890000e-06	7.448186e-06	1.113504e-08	5.134329e+01	7.894542e+02
1.900000e-06	7.378719e-06	1.105967e-08	5.086442e+01	7.829088e+02
1.910000e-06	7.306469e-06	1.103555e-08	5.036637e+01	7.760827e+02
1.920000e-06	7.231441e-06	1.098916e-08	4.984917e+01	7.689784e+02
1.930000e-06	7.153651e-06	1.094366e-08	4.931294e+01	7.615984e+02
1.940000e-06	7.073144e-06	1.091337e-08	4.875797e+01	7.539454e+02
1.950000e-06	6.990257e-06	1.083807e-08	4.818660e+01	7.460221e+02
1.960000e-06	6.904774e-06	1.084269e-08	4.759733e+01	7.378314e+02
1.970000e-06	6.816697e-06	1.076148e-08	4.699018e+01	7.293762e+02
1.980000e-06	6.726218e-06	1.072700e-08	4.636647e+01	7.206596e+02
1.990000e-06	6.633367e-06	1.067984e-08	4.572642e+01	7.116846e+02
2.000000e-06	6.538214e-06	1.061714e-08	4.507049e+01	7.024545e+02
2.010000e-06	6.440780e-06	1.055634e-08	4.439884e+01	6.929727e+02
2.020000e-06	6.341090e-06	1.046728e-08	4.371164e+01	6.832424e+02
2.030000e-06	6.239021e-06	1.042161e-08	4.300803e+01	6.732673e+02
2.040000e-06	6.134710e-06	1.034873e-08	4.228898e+01	6.630508e+02
2.050000e-06	6.028319e-06	1.030571e-08	4.155558e+01	6.525967e+02
2.060000e-06	5.919810e-06	1.023092e-08	4.080758e+01	6.419087e+02
2.070000e-06	5.809108e-06	1.016195e-08	4.004447e+01	6.309907e+02
2.080000e-06	5.696201e-06	1.007638e-08	3.926616e+01	6.198465e+02
2.090000e-06	5.581026e-06	9.985916e-09	3.847221e+01	6.084802e+02
2.100000e-06	5.463630e-06	9.897748e-09	3.766296e+01	5.968958e+02
2.110000e-06	5.344217e-06	9.798523e-09	3.683980e+01	5.850975e+02
2.120000e-06	5.222966e-06	9.714160e-09	3.600396e+01	5.730896e+02
2.130000e-06	5.099917e-06	9.623494e-09	3.515574e+01	5.608763e+02
2.140000e-06	4.974916e-06	9.537684e-09	3.429406e+01	5.484620e+02
2.150000e-06	4.848067e-06	9.428974e-09	3.341964e+01	5.358512e+02
2.160000e-06	4.719553e-06	9.319656e-09	3.253374e+01	5.230485e+02
2.170000e-06	4.589438e-06	9.203928e-09	3.163681e+01	5.100583e+02
2.180000e-06	4.457617e-06	9.091277e-09	3.072811e+01	4.968854e+02
2.190000e-06	4.324122e-06	8.970779e-09	2.980788e+01	4.835345e+02
2.200000e-06	4.189101e-06	8.844190e-09	2.887713e+01	4.700104e+02
2.210000e-06	4.052544e-06	8.715315e-09	2.793579e+01	4.563179e+02
2.220000e-06	3.914372e-06	8.579339e-09	2.698331e+01	4.424620e+02
2.230000e-06	3.774595e-06	8.436720e-09	2.601978e+01	4.284477e+02
2.240000e-06	3.633504e-06	8.282532e-09	2.504718e+01	4.142799e+02
2.250000e-06	3.491199e-06	8.125822e-09	2.406621e+01	3.999637e+02
2.260000e-06	3.347581e-06	7.968622e-09	2.307620e+01	3.855044e+02
2.270000e-06	3.202730e-06	7.809410e-09	2.207768e+01	3.709070e+02
2.280000e-06	3.056816e-06	7.643619e-09	2.107184e+01	3.561768e+02
2.290000e-06	2.909805e-06	7.467339e-09	2.005843e+01	3.413192e+02
2.300000e-06	2.761659e-06	7.278095e-09	1.903720e+01	3.263393e+02
2.310000e-06	2.612541e-06	7.078968e-09	1.800927e+01	3.112427e+02
2.320000e-06	2.462574e-06	6.870822e-09	1.697550e+01	2.960348e+02
2.330000e-06	2.311761e-06	6.655354e-09	1.593588e+01	2.807209e+02
2.340000e-06	2.160137e-06	6.433770e-09	1.489068e+01	2.653066e+02
2.350000e-06	2.007785e-06	6.210211e-09	1.384046e+01	2.497974e+02
2.360000e-06	1.854771e-06	5.981907e-09	1.278567e+01	2.341990e+02
2.370000e-06	1.701134e-06	5.743848e-09	1.172659e+01	2.185168e+02
2.380000e-06	1.546832e-06	5.490880e-09	1.066292e+01	2.027565e+02
2.390000e-06	1.391815e-06	5.221113e-09	9.594330e+00	1.869238e+02
2.400000e-06	1.236203e-06	4.934996e-09	8.521637e+00	1.710244e+02
2.410000e-06	1.080168e-06	4.636773e-09	7.446025e+00	1.550639e+02
2.420000e-06	9.237273e-07	4.330496e-09	6.367617e+00	1.390481e+02
2.430000e-06	7.669092e-07	4.014589e-09	5.286608e+00	1.229828e+02
2.440000e-06	6.098485e-07	3.688926e-09	4.203927e+00	1.068736e+02
2.450000e-06	4.526095e-07	3.349819e-09	3.120016e+00	9.072651e+01
2.460000e-06	2.951579e-07	2.991931e-09	2.034640e+00	7.454716e+01
2.470000e-06	1.376267e-07	2.615198e-09	9.487149e-01	5.834140e+01
2.480000e-06	-1.986274e-08	2.214845e-09	-1.369217e-01	4.211506e+01
2.490000e-06	-1.772795e-07	1.788223e-09	-1.222058e+00	2.587395e+01
2.500000e-06	-3.345781e-07	1.341993e-09	-2.306379e+00	9.623903e+00
2.510000e-06	-4.918069e-07	8.773754e-10	-3.390219e+00	-6.629243e+00
2.520000e-06	-6.488837e-07	3.930734e-10	-4.473011e+00	-2.287966e+01
2.530000e-06	-8.057153e-07	-1.112196e-10	-5.554114e+00	-3.912151e+01
2.540000e-06	-9.622399e-07	-6.319931e-10	-6.633100e+00	-5.534896e+01
2.550000e-06	-1.118434e-06	-1.164171e-09	-7.709806e+00	-7.155620e+01
2.560000e-06	-1.274202e-06	-1.708756e-09	-8.783579e+00	-8.773739e+01
2.570000e-06	-1.429339e-06	-2.261218e-09	-9.852998e+00	-1.038867e+02
2.580000e-06	-1.583822e-06	-2.811060e-09	-1.091791e+01	-1.199985e+02
2.590000e-06	-1.737733e-06	-3.347050e-09	-1.197888e+01	-1.360667e+02
2.600000e-06	-1.891061e-06	-3.861265e-09	-1.303583e+01	-1.520858e+02
2.610000e-06	-2.043676e-06	-4.351698e-09	-1.408786e+01	-1.680500e+02
2.620000e-06	-2.195488e-06	-4.815373e-09	-1.513437e+01	-1.839535e+02
2.630000e-06	-2.346503e-06	-5.248324e-09	-1.617537e+01	-1.997906e+02
2.640000e-06	-2.496704e-06	-5.649600e-09	-1.721076e+01	-2.155556e+02
2.650000e-06	-2.646065e-06	-6.021072e-09	-1.824037e+01	-2.312429e+02
2.660000e-06	-2.794592e-06	-6.366474e-09	-1.926423e+01	-2.468469e+02
2.670000e-06	-2.942098e-06	-6.688107e-09	-2.028105e+01	-2.623619e+02
2.680000e-06	-3.088429e-06	-6.985812e-09	-2.128976e+01	-2.777823e+02
2.690000e-06	-3.233630e-06	-7.261957e-09	-2.229069e+01	-2.931027e+02
2.700000e-06	-3.377670e-06	-7.521582e-09	-2.328361e+01	-3.083176e+02
2.710000e-06	-3.520451e-06	-7.765491e-09	-2.426786e+01	-3.234214e+02
2.720000e-06	-3.661991e-06	-7.989823e-09	-2.524355e+01	-3.384088e+02
2.730000e-06	-3.802250e-06	-8.194515e-09	-2.621041e+01	-3.532744e+02
2.740000e-06	-3.941012e-06	-8.383119e-09	-2.716695e+01	-3.680128e+02
2.750000e-06	-4.078199e-06	-8.559766e-09	-2.811264e+01	-3.826187e+02
2.760000e-06	-4.213854e-06	-8.725532e-09	-2.904776e+01	-3.970870e+02
2.770000e-06	-4.348009e-06	-8.879853e-09	-2.997254e+01	-4.114124e+02
2.780000e-06	-4.480651e-06	-9.026683e-09	-3.088690e+01	-4.255898e+02
2.790000e-06	-4.611682e-06	-9.170654e-09	-3.179014e+01	-4.396140e+02
2.800000e-06	-4.741055e-06	-9.310415e-09	-3.268196e+01	-4.534801e+02
2.810000e-06	-4.868750e-06	-9.439734e-09	-3.356222e+01	-4.671831e+02
2.820000e-06	-4.994795e-06	-9.554870e-09	-3.443109e+01	-4.807180e+02
2.830000e-06	-5.119082e-06	-9.658501e-09	-3.528785e+01	-4.940800e+02
2.840000e-06	-5.241454e-06	-9.757043e-09	-3.613141e+01	-5.072643e+02
2.850000e-06	-5.361936e-06	-9.853766e-09	-3.696194e+01	-5.202662e+02
2.860000e-06	-5.480489e-06	-9.948630e-09	-3.777917e+01	-5.330810e+02
2.870000e-06	-5.596948e-06	-1.003760e-08	-3.858197e+01	-5.457041e+02
2.880000e-06	-5.711076e-06	-1.012199e-08	-3.936870e+01	-5.581310e+02
2.890000e-06	-5.822894e-06	-1.020612e-08	-4.013951e+01	-5.703572e+02
2.900000e-06	-5.932486e-06	-1.028728e-08	-4.089497e+01	-5.823783e+02
2.910000e-06	-6.039953e-06	-1.036145e-08	-4.163578e+01	-5.941900e+02
2.920000e-06	-6.145447e-06	-1.042752e-08	-4.236299e+01	-6.057881e+02
2.930000e-06	-6.248781e-06	-1.049105e-08	-4.307531e+01	-6.171683e+02
2.940000e-06	-6.349811e-06	-1.055683e-08	-4.377175e+01	-6.283267e+02
