# Temperatura_=_20.0
# Concentracion g/m^3_=_10000.0
# C_Vs_to_Am_M_A/Vsm_=_65563218390.804596
# pendiente_HvsI_1/m_=_3716.3
# ordenada_HvsI_A/m_=_1297.0
# frecuencia_Hz_=_301762.02633239236

Tiempo_(s)	Campo_(V.s)	Magnetizacion_(V.s)	Campo_(kA/m)	Magnetizacion_(A/m)
0.000000e+00	-1.922137e-06	-3.790523e-09	-1.239668e+01	-2.486020e+02
1.000000e-08	-1.921845e-06	-3.799330e-09	-1.239480e+01	-2.490962e+02
2.000000e-08	-1.921142e-06	-3.808081e-09	-1.239026e+01	-2.495196e+02
3.000000e-08	-1.919781e-06	-3.813087e-09	-1.238148e+01	-2.497991e+02
4.000000e-08	-1.917519e-06	-3.813228e-09	-1.236690e+01	-2.498945e+02
5.000000e-08	-1.914324e-06	-3.805167e-09	-1.234629e+01	-2.498176e+02
6.000000e-08	-1.910368e-06	-3.792116e-09	-1.232078e+01	-2.496197e+02
7.000000e-08	-1.905830e-06	-3.810965e-09	-1.229151e+01	-2.493583e+02
8.000000e-08	-1.900582e-06	-3.875828e-09	-1.225766e+01	-2.490651e+02
9.000000e-08	-1.894536e-06	-3.830388e-09	-1.221867e+01	-2.487366e+02
1.000000e-07	-1.887952e-06	-3.694882e-09	-1.217620e+01	-2.483476e+02
1.100000e-07	-1.880920e-06	-3.727954e-09	-1.213086e+01	-2.478776e+02
1.200000e-07	-1.873250e-06	-3.840302e-09	-1.208139e+01	-2.473265e+02
1.300000e-07	-1.864987e-06	-3.826390e-09	-1.202809e+01	-2.467110e+02
1.400000e-07	-1.856336e-06	-3.686442e-09	-1.197230e+01	-2.460439e+02
1.500000e-07	-1.846954e-06	-3.710361e-09	-1.191180e+01	-2.453160e+02
1.600000e-07	-1.836268e-06	-3.812965e-09	-1.184287e+01	-2.444958e+02
1.700000e-07	-1.824556e-06	-3.728345e-09	-1.176734e+01	-2.435495e+02
1.800000e-07	-1.812392e-06	-3.668308e-09	-1.168889e+01	-2.424678e+02
1.900000e-07	-1.799596e-06	-3.713172e-09	-1.160636e+01	-2.412786e+02
2.000000e-07	-1.785897e-06	-3.671914e-09	-1.151801e+01	-2.400342e+02
2.100000e-07	-1.771608e-06	-3.562062e-09	-1.142586e+01	-2.387790e+02
2.200000e-07	-1.756856e-06	-3.655479e-09	-1.133071e+01	-2.375197e+02
2.300000e-07	-1.741064e-06	-3.719827e-09	-1.122887e+01	-2.362178e+02
2.400000e-07	-1.724033e-06	-3.545407e-09	-1.111903e+01	-2.348131e+02
2.500000e-07	-1.706529e-06	-3.466411e-09	-1.100613e+01	-2.332618e+02
2.600000e-07	-1.688777e-06	-3.594733e-09	-1.089164e+01	-2.315652e+02
2.700000e-07	-1.670420e-06	-3.588984e-09	-1.077325e+01	-2.297699e+02
2.800000e-07	-1.651418e-06	-3.433200e-09	-1.065070e+01	-2.279398e+02
2.900000e-07	-1.631821e-06	-3.415861e-09	-1.052431e+01	-2.261179e+02
3.000000e-07	-1.611747e-06	-3.455696e-09	-1.039484e+01	-2.243033e+02
3.100000e-07	-1.591301e-06	-3.420341e-09	-1.026298e+01	-2.224570e+02
3.200000e-07	-1.570479e-06	-3.382693e-09	-1.012869e+01	-2.205308e+02
3.300000e-07	-1.549087e-06	-3.351256e-09	-9.990725e+00	-2.184974e+02
3.400000e-07	-1.527102e-06	-3.274014e-09	-9.848934e+00	-2.163639e+02
3.500000e-07	-1.504669e-06	-3.266317e-09	-9.704250e+00	-2.141594e+02
3.600000e-07	-1.481741e-06	-3.291465e-09	-9.556382e+00	-2.119115e+02
3.700000e-07	-1.458228e-06	-3.225900e-09	-9.404737e+00	-2.096274e+02
3.800000e-07	-1.434198e-06	-3.131825e-09	-9.249754e+00	-2.072937e+02
3.900000e-07	-1.409854e-06	-3.100309e-09	-9.092753e+00	-2.048937e+02
4.000000e-07	-1.385217e-06	-3.120918e-09	-8.933856e+00	-2.024245e+02
4.100000e-07	-1.359993e-06	-3.093308e-09	-8.771175e+00	-1.999026e+02
4.200000e-07	-1.333877e-06	-3.004426e-09	-8.602741e+00	-1.973519e+02
4.300000e-07	-1.306914e-06	-2.930096e-09	-8.428843e+00	-1.947836e+02
4.400000e-07	-1.279381e-06	-2.945120e-09	-8.251274e+00	-1.921851e+02
4.500000e-07	-1.251437e-06	-2.938224e-09	-8.071048e+00	-1.895256e+02
4.600000e-07	-1.223194e-06	-2.855575e-09	-7.888899e+00	-1.867764e+02
4.700000e-07	-1.194734e-06	-2.781765e-09	-7.705352e+00	-1.839305e+02
4.800000e-07	-1.165974e-06	-2.744044e-09	-7.519860e+00	-1.810086e+02
4.900000e-07	-1.136728e-06	-2.727429e-09	-7.331246e+00	-1.780478e+02
5.000000e-07	-1.106939e-06	-2.697332e-09	-7.139121e+00	-1.750796e+02
5.100000e-07	-1.076787e-06	-2.631485e-09	-6.944657e+00	-1.721139e+02
5.200000e-07	-1.046350e-06	-2.547035e-09	-6.748357e+00	-1.691361e+02
5.300000e-07	-1.015603e-06	-2.524550e-09	-6.550055e+00	-1.661196e+02
5.400000e-07	-9.844818e-07	-2.519529e-09	-6.349343e+00	-1.630406e+02
5.500000e-07	-9.529131e-07	-2.459640e-09	-6.145743e+00	-1.598883e+02
5.600000e-07	-9.210114e-07	-2.372428e-09	-5.939996e+00	-1.566628e+02
5.700000e-07	-8.889541e-07	-2.321061e-09	-5.733244e+00	-1.533680e+02
5.800000e-07	-8.567552e-07	-2.304423e-09	-5.525580e+00	-1.500062e+02
5.900000e-07	-8.243626e-07	-2.263474e-09	-5.316666e+00	-1.465787e+02
6.000000e-07	-7.917925e-07	-2.185655e-09	-5.106608e+00	-1.430922e+02
6.100000e-07	-7.589336e-07	-2.106104e-09	-4.894686e+00	-1.395614e+02
6.200000e-07	-7.257590e-07	-2.071003e-09	-4.680729e+00	-1.360042e+02
6.300000e-07	-6.922493e-07	-2.044575e-09	-4.464611e+00	-1.324304e+02
6.400000e-07	-6.582556e-07	-1.986075e-09	-4.245371e+00	-1.288313e+02
6.500000e-07	-6.238032e-07	-1.903933e-09	-4.023173e+00	-1.251796e+02
6.600000e-07	-5.890121e-07	-1.836969e-09	-3.798790e+00	-1.214411e+02
6.700000e-07	-5.538259e-07	-1.800166e-09	-3.571859e+00	-1.175948e+02
6.800000e-07	-5.182392e-07	-1.755421e-09	-3.342346e+00	-1.136479e+02
6.900000e-07	-4.824347e-07	-1.678673e-09	-3.111427e+00	-1.096378e+02
7.000000e-07	-4.465144e-07	-1.594119e-09	-2.879762e+00	-1.056178e+02
7.100000e-07	-4.104629e-07	-1.545971e-09	-2.647250e+00	-1.016330e+02
7.200000e-07	-3.742999e-07	-1.512313e-09	-2.414019e+00	-9.769792e+01
7.300000e-07	-3.380572e-07	-1.455100e-09	-2.180275e+00	-9.378778e+01
7.400000e-07	-3.017770e-07	-1.373568e-09	-1.946288e+00	-8.984690e+01
7.500000e-07	-2.654908e-07	-1.300382e-09	-1.712263e+00	-8.581197e+01
7.600000e-07	-2.291668e-07	-1.251410e-09	-1.477994e+00	-8.164001e+01
7.700000e-07	-1.927769e-07	-1.199498e-09	-1.243301e+00	-7.732882e+01
7.800000e-07	-1.563449e-07	-1.124019e-09	-1.008335e+00	-7.292051e+01
7.900000e-07	-1.199106e-07	-1.036390e-09	-7.733547e-01	-6.848482e+01
8.000000e-07	-8.348489e-08	-9.720391e-10	-5.384297e-01	-6.408844e+01
8.100000e-07	-4.704852e-08	-9.272477e-10	-3.034360e-01	-5.976322e+01
8.200000e-07	-1.056720e-08	-8.715308e-10	-6.815237e-02	-5.548899e+01
8.300000e-07	2.591804e-08	-7.901531e-10	1.671565e-01	-5.120089e+01
8.400000e-07	6.236202e-08	-7.089585e-10	4.021993e-01	-4.681966e+01
8.500000e-07	9.879914e-08	-6.490943e-10	6.371978e-01	-4.229108e+01
8.600000e-07	1.352298e-07	-5.916498e-10	8.721546e-01	-3.761427e+01
8.700000e-07	1.716416e-07	-5.143712e-10	1.106990e+00	-3.284324e+01
8.800000e-07	2.080285e-07	-4.243854e-10	1.341665e+00	-2.806019e+01
8.900000e-07	2.443666e-07	-3.521821e-10	1.576024e+00	-2.333460e+01
9.000000e-07	2.806721e-07	-2.961699e-10	1.810174e+00	-1.869021e+01
9.100000e-07	3.169701e-07	-2.333994e-10	2.044275e+00	-1.409747e+01
9.200000e-07	3.532314e-07	-1.511918e-10	2.278140e+00	-9.493634e+00
9.300000e-07	3.894058e-07	-6.578545e-11	2.511444e+00	-4.817342e+00
9.400000e-07	4.255407e-07	2.486569e-12	2.744494e+00	-3.730779e-02
9.500000e-07	4.616180e-07	6.276823e-11	2.977171e+00	4.839162e+00
9.600000e-07	4.975524e-07	1.367950e-10	3.208928e+00	9.778285e+00
9.700000e-07	5.332906e-07	2.269659e-10	3.439418e+00	1.474088e+01
9.800000e-07	5.687228e-07	3.093399e-10	3.667936e+00	1.969813e+01
9.900000e-07	6.037760e-07	3.756894e-10	3.894009e+00	2.463529e+01
1.000000e-06	6.384291e-07	4.423457e-10	4.117502e+00	2.954709e+01
1.010000e-06	6.726700e-07	5.243894e-10	4.338335e+00	3.443390e+01
1.020000e-06	7.064944e-07	6.098055e-10	4.556484e+00	3.930403e+01
1.030000e-06	7.398722e-07	6.818765e-10	4.771751e+00	4.417857e+01
1.040000e-06	7.728459e-07	7.469417e-10	4.984413e+00	4.908990e+01
1.050000e-06	8.055687e-07	8.205672e-10	5.195456e+00	5.406836e+01
1.060000e-06	8.381266e-07	9.074914e-10	5.405436e+00	5.912197e+01
1.070000e-06	8.705150e-07	9.931565e-10	5.614323e+00	6.422310e+01
1.080000e-06	9.027561e-07	1.066236e-09	5.822259e+00	6.931500e+01
1.090000e-06	9.348444e-07	1.134773e-09	6.029210e+00	7.433918e+01
1.100000e-06	9.666519e-07	1.215264e-09	6.234350e+00	7.926910e+01
1.110000e-06	9.980419e-07	1.300351e-09	6.436798e+00	8.412817e+01
1.120000e-06	1.028996e-06	1.373785e-09	6.636435e+00	8.897792e+01
1.130000e-06	1.059549e-06	1.438449e-09	6.833481e+00	9.388075e+01
1.140000e-06	1.089757e-06	1.511600e-09	7.028310e+00	9.885963e+01
1.150000e-06	1.119678e-06	1.597504e-09	7.221278e+00	1.038806e+02
1.160000e-06	1.149271e-06	1.680230e-09	7.412139e+00	1.088706e+02
1.170000e-06	1.178430e-06	1.750721e-09	7.600198e+00	1.137591e+02
1.180000e-06	1.207153e-06	1.817421e-09	7.785442e+00	1.185185e+02
1.190000e-06	1.235569e-06	1.892001e-09	7.968709e+00	1.231754e+02
1.200000e-06	1.263774e-06	1.969001e-09	8.150619e+00	1.277877e+02
1.210000e-06	1.291732e-06	2.038625e-09	8.330933e+00	1.324026e+02
1.220000e-06	1.319206e-06	2.102470e-09	8.508121e+00	1.370248e+02
1.230000e-06	1.345905e-06	2.169922e-09	8.680313e+00	1.416152e+02
1.240000e-06	1.371760e-06	2.243764e-09	8.847066e+00	1.461199e+02
1.250000e-06	1.396924e-06	2.314263e-09	9.009358e+00	1.505076e+02
1.260000e-06	1.421586e-06	2.375517e-09	9.168414e+00	1.547900e+02
1.270000e-06	1.445864e-06	2.433860e-09	9.324995e+00	1.590094e+02
1.280000e-06	1.469689e-06	2.499565e-09	9.478651e+00	1.632041e+02
1.290000e-06	1.492948e-06	2.570246e-09	9.628656e+00	1.673749e+02
1.300000e-06	1.515668e-06	2.635193e-09	9.775187e+00	1.714781e+02
1.310000e-06	1.537937e-06	2.691784e-09	9.918815e+00	1.754497e+02
1.320000e-06	1.559746e-06	2.744871e-09	1.005947e+01	1.792456e+02
1.330000e-06	1.580977e-06	2.800533e-09	1.019639e+01	1.828710e+02
1.340000e-06	1.601704e-06	2.856570e-09	1.033007e+01	1.863797e+02
1.350000e-06	1.622071e-06	2.908799e-09	1.046143e+01	1.898422e+02
1.360000e-06	1.642045e-06	2.958103e-09	1.059025e+01	1.933036e+02
1.370000e-06	1.661428e-06	3.010128e-09	1.071526e+01	1.967569e+02
1.380000e-06	1.680059e-06	3.066356e-09	1.083542e+01	2.001473e+02
1.390000e-06	1.698084e-06	3.119154e-09	1.095167e+01	2.034042e+02
1.400000e-06	1.715591e-06	3.162665e-09	1.106458e+01	2.064792e+02
1.410000e-06	1.732522e-06	3.201664e-09	1.117377e+01	2.093685e+02
1.420000e-06	1.748836e-06	3.243271e-09	1.127899e+01	2.121085e+02
1.430000e-06	1.764346e-06	3.286129e-09	1.137902e+01	2.147504e+02
1.440000e-06	1.779079e-06	3.324530e-09	1.147404e+01	2.173312e+02
1.450000e-06	1.793222e-06	3.358612e-09	1.156525e+01	2.198601e+02
1.460000e-06	1.806720e-06	3.394391e-09	1.165231e+01	2.223224e+02
1.470000e-06	1.819530e-06	3.433480e-09	1.173493e+01	2.246959e+02
1.480000e-06	1.831760e-06	3.470387e-09	1.181380e+01	2.269654e+02
1.490000e-06	1.843286e-06	3.500031e-09	1.188814e+01	2.291252e+02
1.500000e-06	1.853835e-06	3.526048e-09	1.195617e+01	2.311716e+02
1.510000e-06	1.863326e-06	3.554561e-09	1.201738e+01	2.330945e+02
1.520000e-06	1.872018e-06	3.585974e-09	1.207344e+01	2.348786e+02
1.530000e-06	1.880263e-06	3.613738e-09	1.212662e+01	2.365154e+02
1.540000e-06	1.888041e-06	3.633735e-09	1.217678e+01	2.380174e+02
1.550000e-06	1.895161e-06	3.651830e-09	1.222270e+01	2.394227e+02
1.560000e-06	1.901604e-06	3.672654e-09	1.226426e+01	2.407812e+02
1.570000e-06	1.907426e-06	3.694263e-09	1.230180e+01	2.421275e+02
1.580000e-06	1.912568e-06	3.712291e-09	1.233497e+01	2.434572e+02
1.590000e-06	1.917129e-06	3.726931e-09	1.236438e+01	2.447210e+02
1.600000e-06	1.921240e-06	3.743258e-09	1.239090e+01	2.458469e+02
1.610000e-06	1.924703e-06	3.762383e-09	1.241323e+01	2.467779e+02
1.620000e-06	1.927209e-06	3.777016e-09	1.242939e+01	2.475051e+02
1.630000e-06	1.928701e-06	3.783969e-09	1.243902e+01	2.480761e+02
1.640000e-06	1.929466e-06	3.788418e-09	1.244395e+01	2.485714e+02
1.650000e-06	1.929768e-06	3.795626e-09	1.244590e+01	2.490607e+02
1.660000e-06	1.929515e-06	3.805041e-09	1.244427e+01	2.495650e+02
1.670000e-06	1.928567e-06	3.812780e-09	1.243815e+01	2.500468e+02
1.680000e-06	1.927021e-06	3.817838e-09	1.242818e+01	2.504331e+02
1.690000e-06	1.924918e-06	3.821863e-09	1.241461e+01	2.506573e+02
1.700000e-06	1.922141e-06	3.828610e-09	1.239671e+01	2.506956e+02
1.710000e-06	1.918774e-06	3.840417e-09	1.237499e+01	2.505751e+02
1.720000e-06	1.915018e-06	3.831005e-09	1.235077e+01	2.503533e+02
1.730000e-06	1.910662e-06	3.753154e-09	1.232267e+01	2.500819e+02
1.740000e-06	1.905016e-06	3.741226e-09	1.228626e+01	2.497813e+02
1.750000e-06	1.898092e-06	3.870182e-09	1.224161e+01	2.494383e+02
1.760000e-06	1.890728e-06	3.858439e-09	1.219411e+01	2.490267e+02
1.770000e-06	1.883227e-06	3.756130e-09	1.214574e+01	2.485315e+02
1.780000e-06	1.875126e-06	3.717196e-09	1.209349e+01	2.479596e+02
1.790000e-06	1.866078e-06	3.822520e-09	1.203513e+01	2.473288e+02
1.800000e-06	1.856532e-06	3.807506e-09	1.197356e+01	2.466464e+02
1.810000e-06	1.846747e-06	3.685798e-09	1.191046e+01	2.458950e+02
1.820000e-06	1.836088e-06	3.714654e-09	1.184171e+01	2.450392e+02
1.830000e-06	1.824381e-06	3.756313e-09	1.176621e+01	2.440507e+02
1.840000e-06	1.812312e-06	3.677272e-09	1.168838e+01	2.429316e+02
1.850000e-06	1.799731e-06	3.643667e-09	1.160724e+01	2.417206e+02
1.860000e-06	1.785800e-06	3.758237e-09	1.151739e+01	2.404712e+02
1.870000e-06	1.770729e-06	3.652468e-09	1.142019e+01	2.392183e+02
1.880000e-06	1.755211e-06	3.499352e-09	1.132011e+01	2.379531e+02
1.890000e-06	1.739263e-06	3.614115e-09	1.121725e+01	2.366268e+02
1.900000e-06	1.722619e-06	3.710647e-09	1.110991e+01	2.351800e+02
1.910000e-06	1.705390e-06	3.514770e-09	1.099879e+01	2.335813e+02
1.920000e-06	1.687751e-06	3.424194e-09	1.088503e+01	2.318482e+02
1.930000e-06	1.669493e-06	3.555274e-09	1.076727e+01	2.300370e+02
1.940000e-06	1.650539e-06	3.540378e-09	1.064503e+01	2.282087e+02
1.950000e-06	1.631164e-06	3.402375e-09	1.052007e+01	2.263935e+02
1.960000e-06	1.611534e-06	3.393339e-09	1.039347e+01	2.245761e+02
1.970000e-06	1.591480e-06	3.396548e-09	1.026414e+01	2.227109e+02
1.980000e-06	1.570678e-06	3.350586e-09	1.012997e+01	2.207535e+02
1.990000e-06	1.548972e-06	3.359484e-09	9.989980e+00	2.186876e+02
2.000000e-06	1.526422e-06	3.312874e-09	9.844546e+00	2.165296e+02
2.010000e-06	1.503222e-06	3.219331e-09	9.694920e+00	2.143109e+02
2.020000e-06	1.479632e-06	3.207412e-09	9.542781e+00	2.120538e+02
2.030000e-06	1.455775e-06	3.228202e-09	9.388913e+00	2.097577e+02
2.040000e-06	1.431472e-06	3.182134e-09	9.232172e+00	2.074062e+02
2.050000e-06	1.406537e-06	3.111457e-09	9.071354e+00	2.049852e+02
2.060000e-06	1.381082e-06	3.044975e-09	8.907186e+00	2.024985e+02
2.070000e-06	1.355191e-06	3.039270e-09	8.740207e+00	1.999670e+02
2.080000e-06	1.328770e-06	3.061755e-09	8.569805e+00	1.974124e+02
2.090000e-06	1.301842e-06	2.969986e-09	8.396136e+00	1.948389e+02
2.100000e-06	1.274575e-06	2.876063e-09	8.220278e+00	1.922265e+02
2.110000e-06	1.247061e-06	2.891022e-09	8.042831e+00	1.895426e+02
2.120000e-06	1.219265e-06	2.878938e-09	7.863559e+00	1.867636e+02
2.130000e-06	1.191064e-06	2.807325e-09	7.681682e+00	1.838918e+02
2.140000e-06	1.162257e-06	2.757433e-09	7.495890e+00	1.809552e+02
2.150000e-06	1.132727e-06	2.698171e-09	7.305442e+00	1.779913e+02
2.160000e-06	1.102525e-06	2.653226e-09	7.110653e+00	1.750261e+02
2.170000e-06	1.071717e-06	2.652983e-09	6.911960e+00	1.720610e+02
2.180000e-06	1.040529e-06	2.590620e-09	6.710813e+00	1.690758e+02
2.190000e-06	1.009137e-06	2.500296e-09	6.508356e+00	1.660432e+02
2.200000e-06	9.775181e-07	2.469424e-09	6.304431e+00	1.629432e+02
2.210000e-06	9.456806e-07	2.455298e-09	6.099098e+00	1.597690e+02
2.220000e-06	9.135688e-07	2.403885e-09	5.891995e+00	1.565228e+02
2.230000e-06	8.810848e-07	2.327676e-09	5.682491e+00	1.532083e+02
2.240000e-06	8.482653e-07	2.256951e-09	5.470825e+00	1.498271e+02
2.250000e-06	8.151573e-07	2.223842e-09	5.257297e+00	1.463815e+02
2.260000e-06	7.817514e-07	2.196977e-09	5.041848e+00	1.428808e+02
2.270000e-06	7.481363e-07	2.124030e-09	4.825050e+00	1.393416e+02
2.280000e-06	7.143514e-07	2.048144e-09	4.607157e+00	1.357807e+02
2.290000e-06	6.803013e-07	2.000197e-09	4.387553e+00	1.322028e+02
2.300000e-06	6.458594e-07	1.967147e-09	4.165423e+00	1.285924e+02
2.310000e-06	6.111308e-07	1.921286e-09	3.941444e+00	1.249183e+02
2.320000e-06	5.762343e-07	1.845508e-09	3.716381e+00	1.211483e+02
2.330000e-06	5.411280e-07	1.765787e-09	3.489965e+00	1.172692e+02
2.340000e-06	5.058818e-07	1.719417e-09	3.262647e+00	1.132987e+02
2.350000e-06	4.705271e-07	1.680821e-09	3.034630e+00	1.092815e+02
2.360000e-06	4.350952e-07	1.607541e-09	2.806115e+00	1.052710e+02
2.370000e-06	3.996284e-07	1.522469e-09	2.577374e+00	1.013044e+02
2.380000e-06	3.641124e-07	1.461352e-09	2.348316e+00	9.738381e+01
2.390000e-06	3.285199e-07	1.423674e-09	2.118765e+00	9.347276e+01
2.400000e-06	2.928766e-07	1.374598e-09	1.888886e+00	8.951010e+01
2.410000e-06	2.571977e-07	1.299104e-09	1.658778e+00	8.543611e+01
2.420000e-06	2.214983e-07	1.221211e-09	1.428537e+00	8.121936e+01
2.430000e-06	1.857851e-07	1.162435e-09	1.198208e+00	7.687250e+01
2.440000e-06	1.499689e-07	1.110775e-09	9.672134e-01	7.244921e+01
2.450000e-06	1.140494e-07	1.038440e-09	7.355532e-01	6.802197e+01
2.460000e-06	7.815004e-08	9.519439e-10	5.040230e-01	6.364931e+01
2.470000e-06	4.220967e-08	8.803562e-10	2.722281e-01	5.934720e+01
2.480000e-06	6.201645e-09	8.330004e-10	3.999706e-02	5.507903e+01
2.490000e-06	-2.981297e-08	7.808202e-10	-1.922765e-01	5.077118e+01
2.500000e-06	-6.582255e-08	7.054096e-10	-4.245177e-01	4.634828e+01
2.510000e-06	-1.017217e-07	6.226662e-10	-6.560463e-01	4.177123e+01
2.520000e-06	-1.375254e-07	5.544393e-10	-8.869601e-01	3.705811e+01
2.530000e-06	-1.733647e-07	4.949103e-10	-1.118103e+00	3.227599e+01
2.540000e-06	-2.092018e-07	4.202746e-10	-1.349232e+00	2.750753e+01
2.550000e-06	-2.449556e-07	3.342633e-10	-1.579823e+00	2.281011e+01
2.560000e-06	-2.806324e-07	2.577666e-10	-1.809918e+00	1.818974e+01
2.570000e-06	-3.162337e-07	2.006970e-10	-2.039526e+00	1.360291e+01
2.580000e-06	-3.517819e-07	1.430591e-10	-2.268791e+00	8.983428e+00
2.590000e-06	-3.872862e-07	6.723538e-11	-2.497774e+00	4.277273e+00
2.600000e-06	-4.227275e-07	-1.745456e-11	-2.726350e+00	-5.342462e-01
2.610000e-06	-4.580915e-07	-8.890084e-11	-2.954427e+00	-5.433251e+00
2.620000e-06	-4.934075e-07	-1.507234e-10	-3.182195e+00	-1.038193e+01
2.630000e-06	-5.286673e-07	-2.255758e-10	-3.409601e+00	-1.534326e+01
2.640000e-06	-5.637870e-07	-3.130980e-10	-3.636103e+00	-2.029311e+01
2.650000e-06	-5.986740e-07	-3.950452e-10	-3.861104e+00	-2.522043e+01
2.660000e-06	-6.333303e-07	-4.603173e-10	-4.084617e+00	-3.012189e+01
2.670000e-06	-6.677498e-07	-5.235608e-10	-4.306603e+00	-3.499993e+01
2.680000e-06	-7.018639e-07	-5.998399e-10	-4.526620e+00	-3.986652e+01
2.690000e-06	-7.356738e-07	-6.835049e-10	-4.744674e+00	-4.474710e+01
2.700000e-06	-7.692359e-07	-7.581964e-10	-4.961130e+00	-4.967539e+01
2.710000e-06	-8.026233e-07	-8.240713e-10	-5.176460e+00	-5.467675e+01
2.720000e-06	-8.357701e-07	-8.962950e-10	-5.390238e+00	-5.974843e+01
2.730000e-06	-8.685914e-07	-9.806561e-10	-5.601916e+00	-6.485159e+01
2.740000e-06	-9.010476e-07	-1.066357e-09	-5.811241e+00	-6.992521e+01
2.750000e-06	-9.331437e-07	-1.138696e-09	-6.018242e+00	-7.491773e+01
2.760000e-06	-9.649572e-07	-1.203050e-09	-6.223420e+00	-7.981798e+01
2.770000e-06	-9.965255e-07	-1.273988e-09	-6.427018e+00	-8.466443e+01
2.780000e-06	-1.027909e-06	-1.355007e-09	-6.629426e+00	-8.952366e+01
2.790000e-06	-1.059054e-06	-1.433538e-09	-6.830292e+00	-9.444916e+01
2.800000e-06	-1.089787e-06	-1.502566e-09	-7.028501e+00	-9.944587e+01
2.810000e-06	-1.119933e-06	-1.572545e-09	-7.222925e+00	-1.044637e+02
2.820000e-06	-1.149376e-06	-1.651653e-09	-7.412818e+00	-1.094253e+02
2.830000e-06	-1.178189e-06	-1.734193e-09	-7.598645e+00	-1.142707e+02
2.840000e-06	-1.206429e-06	-1.806953e-09	-7.780778e+00	-1.189900e+02
2.850000e-06	-1.234184e-06	-1.870424e-09	-7.959778e+00	-1.236239e+02
2.860000e-06	-1.261669e-06	-1.936763e-09	-8.137042e+00	-1.282316e+02
2.870000e-06	-1.288932e-06	-2.011809e-09	-8.312872e+00	-1.328487e+02
2.880000e-06	-1.315819e-06	-2.086847e-09	-8.486275e+00	-1.374645e+02
2.890000e-06	-1.342159e-06	-2.152787e-09	-8.656157e+00	-1.420309e+02
2.900000e-06	-1.367962e-06	-2.215811e-09	-8.822571e+00	-1.464975e+02
2.910000e-06	-1.393365e-06	-2.283980e-09	-8.986407e+00	-1.508461e+02
2.920000e-06	-1.418295e-06	-2.354284e-09	-9.147189e+00	-1.551010e+02
2.930000e-06	-1.442629e-06	-2.418395e-09	-9.304129e+00	-1.593076e+02
2.940000e-06	-1.466478e-06	-2.477376e-09	-9.457945e+00	-1.634948e+02
