# Temperatura_=_20.0
# Concentracion g/m^3_=_10000.0
# C_Vs_to_Am_M_A/Vsm_=_65563218390.804596
# pendiente_HvsI_1/m_=_3716.3
# ordenada_HvsI_A/m_=_1297.0
# frecuencia_Hz_=_301763.69840216375

Tiempo_(s)	Campo_(V.s)	Magnetizacion_(V.s)	Campo_(kA/m)	Magnetizacion_(A/m)
0.000000e+00	-1.921019e-06	-3.777065e-09	-1.239660e+01	-2.474889e+02
1.000000e-08	-1.920558e-06	-3.785220e-09	-1.239362e+01	-2.478447e+02
2.000000e-08	-1.919622e-06	-3.789068e-09	-1.238758e+01	-2.481026e+02
3.000000e-08	-1.918033e-06	-3.789485e-09	-1.237733e+01	-2.482378e+02
4.000000e-08	-1.915589e-06	-3.785335e-09	-1.236156e+01	-2.482537e+02
5.000000e-08	-1.912185e-06	-3.779932e-09	-1.233959e+01	-2.481738e+02
6.000000e-08	-1.907983e-06	-3.792710e-09	-1.231248e+01	-2.480193e+02
7.000000e-08	-1.903112e-06	-3.819514e-09	-1.228104e+01	-2.477930e+02
8.000000e-08	-1.897546e-06	-3.792857e-09	-1.224513e+01	-2.474814e+02
9.000000e-08	-1.891338e-06	-3.737535e-09	-1.220506e+01	-2.470717e+02
1.000000e-07	-1.884597e-06	-3.750298e-09	-1.216156e+01	-2.465694e+02
1.100000e-07	-1.877300e-06	-3.770483e-09	-1.211448e+01	-2.460003e+02
1.200000e-07	-1.869375e-06	-3.770371e-09	-1.206333e+01	-2.453932e+02
1.300000e-07	-1.860963e-06	-3.714843e-09	-1.200905e+01	-2.447566e+02
1.400000e-07	-1.852044e-06	-3.723899e-09	-1.195150e+01	-2.440683e+02
1.500000e-07	-1.842244e-06	-3.735305e-09	-1.188825e+01	-2.432873e+02
1.600000e-07	-1.831353e-06	-3.699674e-09	-1.181797e+01	-2.423813e+02
1.700000e-07	-1.819595e-06	-3.694127e-09	-1.174210e+01	-2.413506e+02
1.800000e-07	-1.807167e-06	-3.679436e-09	-1.166189e+01	-2.402292e+02
1.900000e-07	-1.793980e-06	-3.646152e-09	-1.157680e+01	-2.390624e+02
2.000000e-07	-1.780107e-06	-3.602739e-09	-1.148727e+01	-2.378752e+02
2.100000e-07	-1.765712e-06	-3.642252e-09	-1.139438e+01	-2.366560e+02
2.200000e-07	-1.750538e-06	-3.626200e-09	-1.129646e+01	-2.353658e+02
2.300000e-07	-1.734300e-06	-3.555891e-09	-1.119167e+01	-2.339681e+02
2.400000e-07	-1.717238e-06	-3.530118e-09	-1.108157e+01	-2.324553e+02
2.500000e-07	-1.699670e-06	-3.551818e-09	-1.096820e+01	-2.308535e+02
2.600000e-07	-1.681636e-06	-3.520751e-09	-1.085183e+01	-2.292014e+02
2.700000e-07	-1.663050e-06	-3.463651e-09	-1.073189e+01	-2.275196e+02
2.800000e-07	-1.643873e-06	-3.451115e-09	-1.060813e+01	-2.257949e+02
2.900000e-07	-1.624119e-06	-3.431630e-09	-1.048066e+01	-2.239910e+02
3.000000e-07	-1.603895e-06	-3.397686e-09	-1.035015e+01	-2.220788e+02
3.100000e-07	-1.583317e-06	-3.371028e-09	-1.021736e+01	-2.200627e+02
3.200000e-07	-1.562288e-06	-3.343595e-09	-1.008166e+01	-2.179818e+02
3.300000e-07	-1.540687e-06	-3.288161e-09	-9.942263e+00	-2.158839e+02
3.400000e-07	-1.518562e-06	-3.268152e-09	-9.799486e+00	-2.137902e+02
3.500000e-07	-1.495947e-06	-3.254347e-09	-9.653547e+00	-2.116780e+02
3.600000e-07	-1.472734e-06	-3.217923e-09	-9.503755e+00	-2.094942e+02
3.700000e-07	-1.448953e-06	-3.157762e-09	-9.350293e+00	-2.071921e+02
3.800000e-07	-1.424761e-06	-3.120640e-09	-9.194179e+00	-2.047650e+02
3.900000e-07	-1.400257e-06	-3.104338e-09	-9.036048e+00	-2.022529e+02
4.000000e-07	-1.375385e-06	-3.060811e-09	-8.875547e+00	-1.997166e+02
4.100000e-07	-1.349963e-06	-3.006475e-09	-8.711496e+00	-1.971977e+02
4.200000e-07	-1.323738e-06	-2.960828e-09	-8.542262e+00	-1.946923e+02
4.300000e-07	-1.296709e-06	-2.943325e-09	-8.367840e+00	-1.921565e+02
4.400000e-07	-1.269066e-06	-2.906275e-09	-8.189453e+00	-1.895391e+02
4.500000e-07	-1.240975e-06	-2.864548e-09	-8.008179e+00	-1.868159e+02
4.600000e-07	-1.212605e-06	-2.810776e-09	-7.825106e+00	-1.840028e+02
4.700000e-07	-1.183984e-06	-2.759724e-09	-7.640408e+00	-1.811381e+02
4.800000e-07	-1.155045e-06	-2.725808e-09	-7.453664e+00	-1.782508e+02
4.900000e-07	-1.125621e-06	-2.688718e-09	-7.263786e+00	-1.753380e+02
5.000000e-07	-1.095713e-06	-2.634885e-09	-7.070785e+00	-1.723706e+02
5.100000e-07	-1.065491e-06	-2.577958e-09	-6.875762e+00	-1.693207e+02
5.200000e-07	-1.035015e-06	-2.547036e-09	-6.679093e+00	-1.661907e+02
5.300000e-07	-1.004235e-06	-2.506210e-09	-6.480467e+00	-1.630181e+02
5.400000e-07	-9.730136e-07	-2.455443e-09	-6.278989e+00	-1.598521e+02
5.500000e-07	-9.413360e-07	-2.395411e-09	-6.074570e+00	-1.567159e+02
5.600000e-07	-9.093751e-07	-2.344565e-09	-5.868322e+00	-1.535828e+02
5.700000e-07	-8.772345e-07	-2.302467e-09	-5.660914e+00	-1.503853e+02
5.800000e-07	-8.449166e-07	-2.258306e-09	-5.452362e+00	-1.470540e+02
5.900000e-07	-8.124086e-07	-2.201391e-09	-5.242584e+00	-1.435611e+02
6.000000e-07	-7.797286e-07	-2.136068e-09	-5.031695e+00	-1.399416e+02
6.100000e-07	-7.468583e-07	-2.085384e-09	-4.819579e+00	-1.362760e+02
6.200000e-07	-7.136339e-07	-2.038446e-09	-4.605177e+00	-1.326449e+02
6.300000e-07	-6.799818e-07	-1.985778e-09	-4.388016e+00	-1.290836e+02
6.400000e-07	-6.460053e-07	-1.919295e-09	-4.168761e+00	-1.255622e+02
6.500000e-07	-6.117109e-07	-1.861164e-09	-3.947454e+00	-1.220036e+02
6.600000e-07	-5.770396e-07	-1.812888e-09	-3.723715e+00	-1.183262e+02
6.700000e-07	-5.419431e-07	-1.759109e-09	-3.497233e+00	-1.144875e+02
6.800000e-07	-5.064679e-07	-1.693107e-09	-3.268306e+00	-1.105045e+02
6.900000e-07	-4.707616e-07	-1.624103e-09	-3.037889e+00	-1.064426e+02
7.000000e-07	-4.349262e-07	-1.566129e-09	-2.806638e+00	-1.023819e+02
7.100000e-07	-3.989082e-07	-1.512098e-09	-2.574209e+00	-9.837964e+01
7.200000e-07	-3.626860e-07	-1.456252e-09	-2.340462e+00	-9.444591e+01
7.300000e-07	-3.263672e-07	-1.389353e-09	-2.106092e+00	-9.054251e+01
7.400000e-07	-2.900059e-07	-1.322770e-09	-1.871448e+00	-8.660238e+01
7.500000e-07	-2.536239e-07	-1.262191e-09	-1.636670e+00	-8.255982e+01
7.600000e-07	-2.172030e-07	-1.203233e-09	-1.401641e+00	-7.837880e+01
7.700000e-07	-1.807395e-07	-1.136564e-09	-1.166336e+00	-7.406792e+01
7.800000e-07	-1.442582e-07	-1.062612e-09	-9.309179e-01	-6.967613e+01
7.900000e-07	-1.077738e-07	-9.961746e-10	-6.954790e-01	-6.527029e+01
8.000000e-07	-7.128785e-08	-9.358531e-10	-4.600303e-01	-6.090369e+01
8.100000e-07	-3.478121e-08	-8.744532e-10	-2.244479e-01	-5.659014e+01
8.200000e-07	1.734806e-09	-8.032472e-10	1.119494e-02	-5.229700e+01
8.300000e-07	3.825094e-08	-7.311593e-10	2.468385e-01	-4.796249e+01
8.400000e-07	7.474731e-08	-6.646853e-10	4.823546e-01	-4.352931e+01
8.500000e-07	1.112478e-07	-6.001005e-10	7.178972e-01	-3.897697e+01
8.600000e-07	1.477558e-07	-5.282957e-10	9.534885e-01	-3.433420e+01
8.700000e-07	1.842368e-07	-4.499422e-10	1.188905e+00	-2.966338e+01
8.800000e-07	2.206848e-07	-3.773087e-10	1.424109e+00	-2.502558e+01
8.900000e-07	2.570915e-07	-3.115223e-10	1.659047e+00	-2.044642e+01
9.000000e-07	2.934760e-07	-2.461536e-10	1.893841e+00	-1.590302e+01
9.100000e-07	3.298340e-07	-1.729260e-10	2.128464e+00	-1.133951e+01
9.200000e-07	3.660956e-07	-9.736631e-11	2.362465e+00	-6.700915e+00
9.300000e-07	4.022643e-07	-2.523314e-11	2.595867e+00	-1.964376e+00
9.400000e-07	4.383737e-07	4.215713e-11	2.828885e+00	2.850806e+00
9.500000e-07	4.743500e-07	1.132163e-10	3.061045e+00	7.698584e+00
9.600000e-07	5.101504e-07	1.915773e-10	3.292070e+00	1.253529e+01
9.700000e-07	5.456391e-07	2.694501e-10	3.521084e+00	1.734326e+01
9.800000e-07	5.806995e-07	3.430985e-10	3.747333e+00	2.213526e+01
9.900000e-07	6.153669e-07	4.144449e-10	3.971047e+00	2.693988e+01
1.000000e-06	6.496938e-07	4.903177e-10	4.192563e+00	3.178017e+01
1.010000e-06	6.837148e-07	5.672727e-10	4.412105e+00	3.666048e+01
1.020000e-06	7.173469e-07	6.400739e-10	4.629138e+00	4.156848e+01
1.030000e-06	7.505385e-07	7.100744e-10	4.843327e+00	4.648787e+01
1.040000e-06	7.834118e-07	7.853162e-10	5.055464e+00	5.141021e+01
1.050000e-06	8.160839e-07	8.657293e-10	5.266301e+00	5.633734e+01
1.060000e-06	8.486090e-07	9.454685e-10	5.476190e+00	6.127424e+01
1.070000e-06	8.810189e-07	1.021141e-09	5.685335e+00	6.622020e+01
1.080000e-06	9.132775e-07	1.093366e-09	5.893505e+00	7.116683e+01
1.090000e-06	9.452747e-07	1.168566e-09	6.099987e+00	7.610463e+01
1.100000e-06	9.769137e-07	1.245421e-09	6.304158e+00	8.103187e+01
1.110000e-06	1.008097e-06	1.321177e-09	6.505388e+00	8.595654e+01
1.120000e-06	1.038860e-06	1.392254e-09	6.703907e+00	9.088773e+01
1.130000e-06	1.069348e-06	1.465484e-09	6.900648e+00	9.582180e+01
1.140000e-06	1.099531e-06	1.543651e-09	7.095422e+00	1.007350e+02
1.150000e-06	1.129332e-06	1.622184e-09	7.287737e+00	1.055911e+02
1.160000e-06	1.158693e-06	1.695663e-09	7.477203e+00	1.103615e+02
1.170000e-06	1.187660e-06	1.765016e-09	7.664134e+00	1.150463e+02
1.180000e-06	1.216352e-06	1.837261e-09	7.849284e+00	1.196795e+02
1.190000e-06	1.244799e-06	1.911897e-09	8.032858e+00	1.243126e+02
1.200000e-06	1.272953e-06	1.984436e-09	8.214538e+00	1.289827e+02
1.210000e-06	1.300705e-06	2.051621e-09	8.393628e+00	1.336849e+02
1.220000e-06	1.327873e-06	2.119486e-09	8.568946e+00	1.383676e+02
1.230000e-06	1.354190e-06	2.190092e-09	8.738774e+00	1.429558e+02
1.240000e-06	1.379645e-06	2.259521e-09	8.903038e+00	1.473906e+02
1.250000e-06	1.404519e-06	2.323922e-09	9.063555e+00	1.516624e+02
1.260000e-06	1.429033e-06	2.386204e-09	9.221743e+00	1.558163e+02
1.270000e-06	1.453188e-06	2.449922e-09	9.377624e+00	1.599252e+02
1.280000e-06	1.476821e-06	2.515945e-09	9.530128e+00	1.640467e+02
1.290000e-06	1.499880e-06	2.581378e-09	9.678933e+00	1.681873e+02
1.300000e-06	1.522440e-06	2.642646e-09	9.824515e+00	1.722966e+02
1.310000e-06	1.544521e-06	2.700588e-09	9.967004e+00	1.762935e+02
1.320000e-06	1.566128e-06	2.756991e-09	1.010644e+01	1.801106e+02
1.330000e-06	1.587232e-06	2.812822e-09	1.024262e+01	1.837291e+02
1.340000e-06	1.607862e-06	2.866511e-09	1.037575e+01	1.871860e+02
1.350000e-06	1.628096e-06	2.918883e-09	1.050633e+01	1.905502e+02
1.360000e-06	1.647857e-06	2.971722e-09	1.063384e+01	1.938831e+02
1.370000e-06	1.667015e-06	3.024104e-09	1.075747e+01	1.972077e+02
1.380000e-06	1.685538e-06	3.074427e-09	1.087701e+01	2.005013e+02
1.390000e-06	1.703452e-06	3.121394e-09	1.099261e+01	2.037148e+02
1.400000e-06	1.720821e-06	3.165747e-09	1.110469e+01	2.068014e+02
1.410000e-06	1.737561e-06	3.207783e-09	1.121272e+01	2.097387e+02
1.420000e-06	1.753505e-06	3.248836e-09	1.131561e+01	2.125317e+02
1.430000e-06	1.768647e-06	3.289712e-09	1.141332e+01	2.151991e+02
1.440000e-06	1.783123e-06	3.329359e-09	1.150674e+01	2.177569e+02
1.450000e-06	1.797003e-06	3.367333e-09	1.159631e+01	2.202108e+02
1.460000e-06	1.810282e-06	3.402387e-09	1.168200e+01	2.225613e+02
1.470000e-06	1.822959e-06	3.435427e-09	1.176380e+01	2.248129e+02
1.480000e-06	1.834949e-06	3.466977e-09	1.184118e+01	2.269780e+02
1.490000e-06	1.846078e-06	3.498160e-09	1.191300e+01	2.290685e+02
1.500000e-06	1.856234e-06	3.528203e-09	1.197853e+01	2.310822e+02
1.510000e-06	1.865504e-06	3.556137e-09	1.203835e+01	2.329953e+02
1.520000e-06	1.874128e-06	3.582852e-09	1.209400e+01	2.347714e+02
1.530000e-06	1.882245e-06	3.607467e-09	1.214639e+01	2.363831e+02
1.540000e-06	1.889767e-06	3.629019e-09	1.219493e+01	2.378346e+02
1.550000e-06	1.896607e-06	3.647219e-09	1.223907e+01	2.391656e+02
1.560000e-06	1.902810e-06	3.664227e-09	1.227910e+01	2.404329e+02
1.570000e-06	1.908379e-06	3.682027e-09	1.231503e+01	2.416774e+02
1.580000e-06	1.913323e-06	3.700367e-09	1.234693e+01	2.428978e+02
1.590000e-06	1.917764e-06	3.717414e-09	1.237559e+01	2.440493e+02
1.600000e-06	1.921631e-06	3.733076e-09	1.240055e+01	2.450692e+02
1.610000e-06	1.924687e-06	3.746625e-09	1.242027e+01	2.459142e+02
1.620000e-06	1.926768e-06	3.758169e-09	1.243370e+01	2.465864e+02
1.630000e-06	1.927984e-06	3.767152e-09	1.244155e+01	2.471298e+02
1.640000e-06	1.928596e-06	3.773136e-09	1.244550e+01	2.476023e+02
1.650000e-06	1.928659e-06	3.778555e-09	1.244590e+01	2.480404e+02
1.660000e-06	1.928114e-06	3.786094e-09	1.244238e+01	2.484415e+02
1.670000e-06	1.926971e-06	3.794203e-09	1.243501e+01	2.487716e+02
1.680000e-06	1.925240e-06	3.799295e-09	1.242384e+01	2.489930e+02
1.690000e-06	1.922885e-06	3.801058e-09	1.240864e+01	2.490897e+02
1.700000e-06	1.919935e-06	3.805110e-09	1.238960e+01	2.490735e+02
1.710000e-06	1.916525e-06	3.798837e-09	1.236760e+01	2.489695e+02
1.720000e-06	1.912609e-06	3.764347e-09	1.234233e+01	2.487942e+02
1.730000e-06	1.907713e-06	3.762672e-09	1.231073e+01	2.485440e+02
1.740000e-06	1.901575e-06	3.802982e-09	1.227112e+01	2.482032e+02
1.750000e-06	1.894589e-06	3.785770e-09	1.222604e+01	2.477635e+02
1.760000e-06	1.887228e-06	3.769256e-09	1.217854e+01	2.472380e+02
1.770000e-06	1.879467e-06	3.741783e-09	1.212846e+01	2.466556e+02
1.780000e-06	1.871017e-06	3.767988e-09	1.207393e+01	2.460411e+02
1.790000e-06	1.861878e-06	3.742045e-09	1.201495e+01	2.453933e+02
1.800000e-06	1.852251e-06	3.717699e-09	1.195283e+01	2.446814e+02
1.810000e-06	1.842037e-06	3.722904e-09	1.188691e+01	2.438641e+02
1.820000e-06	1.830967e-06	3.703503e-09	1.181548e+01	2.429177e+02
1.830000e-06	1.819200e-06	3.669696e-09	1.173954e+01	2.418545e+02
1.840000e-06	1.806917e-06	3.662860e-09	1.166028e+01	2.407155e+02
1.850000e-06	1.793727e-06	3.687983e-09	1.157517e+01	2.395427e+02
1.860000e-06	1.779411e-06	3.612212e-09	1.148278e+01	2.383498e+02
1.870000e-06	1.764291e-06	3.578816e-09	1.138521e+01	2.371142e+02
1.880000e-06	1.748690e-06	3.605282e-09	1.128453e+01	2.357940e+02
1.890000e-06	1.732549e-06	3.600849e-09	1.118037e+01	2.343598e+02
1.900000e-06	1.715748e-06	3.521109e-09	1.107195e+01	2.328159e+02
1.910000e-06	1.698402e-06	3.501100e-09	1.096002e+01	2.311957e+02
1.920000e-06	1.680525e-06	3.509981e-09	1.084466e+01	2.295349e+02
1.930000e-06	1.662059e-06	3.470958e-09	1.072549e+01	2.278439e+02
1.940000e-06	1.643068e-06	3.426124e-09	1.060295e+01	2.260996e+02
1.950000e-06	1.623654e-06	3.416808e-09	1.047766e+01	2.242644e+02
1.960000e-06	1.603840e-06	3.380761e-09	1.034980e+01	2.223179e+02
1.970000e-06	1.583460e-06	3.344408e-09	1.021828e+01	2.202772e+02
1.980000e-06	1.562259e-06	3.333732e-09	1.008147e+01	2.181878e+02
1.990000e-06	1.540181e-06	3.298133e-09	9.938998e+00	2.160926e+02
2.000000e-06	1.517345e-06	3.247073e-09	9.791633e+00	2.139990e+02
2.010000e-06	1.494029e-06	3.211883e-09	9.641171e+00	2.118717e+02
2.020000e-06	1.470435e-06	3.196451e-09	9.488917e+00	2.096551e+02
2.030000e-06	1.446436e-06	3.162949e-09	9.334047e+00	2.073127e+02
2.040000e-06	1.421849e-06	3.113247e-09	9.175385e+00	2.048537e+02
2.050000e-06	1.396705e-06	3.064393e-09	9.013131e+00	2.023289e+02
2.060000e-06	1.371129e-06	3.047159e-09	8.848086e+00	1.997972e+02
2.070000e-06	1.345059e-06	3.021763e-09	8.679847e+00	1.972869e+02
2.080000e-06	1.318491e-06	2.962718e-09	8.508402e+00	1.947792e+02
2.090000e-06	1.291526e-06	2.920420e-09	8.334392e+00	1.922237e+02
2.100000e-06	1.264214e-06	2.886333e-09	8.158144e+00	1.895746e+02
2.110000e-06	1.236600e-06	2.844499e-09	7.979950e+00	1.868206e+02
2.120000e-06	1.208640e-06	2.806337e-09	7.799522e+00	1.839880e+02
2.130000e-06	1.180158e-06	2.765294e-09	7.615720e+00	1.811158e+02
2.140000e-06	1.150986e-06	2.710814e-09	7.427470e+00	1.782239e+02
2.150000e-06	1.121111e-06	2.672744e-09	7.234679e+00	1.752989e+02
2.160000e-06	1.090636e-06	2.636508e-09	7.038020e+00	1.723086e+02
2.170000e-06	1.059746e-06	2.575325e-09	6.838688e+00	1.692324e+02
2.180000e-06	1.028559e-06	2.521263e-09	6.637433e+00	1.660848e+02
2.190000e-06	9.971530e-07	2.472995e-09	6.434765e+00	1.629111e+02
2.200000e-06	9.655638e-07	2.429530e-09	6.230915e+00	1.597559e+02
2.210000e-06	9.336643e-07	2.386537e-09	6.025063e+00	1.566277e+02
2.220000e-06	9.013804e-07	2.336818e-09	5.816731e+00	1.534839e+02
2.230000e-06	8.687628e-07	2.278830e-09	5.606245e+00	1.502513e+02
2.240000e-06	8.358400e-07	2.231946e-09	5.393790e+00	1.468697e+02
2.250000e-06	8.026821e-07	2.183218e-09	5.179817e+00	1.433310e+02
2.260000e-06	7.692923e-07	2.121636e-09	4.964348e+00	1.396884e+02
2.270000e-06	7.356495e-07	2.062179e-09	4.747247e+00	1.360281e+02
2.280000e-06	7.017500e-07	2.008098e-09	4.528489e+00	1.324203e+02
2.290000e-06	6.675477e-07	1.964173e-09	4.307777e+00	1.288796e+02
2.300000e-06	6.330346e-07	1.913907e-09	4.085058e+00	1.253574e+02
2.310000e-06	5.982363e-07	1.851990e-09	3.860500e+00	1.217699e+02
2.320000e-06	5.632697e-07	1.789955e-09	3.634856e+00	1.180442e+02
2.330000e-06	5.282106e-07	1.735240e-09	3.408615e+00	1.141560e+02
2.340000e-06	4.930340e-07	1.676238e-09	3.181616e+00	1.101405e+02
2.350000e-06	4.577455e-07	1.610742e-09	2.953894e+00	1.060722e+02
2.360000e-06	4.223854e-07	1.544624e-09	2.725711e+00	1.020276e+02
2.370000e-06	3.869983e-07	1.481340e-09	2.497353e+00	9.805040e+01
2.380000e-06	3.515788e-07	1.426676e-09	2.268786e+00	9.413409e+01
2.390000e-06	3.161144e-07	1.371464e-09	2.039930e+00	9.022835e+01
2.400000e-06	2.805716e-07	1.310864e-09	1.810567e+00	8.626309e+01
2.410000e-06	2.449370e-07	1.245164e-09	1.580612e+00	8.217953e+01
2.420000e-06	2.092359e-07	1.181785e-09	1.350228e+00	7.795518e+01
2.430000e-06	1.734404e-07	1.120801e-09	1.119235e+00	7.361308e+01
2.440000e-06	1.375468e-07	1.053727e-09	8.876080e-01	6.921106e+01
2.450000e-06	1.016097e-07	9.807285e-10	6.557015e-01	6.481510e+01
2.460000e-06	6.565698e-08	9.105302e-10	4.236935e-01	6.046794e+01
2.470000e-06	2.966106e-08	8.495265e-10	1.914069e-01	5.616804e+01
2.480000e-06	-6.351280e-09	7.885745e-10	-4.098568e-02	5.187045e+01
2.490000e-06	-4.236328e-08	7.226836e-10	-2.733760e-01	4.751081e+01
2.500000e-06	-7.832952e-08	6.513039e-10	-5.054711e-01	4.304076e+01
2.510000e-06	-1.142020e-07	5.822126e-10	-7.369613e-01	3.845562e+01
2.520000e-06	-1.500364e-07	5.159682e-10	-9.682054e-01	3.379787e+01
2.530000e-06	-1.858548e-07	4.448104e-10	-1.199346e+00	2.913372e+01
2.540000e-06	-2.216075e-07	3.688819e-10	-1.430063e+00	2.451589e+01
2.550000e-06	-2.572539e-07	2.965481e-10	-1.660095e+00	1.995444e+01
2.560000e-06	-2.928092e-07	2.329717e-10	-1.889538e+00	1.541295e+01
2.570000e-06	-3.283106e-07	1.697812e-10	-2.118633e+00	1.083182e+01
2.580000e-06	-3.637703e-07	9.971085e-11	-2.347459e+00	6.163728e+00
2.590000e-06	-3.991815e-07	2.311403e-11	-2.575973e+00	1.399580e+00
2.600000e-06	-4.345247e-07	-5.024581e-11	-2.804047e+00	-3.430030e+00
2.610000e-06	-4.698092e-07	-1.200023e-10	-3.031743e+00	-8.276519e+00
2.620000e-06	-5.050547e-07	-1.928681e-10	-3.259187e+00	-1.310276e+01
2.630000e-06	-5.402162e-07	-2.701957e-10	-3.486089e+00	-1.790144e+01
2.640000e-06	-5.751872e-07	-3.461746e-10	-3.711762e+00	-2.269267e+01
2.650000e-06	-6.099253e-07	-4.160919e-10	-3.935932e+00	-2.750544e+01
2.660000e-06	-6.444423e-07	-4.852834e-10	-4.158674e+00	-3.235752e+01
2.670000e-06	-6.787010e-07	-5.588589e-10	-4.379750e+00	-3.724699e+01
2.680000e-06	-7.126945e-07	-6.367508e-10	-4.599115e+00	-4.215866e+01
2.690000e-06	-7.464188e-07	-7.123756e-10	-4.816742e+00	-4.707778e+01
2.700000e-06	-7.798929e-07	-7.842280e-10	-5.032756e+00	-5.199954e+01
2.710000e-06	-8.131252e-07	-8.559151e-10	-5.247208e+00	-5.692783e+01
2.720000e-06	-8.460965e-07	-9.317572e-10	-5.459976e+00	-6.186657e+01
2.730000e-06	-8.788119e-07	-1.009237e-09	-5.671093e+00	-6.681233e+01
2.740000e-06	-9.112156e-07	-1.083454e-09	-5.880199e+00	-7.175535e+01
2.750000e-06	-9.432619e-07	-1.156697e-09	-6.086998e+00	-7.668785e+01
2.760000e-06	-9.749725e-07	-1.230539e-09	-6.291631e+00	-8.161150e+01
2.770000e-06	-1.006420e-06	-1.306284e-09	-6.494566e+00	-8.653605e+01
2.780000e-06	-1.037634e-06	-1.382383e-09	-6.695995e+00	-9.146792e+01
2.790000e-06	-1.068505e-06	-1.456849e-09	-6.895208e+00	-9.639722e+01
2.800000e-06	-1.098926e-06	-1.530082e-09	-7.091520e+00	-1.012946e+02
2.810000e-06	-1.128816e-06	-1.603699e-09	-7.284401e+00	-1.061236e+02
2.820000e-06	-1.158129e-06	-1.677418e-09	-7.473562e+00	-1.108632e+02
2.830000e-06	-1.186810e-06	-1.748855e-09	-7.658645e+00	-1.155247e+02
2.840000e-06	-1.214885e-06	-1.817065e-09	-7.839816e+00	-1.201507e+02
2.850000e-06	-1.242542e-06	-1.884839e-09	-8.018291e+00	-1.247917e+02
2.860000e-06	-1.269941e-06	-1.957006e-09	-8.195106e+00	-1.294735e+02
2.870000e-06	-1.297071e-06	-2.031427e-09	-8.370177e+00	-1.341753e+02
2.880000e-06	-1.323766e-06	-2.103579e-09	-8.542443e+00	-1.388343e+02
2.890000e-06	-1.349930e-06	-2.172106e-09	-8.711283e+00	-1.433761e+02
2.900000e-06	-1.375611e-06	-2.237856e-09	-8.877004e+00	-1.477552e+02
2.910000e-06	-1.400859e-06	-2.302288e-09	-9.039932e+00	-1.519805e+02
2.920000e-06	-1.425530e-06	-2.364799e-09	-9.199137e+00	-1.561102e+02
2.930000e-06	-1.449622e-06	-2.426117e-09	-9.354607e+00	-1.602173e+02
2.940000e-06	-1.473323e-06	-2.487670e-09	-9.507552e+00	-1.643456e+02
