# Temperatura_=_20.0
# Concentracion g/m^3_=_10000.0
# C_Vs_to_Am_M_A/Vsm_=_65563218390.804596
# pendiente_HvsI_1/m_=_3716.3
# ordenada_HvsI_A/m_=_1297.0
# frecuencia_Hz_=_81163.2665579114

Tiempo_(s)	Campo_(V.s)	Magnetizacion_(V.s)	Campo_(kA/m)	Magnetizacion_(A/m)
0.000000e+00	-3.105252e-06	-7.044517e-09	-2.356010e+01	-4.560358e+02
1.000000e-08	-3.105230e-06	-7.023233e-09	-2.355993e+01	-4.561619e+02
2.000000e-08	-3.105339e-06	-7.007661e-09	-2.356076e+01	-4.562521e+02
3.000000e-08	-3.105384e-06	-7.036355e-09	-2.356110e+01	-4.563064e+02
4.000000e-08	-3.105250e-06	-7.012793e-09	-2.356008e+01	-4.563254e+02
5.000000e-08	-3.104965e-06	-6.984012e-09	-2.355792e+01	-4.563099e+02
6.000000e-08	-3.104576e-06	-7.013041e-09	-2.355497e+01	-4.562615e+02
7.000000e-08	-3.104085e-06	-7.032801e-09	-2.355124e+01	-4.561817e+02
8.000000e-08	-3.103466e-06	-7.010909e-09	-2.354655e+01	-4.560725e+02
9.000000e-08	-3.102771e-06	-6.984340e-09	-2.354127e+01	-4.559362e+02
1.000000e-07	-3.102027e-06	-6.985960e-09	-2.353562e+01	-4.557753e+02
1.100000e-07	-3.101311e-06	-6.996483e-09	-2.353020e+01	-4.555924e+02
1.200000e-07	-3.100504e-06	-6.985989e-09	-2.352407e+01	-4.553902e+02
1.300000e-07	-3.099588e-06	-6.974752e-09	-2.351713e+01	-4.551715e+02
1.400000e-07	-3.098604e-06	-6.981592e-09	-2.350966e+01	-4.549391e+02
1.500000e-07	-3.097539e-06	-6.981844e-09	-2.350158e+01	-4.546959e+02
1.600000e-07	-3.096381e-06	-6.951955e-09	-2.349279e+01	-4.544445e+02
1.700000e-07	-3.095088e-06	-6.938576e-09	-2.348298e+01	-4.541875e+02
1.800000e-07	-3.093770e-06	-6.944949e-09	-2.347298e+01	-4.539276e+02
1.900000e-07	-3.092370e-06	-6.942703e-09	-2.346236e+01	-4.536669e+02
2.000000e-07	-3.090825e-06	-6.935025e-09	-2.345064e+01	-4.534076e+02
2.100000e-07	-3.089129e-06	-6.930559e-09	-2.343777e+01	-4.531519e+02
2.200000e-07	-3.087357e-06	-6.928736e-09	-2.342433e+01	-4.529014e+02
2.300000e-07	-3.085568e-06	-6.921873e-09	-2.341075e+01	-4.526578e+02
2.400000e-07	-3.083678e-06	-6.916464e-09	-2.339641e+01	-4.524226e+02
2.500000e-07	-3.081703e-06	-6.908672e-09	-2.338142e+01	-4.521970e+02
2.600000e-07	-3.079659e-06	-6.906702e-09	-2.336592e+01	-4.519821e+02
2.700000e-07	-3.077542e-06	-6.916548e-09	-2.334985e+01	-4.517788e+02
2.800000e-07	-3.075339e-06	-6.918183e-09	-2.333314e+01	-4.515878e+02
2.900000e-07	-3.073054e-06	-6.905968e-09	-2.331581e+01	-4.514098e+02
3.000000e-07	-3.070716e-06	-6.887625e-09	-2.329807e+01	-4.512453e+02
3.100000e-07	-3.068303e-06	-6.883923e-09	-2.327976e+01	-4.510945e+02
3.200000e-07	-3.065837e-06	-6.886512e-09	-2.326105e+01	-4.509576e+02
3.300000e-07	-3.063304e-06	-6.883327e-09	-2.324183e+01	-4.508348e+02
3.400000e-07	-3.060706e-06	-6.877395e-09	-2.322212e+01	-4.507259e+02
3.500000e-07	-3.057986e-06	-6.877001e-09	-2.320148e+01	-4.506308e+02
3.600000e-07	-3.055123e-06	-6.885913e-09	-2.317976e+01	-4.505492e+02
3.700000e-07	-3.052200e-06	-6.884384e-09	-2.315758e+01	-4.504806e+02
3.800000e-07	-3.049199e-06	-6.875077e-09	-2.313482e+01	-4.504246e+02
3.900000e-07	-3.046127e-06	-6.867713e-09	-2.311150e+01	-4.503804e+02
4.000000e-07	-3.042974e-06	-6.872809e-09	-2.308758e+01	-4.503472e+02
4.100000e-07	-3.039763e-06	-6.881796e-09	-2.306322e+01	-4.503240e+02
4.200000e-07	-3.036505e-06	-6.873561e-09	-2.303850e+01	-4.503098e+02
4.300000e-07	-3.033181e-06	-6.860036e-09	-2.301328e+01	-4.503033e+02
4.400000e-07	-3.029784e-06	-6.860839e-09	-2.298751e+01	-4.503031e+02
4.500000e-07	-3.026291e-06	-6.876792e-09	-2.296101e+01	-4.503076e+02
4.600000e-07	-3.022707e-06	-6.880485e-09	-2.293381e+01	-4.503152e+02
4.700000e-07	-3.019020e-06	-6.872292e-09	-2.290584e+01	-4.503239e+02
4.800000e-07	-3.015256e-06	-6.867781e-09	-2.287728e+01	-4.503319e+02
4.900000e-07	-3.011432e-06	-6.868420e-09	-2.284827e+01	-4.503369e+02
5.000000e-07	-3.007538e-06	-6.864423e-09	-2.281872e+01	-4.503368e+02
5.100000e-07	-3.003560e-06	-6.845286e-09	-2.278854e+01	-4.503294e+02
5.200000e-07	-2.999494e-06	-6.835847e-09	-2.275769e+01	-4.503121e+02
5.300000e-07	-2.995379e-06	-6.845081e-09	-2.272647e+01	-4.502826e+02
5.400000e-07	-2.991191e-06	-6.862035e-09	-2.269469e+01	-4.502386e+02
5.500000e-07	-2.986886e-06	-6.870927e-09	-2.266203e+01	-4.501775e+02
5.600000e-07	-2.982467e-06	-6.866545e-09	-2.262850e+01	-4.500971e+02
5.700000e-07	-2.977964e-06	-6.865203e-09	-2.259434e+01	-4.499951e+02
5.800000e-07	-2.973410e-06	-6.860612e-09	-2.255979e+01	-4.498694e+02
5.900000e-07	-2.968779e-06	-6.848351e-09	-2.252465e+01	-4.497179e+02
6.000000e-07	-2.964069e-06	-6.831918e-09	-2.248891e+01	-4.495390e+02
6.100000e-07	-2.959275e-06	-6.823534e-09	-2.245254e+01	-4.493309e+02
6.200000e-07	-2.954423e-06	-6.827809e-09	-2.241573e+01	-4.490924e+02
6.300000e-07	-2.949511e-06	-6.829842e-09	-2.237846e+01	-4.488223e+02
6.400000e-07	-2.944486e-06	-6.826467e-09	-2.234033e+01	-4.485199e+02
6.500000e-07	-2.939360e-06	-6.822088e-09	-2.230145e+01	-4.481847e+02
6.600000e-07	-2.934127e-06	-6.821800e-09	-2.226174e+01	-4.478163e+02
6.700000e-07	-2.928800e-06	-6.816177e-09	-2.222132e+01	-4.474149e+02
6.800000e-07	-2.923393e-06	-6.800558e-09	-2.218030e+01	-4.469808e+02
6.900000e-07	-2.917900e-06	-6.783625e-09	-2.213863e+01	-4.465145e+02
7.000000e-07	-2.912347e-06	-6.769569e-09	-2.209649e+01	-4.460171e+02
7.100000e-07	-2.906722e-06	-6.763840e-09	-2.205382e+01	-4.454894e+02
7.200000e-07	-2.901039e-06	-6.757609e-09	-2.201070e+01	-4.449330e+02
7.300000e-07	-2.895299e-06	-6.746904e-09	-2.196714e+01	-4.443492e+02
7.400000e-07	-2.889478e-06	-6.737046e-09	-2.192298e+01	-4.437397e+02
7.500000e-07	-2.883557e-06	-6.726825e-09	-2.187806e+01	-4.431062e+02
7.600000e-07	-2.877530e-06	-6.717257e-09	-2.183233e+01	-4.424507e+02
7.700000e-07	-2.871436e-06	-6.697853e-09	-2.178609e+01	-4.417751e+02
7.800000e-07	-2.865280e-06	-6.679036e-09	-2.173939e+01	-4.410813e+02
7.900000e-07	-2.859065e-06	-6.666546e-09	-2.169223e+01	-4.403714e+02
8.000000e-07	-2.852786e-06	-6.653829e-09	-2.164459e+01	-4.396475e+02
8.100000e-07	-2.846430e-06	-6.639422e-09	-2.159637e+01	-4.389115e+02
8.200000e-07	-2.839988e-06	-6.619466e-09	-2.154749e+01	-4.381655e+02
8.300000e-07	-2.833478e-06	-6.604523e-09	-2.149810e+01	-4.374114e+02
8.400000e-07	-2.826922e-06	-6.596217e-09	-2.144836e+01	-4.366513e+02
8.500000e-07	-2.820289e-06	-6.588113e-09	-2.139803e+01	-4.358870e+02
8.600000e-07	-2.813562e-06	-6.576783e-09	-2.134699e+01	-4.351206e+02
8.700000e-07	-2.806733e-06	-6.563954e-09	-2.129518e+01	-4.343538e+02
8.800000e-07	-2.799834e-06	-6.551712e-09	-2.124283e+01	-4.335885e+02
8.900000e-07	-2.792884e-06	-6.535414e-09	-2.119011e+01	-4.328266e+02
9.000000e-07	-2.785868e-06	-6.515281e-09	-2.113687e+01	-4.320698e+02
9.100000e-07	-2.778777e-06	-6.495303e-09	-2.108307e+01	-4.313197e+02
9.200000e-07	-2.771607e-06	-6.484519e-09	-2.102868e+01	-4.305782e+02
9.300000e-07	-2.764387e-06	-6.476506e-09	-2.097389e+01	-4.298468e+02
9.400000e-07	-2.757111e-06	-6.465338e-09	-2.091869e+01	-4.291269e+02
9.500000e-07	-2.749770e-06	-6.453912e-09	-2.086300e+01	-4.284201e+02
9.600000e-07	-2.742345e-06	-6.442407e-09	-2.080665e+01	-4.277275e+02
9.700000e-07	-2.734800e-06	-6.432612e-09	-2.074941e+01	-4.270503e+02
9.800000e-07	-2.727171e-06	-6.417902e-09	-2.069153e+01	-4.263894e+02
9.900000e-07	-2.719472e-06	-6.403762e-09	-2.063311e+01	-4.257456e+02
1.000000e-06	-2.711692e-06	-6.392806e-09	-2.057409e+01	-4.251193e+02
1.010000e-06	-2.703837e-06	-6.381815e-09	-2.051449e+01	-4.245108e+02
1.020000e-06	-2.695917e-06	-6.370480e-09	-2.045440e+01	-4.239200e+02
1.030000e-06	-2.687911e-06	-6.359627e-09	-2.039365e+01	-4.233466e+02
1.040000e-06	-2.679812e-06	-6.352807e-09	-2.033221e+01	-4.227899e+02
1.050000e-06	-2.671640e-06	-6.345217e-09	-2.027021e+01	-4.222490e+02
1.060000e-06	-2.663393e-06	-6.334894e-09	-2.020763e+01	-4.217227e+02
1.070000e-06	-2.655070e-06	-6.323424e-09	-2.014449e+01	-4.212093e+02
1.080000e-06	-2.646666e-06	-6.314781e-09	-2.008072e+01	-4.207072e+02
1.090000e-06	-2.638207e-06	-6.307724e-09	-2.001655e+01	-4.202141e+02
1.100000e-06	-2.629709e-06	-6.297386e-09	-1.995207e+01	-4.197278e+02
1.110000e-06	-2.621169e-06	-6.285513e-09	-1.988727e+01	-4.192457e+02
1.120000e-06	-2.612568e-06	-6.275665e-09	-1.982201e+01	-4.187653e+02
1.130000e-06	-2.603894e-06	-6.270593e-09	-1.975620e+01	-4.182837e+02
1.140000e-06	-2.595177e-06	-6.264441e-09	-1.969006e+01	-4.177982e+02
1.150000e-06	-2.586383e-06	-6.257241e-09	-1.962334e+01	-4.173058e+02
1.160000e-06	-2.577513e-06	-6.250242e-09	-1.955605e+01	-4.168039e+02
1.170000e-06	-2.568610e-06	-6.241182e-09	-1.948850e+01	-4.162897e+02
1.180000e-06	-2.559656e-06	-6.234051e-09	-1.942056e+01	-4.157605e+02
1.190000e-06	-2.550629e-06	-6.223714e-09	-1.935207e+01	-4.152140e+02
1.200000e-06	-2.541500e-06	-6.209626e-09	-1.928281e+01	-4.146478e+02
1.210000e-06	-2.532275e-06	-6.191451e-09	-1.921282e+01	-4.140598e+02
1.220000e-06	-2.522984e-06	-6.173008e-09	-1.914233e+01	-4.134483e+02
1.230000e-06	-2.513652e-06	-6.160508e-09	-1.907152e+01	-4.128117e+02
1.240000e-06	-2.504273e-06	-6.150466e-09	-1.900036e+01	-4.121487e+02
1.250000e-06	-2.494833e-06	-6.143877e-09	-1.892874e+01	-4.114580e+02
1.260000e-06	-2.485322e-06	-6.134538e-09	-1.885658e+01	-4.107391e+02
1.270000e-06	-2.475746e-06	-6.121177e-09	-1.878393e+01	-4.099912e+02
1.280000e-06	-2.466121e-06	-6.104905e-09	-1.871089e+01	-4.092140e+02
1.290000e-06	-2.456432e-06	-6.087170e-09	-1.863739e+01	-4.084075e+02
1.300000e-06	-2.446697e-06	-6.069304e-09	-1.856352e+01	-4.075717e+02
1.310000e-06	-2.436914e-06	-6.047767e-09	-1.848930e+01	-4.067070e+02
1.320000e-06	-2.427042e-06	-6.029756e-09	-1.841440e+01	-4.058137e+02
1.330000e-06	-2.417068e-06	-6.016547e-09	-1.833872e+01	-4.048925e+02
1.340000e-06	-2.407007e-06	-6.003957e-09	-1.826239e+01	-4.039442e+02
1.350000e-06	-2.396893e-06	-5.990182e-09	-1.818565e+01	-4.029697e+02
1.360000e-06	-2.386751e-06	-5.976365e-09	-1.810870e+01	-4.019700e+02
1.370000e-06	-2.376572e-06	-5.960936e-09	-1.803147e+01	-4.009462e+02
1.380000e-06	-2.366330e-06	-5.937676e-09	-1.795377e+01	-3.998994e+02
1.390000e-06	-2.356016e-06	-5.911607e-09	-1.787551e+01	-3.988311e+02
1.400000e-06	-2.345630e-06	-5.885543e-09	-1.779671e+01	-3.977424e+02
1.410000e-06	-2.335189e-06	-5.860175e-09	-1.771749e+01	-3.966350e+02
1.420000e-06	-2.324704e-06	-5.839420e-09	-1.763794e+01	-3.955102e+02
1.430000e-06	-2.314164e-06	-5.822993e-09	-1.755797e+01	-3.943696e+02
1.440000e-06	-2.303575e-06	-5.812603e-09	-1.747763e+01	-3.932147e+02
1.450000e-06	-2.292913e-06	-5.802810e-09	-1.739674e+01	-3.920473e+02
1.460000e-06	-2.282152e-06	-5.787226e-09	-1.731509e+01	-3.908690e+02
1.470000e-06	-2.271319e-06	-5.765014e-09	-1.723290e+01	-3.896815e+02
1.480000e-06	-2.260434e-06	-5.739099e-09	-1.715031e+01	-3.884864e+02
1.490000e-06	-2.249495e-06	-5.713391e-09	-1.706732e+01	-3.872856e+02
1.500000e-06	-2.238518e-06	-5.687809e-09	-1.698403e+01	-3.860807e+02
1.510000e-06	-2.227491e-06	-5.663959e-09	-1.690037e+01	-3.848734e+02
1.520000e-06	-2.216405e-06	-5.643108e-09	-1.681626e+01	-3.836654e+02
1.530000e-06	-2.205270e-06	-5.626543e-09	-1.673177e+01	-3.824583e+02
1.540000e-06	-2.194073e-06	-5.612107e-09	-1.664682e+01	-3.812539e+02
1.550000e-06	-2.182817e-06	-5.596377e-09	-1.656142e+01	-3.800536e+02
1.560000e-06	-2.171521e-06	-5.578100e-09	-1.647571e+01	-3.788588e+02
1.570000e-06	-2.160193e-06	-5.556509e-09	-1.638977e+01	-3.776712e+02
1.580000e-06	-2.148810e-06	-5.533701e-09	-1.630340e+01	-3.764919e+02
1.590000e-06	-2.137341e-06	-5.511816e-09	-1.621638e+01	-3.753222e+02
1.600000e-06	-2.125771e-06	-5.494809e-09	-1.612860e+01	-3.741632e+02
1.610000e-06	-2.114121e-06	-5.482556e-09	-1.604021e+01	-3.730160e+02
1.620000e-06	-2.102428e-06	-5.470043e-09	-1.595149e+01	-3.718815e+02
1.630000e-06	-2.090694e-06	-5.453208e-09	-1.586247e+01	-3.707605e+02
1.640000e-06	-2.078889e-06	-5.434032e-09	-1.577290e+01	-3.696536e+02
1.650000e-06	-2.067019e-06	-5.418770e-09	-1.568284e+01	-3.685612e+02
1.660000e-06	-2.055110e-06	-5.405360e-09	-1.559249e+01	-3.674837e+02
1.670000e-06	-2.043164e-06	-5.388021e-09	-1.550184e+01	-3.664212e+02
1.680000e-06	-2.031153e-06	-5.365623e-09	-1.541072e+01	-3.653737e+02
1.690000e-06	-2.019075e-06	-5.345985e-09	-1.531908e+01	-3.643409e+02
1.700000e-06	-2.006970e-06	-5.331520e-09	-1.522723e+01	-3.633223e+02
1.710000e-06	-1.994842e-06	-5.315438e-09	-1.513522e+01	-3.623173e+02
1.720000e-06	-1.982662e-06	-5.297825e-09	-1.504281e+01	-3.613250e+02
1.730000e-06	-1.970413e-06	-5.284766e-09	-1.494987e+01	-3.603442e+02
1.740000e-06	-1.958097e-06	-5.275898e-09	-1.485643e+01	-3.593735e+02
1.750000e-06	-1.945694e-06	-5.263990e-09	-1.476232e+01	-3.584114e+02
1.760000e-06	-1.933214e-06	-5.245363e-09	-1.466764e+01	-3.574561e+02
1.770000e-06	-1.920702e-06	-5.223934e-09	-1.457270e+01	-3.565056e+02
1.780000e-06	-1.908159e-06	-5.206288e-09	-1.447754e+01	-3.555577e+02
1.790000e-06	-1.895579e-06	-5.192527e-09	-1.438210e+01	-3.546100e+02
1.800000e-06	-1.882972e-06	-5.176499e-09	-1.428644e+01	-3.536601e+02
1.810000e-06	-1.870318e-06	-5.159184e-09	-1.419043e+01	-3.527053e+02
1.820000e-06	-1.857611e-06	-5.146619e-09	-1.409402e+01	-3.517431e+02
1.830000e-06	-1.844861e-06	-5.137693e-09	-1.399728e+01	-3.507706e+02
1.840000e-06	-1.832053e-06	-5.122273e-09	-1.390011e+01	-3.497853e+02
1.850000e-06	-1.819200e-06	-5.101276e-09	-1.380259e+01	-3.487845e+02
1.860000e-06	-1.806316e-06	-5.083394e-09	-1.370484e+01	-3.477657e+02
1.870000e-06	-1.793402e-06	-5.069655e-09	-1.360686e+01	-3.467265e+02
1.880000e-06	-1.780437e-06	-5.054713e-09	-1.350849e+01	-3.456647e+02
1.890000e-06	-1.767411e-06	-5.032796e-09	-1.340966e+01	-3.445782e+02
1.900000e-06	-1.754334e-06	-5.006787e-09	-1.331044e+01	-3.434652e+02
1.910000e-06	-1.741187e-06	-4.984606e-09	-1.321070e+01	-3.423242e+02
1.920000e-06	-1.727964e-06	-4.967185e-09	-1.311037e+01	-3.411539e+02
1.930000e-06	-1.714698e-06	-4.948876e-09	-1.300972e+01	-3.399533e+02
1.940000e-06	-1.701410e-06	-4.929556e-09	-1.290890e+01	-3.387216e+02
1.950000e-06	-1.688089e-06	-4.910347e-09	-1.280783e+01	-3.374585e+02
1.960000e-06	-1.674739e-06	-4.892639e-09	-1.270654e+01	-3.361636e+02
1.970000e-06	-1.661356e-06	-4.873968e-09	-1.260500e+01	-3.348371e+02
1.980000e-06	-1.647923e-06	-4.845716e-09	-1.250309e+01	-3.334792e+02
1.990000e-06	-1.634450e-06	-4.814001e-09	-1.240086e+01	-3.320905e+02
2.000000e-06	-1.620947e-06	-4.790342e-09	-1.229841e+01	-3.306715e+02
2.010000e-06	-1.607398e-06	-4.768782e-09	-1.219561e+01	-3.292233e+02
2.020000e-06	-1.593801e-06	-4.743867e-09	-1.209245e+01	-3.277467e+02
2.030000e-06	-1.580168e-06	-4.719276e-09	-1.198901e+01	-3.262428e+02
2.040000e-06	-1.566502e-06	-4.698164e-09	-1.188533e+01	-3.247130e+02
2.050000e-06	-1.552801e-06	-4.680788e-09	-1.178137e+01	-3.231585e+02
2.060000e-06	-1.539064e-06	-4.659487e-09	-1.167715e+01	-3.215806e+02
2.070000e-06	-1.525309e-06	-4.632981e-09	-1.157279e+01	-3.199809e+02
2.080000e-06	-1.511505e-06	-4.607113e-09	-1.146805e+01	-3.183610e+02
2.090000e-06	-1.497643e-06	-4.583433e-09	-1.136288e+01	-3.167223e+02
2.100000e-06	-1.483736e-06	-4.560402e-09	-1.125737e+01	-3.150666e+02
2.110000e-06	-1.469754e-06	-4.530607e-09	-1.115129e+01	-3.133956e+02
2.120000e-06	-1.455714e-06	-4.497560e-09	-1.104476e+01	-3.117112e+02
2.130000e-06	-1.441632e-06	-4.471728e-09	-1.093792e+01	-3.100153e+02
2.140000e-06	-1.427527e-06	-4.452344e-09	-1.083090e+01	-3.083098e+02
2.150000e-06	-1.413397e-06	-4.431592e-09	-1.072370e+01	-3.065969e+02
2.160000e-06	-1.399236e-06	-4.404418e-09	-1.061625e+01	-3.048787e+02
2.170000e-06	-1.385036e-06	-4.376133e-09	-1.050851e+01	-3.031574e+02
2.180000e-06	-1.370786e-06	-4.348388e-09	-1.040040e+01	-3.014352e+02
2.190000e-06	-1.356505e-06	-4.321000e-09	-1.029205e+01	-2.997144e+02
2.200000e-06	-1.342192e-06	-4.295354e-09	-1.018345e+01	-2.979974e+02
2.210000e-06	-1.327842e-06	-4.270282e-09	-1.007457e+01	-2.962863e+02
2.220000e-06	-1.313447e-06	-4.245656e-09	-9.965352e+00	-2.945833e+02
2.230000e-06	-1.299000e-06	-4.222504e-09	-9.855739e+00	-2.928904e+02
2.240000e-06	-1.284487e-06	-4.201596e-09	-9.745629e+00	-2.912097e+02
2.250000e-06	-1.269931e-06	-4.184186e-09	-9.635190e+00	-2.895427e+02
2.260000e-06	-1.255354e-06	-4.166317e-09	-9.524590e+00	-2.878910e+02
2.270000e-06	-1.240746e-06	-4.143505e-09	-9.413758e+00	-2.862557e+02
2.280000e-06	-1.226110e-06	-4.120146e-09	-9.302711e+00	-2.846378e+02
2.290000e-06	-1.211452e-06	-4.097056e-09	-9.191504e+00	-2.830379e+02
2.300000e-06	-1.196779e-06	-4.071972e-09	-9.080174e+00	-2.814562e+02
2.310000e-06	-1.182076e-06	-4.045578e-09	-8.968618e+00	-2.798925e+02
2.320000e-06	-1.167343e-06	-4.019720e-09	-8.856837e+00	-2.783464e+02
2.330000e-06	-1.152575e-06	-3.998911e-09	-8.744794e+00	-2.768170e+02
2.340000e-06	-1.137773e-06	-3.980908e-09	-8.632486e+00	-2.753031e+02
2.350000e-06	-1.122939e-06	-3.961660e-09	-8.519937e+00	-2.738031e+02
2.360000e-06	-1.108062e-06	-3.942049e-09	-8.407063e+00	-2.723154e+02
2.370000e-06	-1.093162e-06	-3.922465e-09	-8.294010e+00	-2.708377e+02
2.380000e-06	-1.078254e-06	-3.904434e-09	-8.180902e+00	-2.693679e+02
2.390000e-06	-1.063332e-06	-3.884642e-09	-8.067691e+00	-2.679033e+02
2.400000e-06	-1.048404e-06	-3.860945e-09	-7.954423e+00	-2.664415e+02
2.410000e-06	-1.033458e-06	-3.836835e-09	-7.841026e+00	-2.649798e+02
2.420000e-06	-1.018484e-06	-3.815860e-09	-7.727417e+00	-2.635154e+02
2.430000e-06	-1.003484e-06	-3.796086e-09	-7.613613e+00	-2.620455e+02
2.440000e-06	-9.884594e-07	-3.774641e-09	-7.499616e+00	-2.605675e+02
2.450000e-06	-9.734080e-07	-3.753453e-09	-7.385418e+00	-2.590788e+02
2.460000e-06	-9.583332e-07	-3.733833e-09	-7.271044e+00	-2.575768e+02
2.470000e-06	-9.432336e-07	-3.712721e-09	-7.156480e+00	-2.560590e+02
2.480000e-06	-9.281047e-07	-3.688531e-09	-7.041694e+00	-2.545232e+02
2.490000e-06	-9.129631e-07	-3.662140e-09	-6.926812e+00	-2.529673e+02
2.500000e-06	-8.978003e-07	-3.636638e-09	-6.811770e+00	-2.513892e+02
2.510000e-06	-8.825993e-07	-3.613849e-09	-6.696437e+00	-2.497870e+02
2.520000e-06	-8.673671e-07	-3.590838e-09	-6.580868e+00	-2.481592e+02
2.530000e-06	-8.521161e-07	-3.567124e-09	-6.465155e+00	-2.465041e+02
2.540000e-06	-8.368522e-07	-3.544358e-09	-6.349346e+00	-2.448203e+02
2.550000e-06	-8.215676e-07	-3.523079e-09	-6.233379e+00	-2.431066e+02
2.560000e-06	-8.062655e-07	-3.499183e-09	-6.117279e+00	-2.413619e+02
2.570000e-06	-7.909504e-07	-3.469882e-09	-6.001081e+00	-2.395853e+02
2.580000e-06	-7.756151e-07	-3.440786e-09	-5.884729e+00	-2.377760e+02
2.590000e-06	-7.602545e-07	-3.412543e-09	-5.768185e+00	-2.359332e+02
2.600000e-06	-7.448822e-07	-3.381064e-09	-5.651553e+00	-2.340567e+02
2.610000e-06	-7.295026e-07	-3.347063e-09	-5.534866e+00	-2.321460e+02
2.620000e-06	-7.140951e-07	-3.313812e-09	-5.417966e+00	-2.302010e+02
2.630000e-06	-6.986500e-07	-3.283881e-09	-5.300781e+00	-2.282219e+02
2.640000e-06	-6.831736e-07	-3.256640e-09	-5.183359e+00	-2.262090e+02
2.650000e-06	-6.676622e-07	-3.228529e-09	-5.065672e+00	-2.241627e+02
2.660000e-06	-6.521294e-07	-3.197252e-09	-4.947821e+00	-2.220839e+02
2.670000e-06	-6.365766e-07	-3.167078e-09	-4.829819e+00	-2.199733e+02
2.680000e-06	-6.209859e-07	-3.140040e-09	-4.711530e+00	-2.178323e+02
2.690000e-06	-6.053726e-07	-3.108744e-09	-4.593069e+00	-2.156621e+02
2.700000e-06	-5.897436e-07	-3.074178e-09	-4.474489e+00	-2.134644e+02
2.710000e-06	-5.740927e-07	-3.037650e-09	-4.355743e+00	-2.112408e+02
2.720000e-06	-5.584237e-07	-3.001675e-09	-4.236859e+00	-2.089934e+02
2.730000e-06	-5.427431e-07	-2.971177e-09	-4.117888e+00	-2.067241e+02
2.740000e-06	-5.270539e-07	-2.941687e-09	-3.998851e+00	-2.044351e+02
2.750000e-06	-5.113610e-07	-2.910961e-09	-3.879787e+00	-2.021286e+02
2.760000e-06	-4.956641e-07	-2.880750e-09	-3.760691e+00	-1.998068e+02
2.770000e-06	-4.799590e-07	-2.847284e-09	-3.641534e+00	-1.974720e+02
2.780000e-06	-4.642482e-07	-2.806771e-09	-3.522334e+00	-1.951264e+02
2.790000e-06	-4.485375e-07	-2.763798e-09	-3.403133e+00	-1.927721e+02
2.800000e-06	-4.328182e-07	-2.727725e-09	-3.283868e+00	-1.904112e+02
2.810000e-06	-4.170807e-07	-2.695635e-09	-3.164465e+00	-1.880456e+02
2.820000e-06	-4.013314e-07	-2.664985e-09	-3.044973e+00	-1.856771e+02
2.830000e-06	-3.855764e-07	-2.635641e-09	-2.925436e+00	-1.833075e+02
2.840000e-06	-3.698196e-07	-2.605919e-09	-2.805887e+00	-1.809382e+02
2.850000e-06	-3.540600e-07	-2.577918e-09	-2.686316e+00	-1.785705e+02
