# Temperatura_=_20.0
# Concentracion g/m^3_=_10000.0
# C_Vs_to_Am_M_A/Vsm_=_65563218390.804596
# pendiente_HvsI_1/m_=_3716.3
# ordenada_HvsI_A/m_=_1297.0
# frecuencia_Hz_=_81162.34493831136

Tiempo_(s)	Campo_(V.s)	Magnetizacion_(V.s)	Campo_(kA/m)	Magnetizacion_(A/m)
0.000000e+00	-3.107649e-06	-7.003110e-09	-2.355924e+01	-4.567849e+02
1.000000e-08	-3.107613e-06	-7.135808e-09	-2.355897e+01	-4.568730e+02
2.000000e-08	-3.107693e-06	-7.082184e-09	-2.355958e+01	-4.569274e+02
3.000000e-08	-3.107738e-06	-7.048020e-09	-2.355992e+01	-4.569488e+02
4.000000e-08	-3.107611e-06	-7.139681e-09	-2.355895e+01	-4.569385e+02
5.000000e-08	-3.107317e-06	-7.082436e-09	-2.355672e+01	-4.568983e+02
6.000000e-08	-3.106913e-06	-7.056346e-09	-2.355366e+01	-4.568302e+02
7.000000e-08	-3.106408e-06	-7.059460e-09	-2.354984e+01	-4.567370e+02
8.000000e-08	-3.105775e-06	-6.996752e-09	-2.354504e+01	-4.566212e+02
9.000000e-08	-3.105071e-06	-7.004476e-09	-2.353970e+01	-4.564858e+02
1.000000e-07	-3.104316e-06	-7.029090e-09	-2.353398e+01	-4.563338e+02
1.100000e-07	-3.103572e-06	-7.088610e-09	-2.352833e+01	-4.561681e+02
1.200000e-07	-3.102743e-06	-7.056413e-09	-2.352205e+01	-4.559914e+02
1.300000e-07	-3.101814e-06	-6.992157e-09	-2.351500e+01	-4.558064e+02
1.400000e-07	-3.100818e-06	-7.011270e-09	-2.350746e+01	-4.556152e+02
1.500000e-07	-3.099739e-06	-7.029855e-09	-2.349927e+01	-4.554199e+02
1.600000e-07	-3.098570e-06	-7.029954e-09	-2.349042e+01	-4.552220e+02
1.700000e-07	-3.097256e-06	-6.959840e-09	-2.348046e+01	-4.550228e+02
1.800000e-07	-3.095906e-06	-6.993010e-09	-2.347022e+01	-4.548231e+02
1.900000e-07	-3.094491e-06	-7.030917e-09	-2.345949e+01	-4.546233e+02
2.000000e-07	-3.092938e-06	-7.011523e-09	-2.344772e+01	-4.544239e+02
2.100000e-07	-3.091236e-06	-6.970997e-09	-2.343481e+01	-4.542247e+02
2.200000e-07	-3.089462e-06	-6.930156e-09	-2.342137e+01	-4.540257e+02
2.300000e-07	-3.087668e-06	-6.991860e-09	-2.340777e+01	-4.538264e+02
2.400000e-07	-3.085772e-06	-7.017923e-09	-2.339340e+01	-4.536267e+02
2.500000e-07	-3.083792e-06	-7.007054e-09	-2.337839e+01	-4.534263e+02
2.600000e-07	-3.081730e-06	-6.956384e-09	-2.336275e+01	-4.532249e+02
2.700000e-07	-3.079602e-06	-6.946345e-09	-2.334662e+01	-4.530225e+02
2.800000e-07	-3.077413e-06	-6.974834e-09	-2.333002e+01	-4.528194e+02
2.900000e-07	-3.075124e-06	-6.946887e-09	-2.331267e+01	-4.526158e+02
3.000000e-07	-3.072763e-06	-6.931719e-09	-2.329477e+01	-4.524124e+02
3.100000e-07	-3.070327e-06	-6.919469e-09	-2.327631e+01	-4.522100e+02
3.200000e-07	-3.067837e-06	-6.954488e-09	-2.325743e+01	-4.520094e+02
3.300000e-07	-3.065290e-06	-6.959226e-09	-2.323812e+01	-4.518118e+02
3.400000e-07	-3.062674e-06	-6.924923e-09	-2.321828e+01	-4.516185e+02
3.500000e-07	-3.059933e-06	-6.910450e-09	-2.319750e+01	-4.514307e+02
3.600000e-07	-3.057055e-06	-6.905886e-09	-2.317569e+01	-4.512497e+02
3.700000e-07	-3.054116e-06	-6.938841e-09	-2.315341e+01	-4.510765e+02
3.800000e-07	-3.051100e-06	-6.926773e-09	-2.313054e+01	-4.509123e+02
3.900000e-07	-3.048017e-06	-6.904794e-09	-2.310717e+01	-4.507577e+02
4.000000e-07	-3.044849e-06	-6.891754e-09	-2.308315e+01	-4.506133e+02
4.100000e-07	-3.041622e-06	-6.902960e-09	-2.305869e+01	-4.504793e+02
4.200000e-07	-3.038354e-06	-6.923028e-09	-2.303391e+01	-4.503556e+02
4.300000e-07	-3.035009e-06	-6.891569e-09	-2.300855e+01	-4.502416e+02
4.400000e-07	-3.031602e-06	-6.880535e-09	-2.298272e+01	-4.501365e+02
4.500000e-07	-3.028098e-06	-6.882969e-09	-2.295616e+01	-4.500391e+02
4.600000e-07	-3.024498e-06	-6.904634e-09	-2.292887e+01	-4.499479e+02
4.700000e-07	-3.020795e-06	-6.895890e-09	-2.290080e+01	-4.498610e+02
4.800000e-07	-3.016997e-06	-6.866288e-09	-2.287200e+01	-4.497764e+02
4.900000e-07	-3.013148e-06	-6.873045e-09	-2.284283e+01	-4.496918e+02
5.000000e-07	-3.009238e-06	-6.878629e-09	-2.281319e+01	-4.496049e+02
5.100000e-07	-3.005246e-06	-6.884698e-09	-2.278292e+01	-4.495133e+02
5.200000e-07	-3.001163e-06	-6.857865e-09	-2.275197e+01	-4.494145e+02
5.300000e-07	-2.997032e-06	-6.850556e-09	-2.272065e+01	-4.493063e+02
5.400000e-07	-2.992848e-06	-6.866955e-09	-2.268893e+01	-4.491864e+02
5.500000e-07	-2.988532e-06	-6.876470e-09	-2.265621e+01	-4.490527e+02
5.600000e-07	-2.984084e-06	-6.876973e-09	-2.262249e+01	-4.489035e+02
5.700000e-07	-2.979567e-06	-6.857308e-09	-2.258825e+01	-4.487369e+02
5.800000e-07	-2.975009e-06	-6.863883e-09	-2.255370e+01	-4.485518e+02
5.900000e-07	-2.970367e-06	-6.859054e-09	-2.251850e+01	-4.483468e+02
6.000000e-07	-2.965648e-06	-6.842134e-09	-2.248272e+01	-4.481212e+02
6.100000e-07	-2.960847e-06	-6.820964e-09	-2.244633e+01	-4.478743e+02
6.200000e-07	-2.955953e-06	-6.811137e-09	-2.240923e+01	-4.476055e+02
6.300000e-07	-2.950996e-06	-6.826826e-09	-2.237165e+01	-4.473146e+02
6.400000e-07	-2.945940e-06	-6.825082e-09	-2.233332e+01	-4.470015e+02
6.500000e-07	-2.940786e-06	-6.820846e-09	-2.229425e+01	-4.466662e+02
6.600000e-07	-2.935530e-06	-6.803573e-09	-2.225440e+01	-4.463088e+02
6.700000e-07	-2.930180e-06	-6.797497e-09	-2.221384e+01	-4.459294e+02
6.800000e-07	-2.924750e-06	-6.794023e-09	-2.217268e+01	-4.455283e+02
6.900000e-07	-2.919241e-06	-6.774518e-09	-2.213091e+01	-4.451058e+02
7.000000e-07	-2.913667e-06	-6.762462e-09	-2.208865e+01	-4.446622e+02
7.100000e-07	-2.908018e-06	-6.753911e-09	-2.204583e+01	-4.441977e+02
7.200000e-07	-2.902313e-06	-6.763802e-09	-2.200258e+01	-4.437129e+02
7.300000e-07	-2.896543e-06	-6.755491e-09	-2.195884e+01	-4.432081e+02
7.400000e-07	-2.890710e-06	-6.736106e-09	-2.191462e+01	-4.426839e+02
7.500000e-07	-2.884776e-06	-6.720479e-09	-2.186963e+01	-4.421407e+02
7.600000e-07	-2.878725e-06	-6.709525e-09	-2.182376e+01	-4.415792e+02
7.700000e-07	-2.872609e-06	-6.704316e-09	-2.177739e+01	-4.410003e+02
7.800000e-07	-2.866428e-06	-6.682769e-09	-2.173053e+01	-4.404049e+02
7.900000e-07	-2.860188e-06	-6.668442e-09	-2.168323e+01	-4.397939e+02
8.000000e-07	-2.853879e-06	-6.656564e-09	-2.163540e+01	-4.391687e+02
8.100000e-07	-2.847499e-06	-6.652083e-09	-2.158703e+01	-4.385305e+02
8.200000e-07	-2.841047e-06	-6.640279e-09	-2.153812e+01	-4.378810e+02
8.300000e-07	-2.834534e-06	-6.617701e-09	-2.148875e+01	-4.372218e+02
8.400000e-07	-2.827970e-06	-6.611920e-09	-2.143898e+01	-4.365546e+02
8.500000e-07	-2.821307e-06	-6.606307e-09	-2.138847e+01	-4.358814e+02
8.600000e-07	-2.814551e-06	-6.599628e-09	-2.133725e+01	-4.352041e+02
8.700000e-07	-2.807713e-06	-6.579394e-09	-2.128541e+01	-4.345248e+02
8.800000e-07	-2.800808e-06	-6.561019e-09	-2.123306e+01	-4.338454e+02
8.900000e-07	-2.793857e-06	-6.552550e-09	-2.118037e+01	-4.331678e+02
9.000000e-07	-2.786831e-06	-6.537854e-09	-2.112710e+01	-4.324940e+02
9.100000e-07	-2.779733e-06	-6.522465e-09	-2.107330e+01	-4.318255e+02
9.200000e-07	-2.772549e-06	-6.506934e-09	-2.101883e+01	-4.311641e+02
9.300000e-07	-2.765297e-06	-6.504890e-09	-2.096386e+01	-4.305111e+02
9.400000e-07	-2.758009e-06	-6.504212e-09	-2.090860e+01	-4.298676e+02
9.500000e-07	-2.750665e-06	-6.496494e-09	-2.085293e+01	-4.292346e+02
9.600000e-07	-2.743226e-06	-6.481604e-09	-2.079653e+01	-4.286127e+02
9.700000e-07	-2.735669e-06	-6.465276e-09	-2.073924e+01	-4.280023e+02
9.800000e-07	-2.728031e-06	-6.457851e-09	-2.068134e+01	-4.274037e+02
9.900000e-07	-2.720314e-06	-6.448351e-09	-2.062284e+01	-4.268166e+02
1.000000e-06	-2.712526e-06	-6.440064e-09	-2.056380e+01	-4.262407e+02
1.010000e-06	-2.704665e-06	-6.432215e-09	-2.050420e+01	-4.256756e+02
1.020000e-06	-2.696737e-06	-6.428969e-09	-2.044410e+01	-4.251204e+02
1.030000e-06	-2.688729e-06	-6.423810e-09	-2.038339e+01	-4.245743e+02
1.040000e-06	-2.680603e-06	-6.409153e-09	-2.032179e+01	-4.240361e+02
1.050000e-06	-2.672396e-06	-6.396123e-09	-2.025957e+01	-4.235048e+02
1.060000e-06	-2.664139e-06	-6.382252e-09	-2.019697e+01	-4.229790e+02
1.070000e-06	-2.655837e-06	-6.373802e-09	-2.013404e+01	-4.224575e+02
1.080000e-06	-2.647465e-06	-6.368024e-09	-2.007056e+01	-4.219389e+02
1.090000e-06	-2.639015e-06	-6.362556e-09	-2.000650e+01	-4.214218e+02
1.100000e-06	-2.630513e-06	-6.357374e-09	-1.994205e+01	-4.209048e+02
1.110000e-06	-2.621967e-06	-6.348930e-09	-1.987727e+01	-4.203867e+02
1.120000e-06	-2.613358e-06	-6.340422e-09	-1.981200e+01	-4.198659e+02
1.130000e-06	-2.604681e-06	-6.327225e-09	-1.974622e+01	-4.193412e+02
1.140000e-06	-2.595960e-06	-6.316014e-09	-1.968010e+01	-4.188113e+02
1.150000e-06	-2.587172e-06	-6.307073e-09	-1.961348e+01	-4.182748e+02
1.160000e-06	-2.578314e-06	-6.300514e-09	-1.954633e+01	-4.177306e+02
1.170000e-06	-2.569405e-06	-6.293167e-09	-1.947879e+01	-4.171774e+02
1.180000e-06	-2.560439e-06	-6.285086e-09	-1.941082e+01	-4.166140e+02
1.190000e-06	-2.551391e-06	-6.276632e-09	-1.934223e+01	-4.160392e+02
1.200000e-06	-2.542241e-06	-6.261180e-09	-1.927286e+01	-4.154519e+02
1.210000e-06	-2.533011e-06	-6.246242e-09	-1.920288e+01	-4.148509e+02
1.220000e-06	-2.523723e-06	-6.231783e-09	-1.913247e+01	-4.142352e+02
1.230000e-06	-2.514385e-06	-6.220131e-09	-1.906168e+01	-4.136037e+02
1.240000e-06	-2.505001e-06	-6.209750e-09	-1.899054e+01	-4.129555e+02
1.250000e-06	-2.495549e-06	-6.198354e-09	-1.891888e+01	-4.122894e+02
1.260000e-06	-2.486030e-06	-6.187782e-09	-1.884672e+01	-4.116049e+02
1.270000e-06	-2.476456e-06	-6.174646e-09	-1.877414e+01	-4.109009e+02
1.280000e-06	-2.466825e-06	-6.163463e-09	-1.870112e+01	-4.101769e+02
1.290000e-06	-2.457127e-06	-6.151796e-09	-1.862760e+01	-4.094322e+02
1.300000e-06	-2.447380e-06	-6.138837e-09	-1.855371e+01	-4.086664e+02
1.310000e-06	-2.437569e-06	-6.123856e-09	-1.847934e+01	-4.078791e+02
1.320000e-06	-2.427650e-06	-6.108068e-09	-1.840414e+01	-4.070702e+02
1.330000e-06	-2.417644e-06	-6.094539e-09	-1.832828e+01	-4.062395e+02
1.340000e-06	-2.407577e-06	-6.078929e-09	-1.825196e+01	-4.053871e+02
1.350000e-06	-2.397462e-06	-6.066434e-09	-1.817528e+01	-4.045132e+02
1.360000e-06	-2.387307e-06	-6.054497e-09	-1.809829e+01	-4.036182e+02
1.370000e-06	-2.377096e-06	-6.041123e-09	-1.802088e+01	-4.027025e+02
1.380000e-06	-2.366826e-06	-6.025002e-09	-1.794303e+01	-4.017667e+02
1.390000e-06	-2.356490e-06	-6.004860e-09	-1.786467e+01	-4.008116e+02
1.400000e-06	-2.346091e-06	-5.984398e-09	-1.778583e+01	-3.998380e+02
1.410000e-06	-2.335639e-06	-5.963214e-09	-1.770659e+01	-3.988466e+02
1.420000e-06	-2.325136e-06	-5.945216e-09	-1.762698e+01	-3.978387e+02
1.430000e-06	-2.314582e-06	-5.929558e-09	-1.754696e+01	-3.968151e+02
1.440000e-06	-2.303977e-06	-5.917901e-09	-1.746657e+01	-3.957769e+02
1.450000e-06	-2.293289e-06	-5.908585e-09	-1.738554e+01	-3.947254e+02
1.460000e-06	-2.282492e-06	-5.894264e-09	-1.730369e+01	-3.936616e+02
1.470000e-06	-2.271633e-06	-5.876336e-09	-1.722137e+01	-3.925866e+02
1.480000e-06	-2.260733e-06	-5.858523e-09	-1.713873e+01	-3.915017e+02
1.490000e-06	-2.249792e-06	-5.840765e-09	-1.705579e+01	-3.904080e+02
1.500000e-06	-2.238806e-06	-5.817808e-09	-1.697250e+01	-3.893065e+02
1.510000e-06	-2.227755e-06	-5.792679e-09	-1.688872e+01	-3.881984e+02
1.520000e-06	-2.216648e-06	-5.771268e-09	-1.680452e+01	-3.870846e+02
1.530000e-06	-2.205507e-06	-5.752072e-09	-1.672006e+01	-3.859663e+02
1.540000e-06	-2.194314e-06	-5.737587e-09	-1.663521e+01	-3.848442e+02
1.550000e-06	-2.183058e-06	-5.722748e-09	-1.654987e+01	-3.837194e+02
1.560000e-06	-2.171757e-06	-5.706132e-09	-1.646420e+01	-3.825926e+02
1.570000e-06	-2.160418e-06	-5.687402e-09	-1.637823e+01	-3.814647e+02
1.580000e-06	-2.149008e-06	-5.665878e-09	-1.629174e+01	-3.803362e+02
1.590000e-06	-2.137518e-06	-5.644370e-09	-1.620463e+01	-3.792079e+02
1.600000e-06	-2.125939e-06	-5.624027e-09	-1.611685e+01	-3.780803e+02
1.610000e-06	-2.114282e-06	-5.608497e-09	-1.602848e+01	-3.769540e+02
1.620000e-06	-2.102573e-06	-5.591511e-09	-1.593971e+01	-3.758293e+02
1.630000e-06	-2.090808e-06	-5.573868e-09	-1.585052e+01	-3.747066e+02
1.640000e-06	-2.078992e-06	-5.558415e-09	-1.576094e+01	-3.735862e+02
1.650000e-06	-2.067125e-06	-5.544919e-09	-1.567098e+01	-3.724683e+02
1.660000e-06	-2.055208e-06	-5.532390e-09	-1.558063e+01	-3.713530e+02
1.670000e-06	-2.043233e-06	-5.515048e-09	-1.548985e+01	-3.702403e+02
1.680000e-06	-2.031197e-06	-5.494227e-09	-1.539861e+01	-3.691303e+02
1.690000e-06	-2.019117e-06	-5.472374e-09	-1.530703e+01	-3.680228e+02
1.700000e-06	-2.007014e-06	-5.449504e-09	-1.521527e+01	-3.669176e+02
1.710000e-06	-1.994881e-06	-5.424405e-09	-1.512329e+01	-3.658144e+02
1.720000e-06	-1.982687e-06	-5.404619e-09	-1.503085e+01	-3.647129e+02
1.730000e-06	-1.970415e-06	-5.394730e-09	-1.493782e+01	-3.636127e+02
1.740000e-06	-1.958067e-06	-5.385994e-09	-1.484421e+01	-3.625132e+02
1.750000e-06	-1.945649e-06	-5.372393e-09	-1.475006e+01	-3.614138e+02
1.760000e-06	-1.933177e-06	-5.350392e-09	-1.465551e+01	-3.603139e+02
1.770000e-06	-1.920669e-06	-5.326493e-09	-1.456069e+01	-3.592127e+02
1.780000e-06	-1.908128e-06	-5.305872e-09	-1.446561e+01	-3.581093e+02
1.790000e-06	-1.895546e-06	-5.285459e-09	-1.437023e+01	-3.570028e+02
1.800000e-06	-1.882908e-06	-5.264119e-09	-1.427442e+01	-3.558922e+02
1.810000e-06	-1.870218e-06	-5.244234e-09	-1.417822e+01	-3.547764e+02
1.820000e-06	-1.857489e-06	-5.231237e-09	-1.408172e+01	-3.536542e+02
1.830000e-06	-1.844723e-06	-5.216812e-09	-1.398494e+01	-3.525245e+02
1.840000e-06	-1.831911e-06	-5.198137e-09	-1.388781e+01	-3.513859e+02
1.850000e-06	-1.819044e-06	-5.181402e-09	-1.379026e+01	-3.502372e+02
1.860000e-06	-1.806143e-06	-5.166266e-09	-1.369246e+01	-3.490769e+02
1.870000e-06	-1.793212e-06	-5.148258e-09	-1.359443e+01	-3.479037e+02
1.880000e-06	-1.780232e-06	-5.122000e-09	-1.349603e+01	-3.467162e+02
1.890000e-06	-1.767192e-06	-5.094353e-09	-1.339717e+01	-3.455130e+02
1.900000e-06	-1.754092e-06	-5.068421e-09	-1.329786e+01	-3.442928e+02
1.910000e-06	-1.740937e-06	-5.046188e-09	-1.319813e+01	-3.430544e+02
1.920000e-06	-1.727718e-06	-5.026267e-09	-1.309791e+01	-3.417964e+02
1.930000e-06	-1.714441e-06	-5.009108e-09	-1.299727e+01	-3.405179e+02
1.940000e-06	-1.701139e-06	-4.993628e-09	-1.289642e+01	-3.392179e+02
1.950000e-06	-1.687811e-06	-4.973756e-09	-1.279538e+01	-3.378955e+02
1.960000e-06	-1.674454e-06	-4.951491e-09	-1.269412e+01	-3.365501e+02
1.970000e-06	-1.661057e-06	-4.922899e-09	-1.259256e+01	-3.351812e+02
1.980000e-06	-1.647615e-06	-4.890983e-09	-1.249065e+01	-3.337885e+02
1.990000e-06	-1.634134e-06	-4.863840e-09	-1.238845e+01	-3.323719e+02
2.000000e-06	-1.620604e-06	-4.840253e-09	-1.228588e+01	-3.309315e+02
2.010000e-06	-1.607032e-06	-4.818643e-09	-1.218299e+01	-3.294677e+02
2.020000e-06	-1.593420e-06	-4.797087e-09	-1.207980e+01	-3.279810e+02
2.030000e-06	-1.579758e-06	-4.778473e-09	-1.197623e+01	-3.264721e+02
2.040000e-06	-1.566063e-06	-4.760241e-09	-1.187240e+01	-3.249419e+02
2.050000e-06	-1.552352e-06	-4.737471e-09	-1.176845e+01	-3.233916e+02
2.060000e-06	-1.538617e-06	-4.710104e-09	-1.166433e+01	-3.218224e+02
2.070000e-06	-1.524837e-06	-4.679462e-09	-1.155987e+01	-3.202356e+02
2.080000e-06	-1.511009e-06	-4.654181e-09	-1.145503e+01	-3.186328e+02
2.090000e-06	-1.497114e-06	-4.630991e-09	-1.134969e+01	-3.170154e+02
2.100000e-06	-1.483159e-06	-4.608237e-09	-1.124390e+01	-3.153852e+02
2.110000e-06	-1.469146e-06	-4.581676e-09	-1.113767e+01	-3.137438e+02
2.120000e-06	-1.455090e-06	-4.552087e-09	-1.103111e+01	-3.120929e+02
2.130000e-06	-1.441006e-06	-4.528142e-09	-1.092434e+01	-3.104340e+02
2.140000e-06	-1.426886e-06	-4.506364e-09	-1.081730e+01	-3.087688e+02
2.150000e-06	-1.412740e-06	-4.484807e-09	-1.071005e+01	-3.070989e+02
2.160000e-06	-1.398554e-06	-4.460864e-09	-1.060251e+01	-3.054258e+02
2.170000e-06	-1.384328e-06	-4.434691e-09	-1.049466e+01	-3.037508e+02
2.180000e-06	-1.370067e-06	-4.407589e-09	-1.038655e+01	-3.020754e+02
2.190000e-06	-1.355770e-06	-4.381423e-09	-1.027816e+01	-3.004007e+02
2.200000e-06	-1.341444e-06	-4.356274e-09	-1.016955e+01	-2.987279e+02
2.210000e-06	-1.327076e-06	-4.331206e-09	-1.006063e+01	-2.970580e+02
2.220000e-06	-1.312639e-06	-4.310806e-09	-9.951180e+00	-2.953920e+02
2.230000e-06	-1.298163e-06	-4.292750e-09	-9.841438e+00	-2.937308e+02
2.240000e-06	-1.283643e-06	-4.273433e-09	-9.731365e+00	-2.920751e+02
2.250000e-06	-1.269085e-06	-4.251760e-09	-9.620997e+00	-2.904255e+02
2.260000e-06	-1.254505e-06	-4.227462e-09	-9.510465e+00	-2.887826e+02
2.270000e-06	-1.239889e-06	-4.203270e-09	-9.399664e+00	-2.871470e+02
2.280000e-06	-1.225251e-06	-4.179952e-09	-9.288686e+00	-2.855189e+02
2.290000e-06	-1.210586e-06	-4.156152e-09	-9.177513e+00	-2.838986e+02
2.300000e-06	-1.195895e-06	-4.130660e-09	-9.066141e+00	-2.822863e+02
2.310000e-06	-1.181180e-06	-4.106585e-09	-8.954585e+00	-2.806820e+02
2.320000e-06	-1.166437e-06	-4.083375e-09	-8.842819e+00	-2.790856e+02
2.330000e-06	-1.151657e-06	-4.062758e-09	-8.730766e+00	-2.774970e+02
2.340000e-06	-1.136840e-06	-4.043657e-09	-8.618441e+00	-2.759155e+02
2.350000e-06	-1.121996e-06	-4.022077e-09	-8.505907e+00	-2.743409e+02
2.360000e-06	-1.107125e-06	-4.001884e-09	-8.393173e+00	-2.727723e+02
2.370000e-06	-1.092232e-06	-3.981607e-09	-8.280269e+00	-2.712089e+02
2.380000e-06	-1.077332e-06	-3.957871e-09	-8.167304e+00	-2.696495e+02
2.390000e-06	-1.062416e-06	-3.930968e-09	-8.054229e+00	-2.680931e+02
2.400000e-06	-1.047480e-06	-3.904682e-09	-7.941001e+00	-2.665383e+02
2.410000e-06	-1.032523e-06	-3.881314e-09	-7.827610e+00	-2.649834e+02
2.420000e-06	-1.017548e-06	-3.859551e-09	-7.714081e+00	-2.634267e+02
2.430000e-06	-1.002542e-06	-3.840381e-09	-7.600318e+00	-2.618666e+02
2.440000e-06	-9.875037e-07	-3.822019e-09	-7.486315e+00	-2.603010e+02
2.450000e-06	-9.724417e-07	-3.801874e-09	-7.372129e+00	-2.587279e+02
2.460000e-06	-9.573575e-07	-3.776891e-09	-7.257775e+00	-2.571453e+02
2.470000e-06	-9.422514e-07	-3.748587e-09	-7.143255e+00	-2.555511e+02
2.480000e-06	-9.271109e-07	-3.722200e-09	-7.028474e+00	-2.539432e+02
2.490000e-06	-9.119509e-07	-3.699479e-09	-6.913546e+00	-2.523196e+02
2.500000e-06	-8.967687e-07	-3.680636e-09	-6.798448e+00	-2.506782e+02
2.510000e-06	-8.815548e-07	-3.659838e-09	-6.683111e+00	-2.490174e+02
2.520000e-06	-8.663245e-07	-3.637132e-09	-6.567650e+00	-2.473353e+02
2.530000e-06	-8.510729e-07	-3.613942e-09	-6.452026e+00	-2.456304e+02
2.540000e-06	-8.358008e-07	-3.589298e-09	-6.336248e+00	-2.439014e+02
2.550000e-06	-8.205136e-07	-3.563607e-09	-6.220355e+00	-2.421471e+02
2.560000e-06	-8.052008e-07	-3.533285e-09	-6.104267e+00	-2.403666e+02
2.570000e-06	-7.898638e-07	-3.502923e-09	-5.987997e+00	-2.385591e+02
2.580000e-06	-7.745110e-07	-3.474666e-09	-5.871607e+00	-2.367243e+02
2.590000e-06	-7.591355e-07	-3.446814e-09	-5.755044e+00	-2.348620e+02
2.600000e-06	-7.437366e-07	-3.418038e-09	-5.638305e+00	-2.329720e+02
2.610000e-06	-7.283126e-07	-3.387963e-09	-5.521374e+00	-2.310548e+02
2.620000e-06	-7.128637e-07	-3.358378e-09	-5.404255e+00	-2.291106e+02
2.630000e-06	-6.973930e-07	-3.327283e-09	-5.286972e+00	-2.271401e+02
2.640000e-06	-6.818963e-07	-3.294314e-09	-5.169490e+00	-2.251442e+02
2.650000e-06	-6.663675e-07	-3.260756e-09	-5.051765e+00	-2.231237e+02
2.660000e-06	-6.508084e-07	-3.229396e-09	-4.933811e+00	-2.210797e+02
2.670000e-06	-6.352356e-07	-3.202339e-09	-4.815753e+00	-2.190133e+02
2.680000e-06	-6.196349e-07	-3.176108e-09	-4.697483e+00	-2.169257e+02
2.690000e-06	-6.040119e-07	-3.147718e-09	-4.579045e+00	-2.148182e+02
2.700000e-06	-5.883673e-07	-3.117139e-09	-4.460442e+00	-2.126920e+02
2.710000e-06	-5.727032e-07	-3.085729e-09	-4.341691e+00	-2.105484e+02
2.720000e-06	-5.570330e-07	-3.051602e-09	-4.222895e+00	-2.083886e+02
2.730000e-06	-5.413539e-07	-3.013765e-09	-4.104031e+00	-2.062140e+02
2.740000e-06	-5.256724e-07	-2.976717e-09	-3.985149e+00	-2.040256e+02
2.750000e-06	-5.099809e-07	-2.939519e-09	-3.866191e+00	-2.018246e+02
2.760000e-06	-4.942759e-07	-2.904913e-09	-3.747130e+00	-1.996121e+02
2.770000e-06	-4.785619e-07	-2.877266e-09	-3.628002e+00	-1.973892e+02
2.780000e-06	-4.628388e-07	-2.852321e-09	-3.508804e+00	-1.951567e+02
2.790000e-06	-4.471090e-07	-2.825888e-09	-3.389556e+00	-1.929156e+02
2.800000e-06	-4.313768e-07	-2.796082e-09	-3.270289e+00	-1.906668e+02
2.810000e-06	-4.156359e-07	-2.764175e-09	-3.150956e+00	-1.884111e+02
2.820000e-06	-3.998822e-07	-2.727940e-09	-3.031527e+00	-1.861494e+02
2.830000e-06	-3.841172e-07	-2.688613e-09	-2.912012e+00	-1.838823e+02
2.840000e-06	-3.683452e-07	-2.650572e-09	-2.792443e+00	-1.816106e+02
