# Temperatura_=_20.0
# Concentracion g/m^3_=_10000.0
# C_Vs_to_Am_M_A/Vsm_=_65563218390.804596
# pendiente_HvsI_1/m_=_3716.3
# ordenada_HvsI_A/m_=_1297.0
# frecuencia_Hz_=_81162.10401154158

Tiempo_(s)	Campo_(V.s)	Magnetizacion_(V.s)	Campo_(kA/m)	Magnetizacion_(A/m)
0.000000e+00	-3.114690e-06	-7.141571e-09	-2.355962e+01	-4.579287e+02
1.000000e-08	-3.114708e-06	-7.171929e-09	-2.355976e+01	-4.579307e+02
2.000000e-08	-3.114839e-06	-6.992082e-09	-2.356075e+01	-4.579162e+02
3.000000e-08	-3.114864e-06	-7.083481e-09	-2.356093e+01	-4.578873e+02
4.000000e-08	-3.114714e-06	-7.102339e-09	-2.355980e+01	-4.578461e+02
5.000000e-08	-3.114403e-06	-6.988647e-09	-2.355745e+01	-4.577945e+02
6.000000e-08	-3.114000e-06	-7.086154e-09	-2.355441e+01	-4.577346e+02
7.000000e-08	-3.113490e-06	-7.029728e-09	-2.355055e+01	-4.576680e+02
8.000000e-08	-3.112861e-06	-7.048994e-09	-2.354578e+01	-4.575961e+02
9.000000e-08	-3.112149e-06	-7.061864e-09	-2.354040e+01	-4.575199e+02
1.000000e-07	-3.111392e-06	-7.062294e-09	-2.353468e+01	-4.574401e+02
1.100000e-07	-3.110664e-06	-7.081646e-09	-2.352917e+01	-4.573573e+02
1.200000e-07	-3.109803e-06	-6.997368e-09	-2.352266e+01	-4.572713e+02
1.300000e-07	-3.108866e-06	-7.041266e-09	-2.351557e+01	-4.571820e+02
1.400000e-07	-3.107844e-06	-7.034123e-09	-2.350784e+01	-4.570887e+02
1.500000e-07	-3.106737e-06	-7.065820e-09	-2.349946e+01	-4.569909e+02
1.600000e-07	-3.105528e-06	-7.025760e-09	-2.349032e+01	-4.568876e+02
1.700000e-07	-3.104199e-06	-7.001091e-09	-2.348026e+01	-4.567780e+02
1.800000e-07	-3.102867e-06	-7.081679e-09	-2.347019e+01	-4.566614e+02
1.900000e-07	-3.101425e-06	-7.016403e-09	-2.345928e+01	-4.565370e+02
2.000000e-07	-3.099837e-06	-7.022242e-09	-2.344727e+01	-4.564043e+02
2.100000e-07	-3.098089e-06	-6.979689e-09	-2.343405e+01	-4.562632e+02
2.200000e-07	-3.096305e-06	-7.024780e-09	-2.342056e+01	-4.561136e+02
2.300000e-07	-3.094512e-06	-7.049812e-09	-2.340700e+01	-4.559561e+02
2.400000e-07	-3.092594e-06	-7.007841e-09	-2.339249e+01	-4.557914e+02
2.500000e-07	-3.090607e-06	-7.006053e-09	-2.337746e+01	-4.556205e+02
2.600000e-07	-3.088560e-06	-6.962260e-09	-2.336197e+01	-4.554448e+02
2.700000e-07	-3.086447e-06	-7.025448e-09	-2.334599e+01	-4.552658e+02
2.800000e-07	-3.084230e-06	-6.999704e-09	-2.332922e+01	-4.550853e+02
2.900000e-07	-3.081924e-06	-6.990048e-09	-2.331178e+01	-4.549052e+02
3.000000e-07	-3.079558e-06	-6.986189e-09	-2.329388e+01	-4.547272e+02
3.100000e-07	-3.077120e-06	-6.982777e-09	-2.327544e+01	-4.545532e+02
3.200000e-07	-3.074639e-06	-7.018185e-09	-2.325668e+01	-4.543849e+02
3.300000e-07	-3.072088e-06	-6.963859e-09	-2.323738e+01	-4.542234e+02
3.400000e-07	-3.069477e-06	-6.970387e-09	-2.321763e+01	-4.540699e+02
3.500000e-07	-3.066728e-06	-6.956945e-09	-2.319683e+01	-4.539251e+02
3.600000e-07	-3.063845e-06	-6.982194e-09	-2.317503e+01	-4.537893e+02
3.700000e-07	-3.060899e-06	-6.989201e-09	-2.315274e+01	-4.536622e+02
3.800000e-07	-3.057874e-06	-6.956631e-09	-2.312986e+01	-4.535435e+02
3.900000e-07	-3.054786e-06	-6.972865e-09	-2.310650e+01	-4.534320e+02
4.000000e-07	-3.051597e-06	-6.953740e-09	-2.308238e+01	-4.533266e+02
4.100000e-07	-3.048358e-06	-6.988309e-09	-2.305788e+01	-4.532255e+02
4.200000e-07	-3.045074e-06	-6.959777e-09	-2.303304e+01	-4.531269e+02
4.300000e-07	-3.041718e-06	-6.934385e-09	-2.300766e+01	-4.530289e+02
4.400000e-07	-3.038278e-06	-6.936198e-09	-2.298164e+01	-4.529293e+02
4.500000e-07	-3.034743e-06	-6.933350e-09	-2.295490e+01	-4.528260e+02
4.600000e-07	-3.031116e-06	-6.961367e-09	-2.292746e+01	-4.527170e+02
4.700000e-07	-3.027386e-06	-6.926304e-09	-2.289925e+01	-4.526004e+02
4.800000e-07	-3.023604e-06	-6.938610e-09	-2.287064e+01	-4.524744e+02
4.900000e-07	-3.019752e-06	-6.937686e-09	-2.284151e+01	-4.523376e+02
5.000000e-07	-3.015817e-06	-6.936820e-09	-2.281175e+01	-4.521888e+02
5.100000e-07	-3.011786e-06	-6.918324e-09	-2.278125e+01	-4.520269e+02
5.200000e-07	-3.007684e-06	-6.880211e-09	-2.275022e+01	-4.518514e+02
5.300000e-07	-3.003554e-06	-6.907524e-09	-2.271899e+01	-4.516616e+02
5.400000e-07	-2.999326e-06	-6.909311e-09	-2.268700e+01	-4.514574e+02
5.500000e-07	-2.994978e-06	-6.927452e-09	-2.265412e+01	-4.512387e+02
5.600000e-07	-2.990537e-06	-6.910585e-09	-2.262052e+01	-4.510053e+02
5.700000e-07	-2.986030e-06	-6.905461e-09	-2.258643e+01	-4.507575e+02
5.800000e-07	-2.981469e-06	-6.912355e-09	-2.255193e+01	-4.504953e+02
5.900000e-07	-2.976817e-06	-6.887169e-09	-2.251674e+01	-4.502186e+02
6.000000e-07	-2.972080e-06	-6.882683e-09	-2.248091e+01	-4.499275e+02
6.100000e-07	-2.967250e-06	-6.855871e-09	-2.244438e+01	-4.496218e+02
6.200000e-07	-2.962359e-06	-6.871893e-09	-2.240738e+01	-4.493012e+02
6.300000e-07	-2.957395e-06	-6.871473e-09	-2.236984e+01	-4.489654e+02
6.400000e-07	-2.952332e-06	-6.859494e-09	-2.233154e+01	-4.486139e+02
6.500000e-07	-2.947171e-06	-6.851359e-09	-2.229250e+01	-4.482460e+02
6.600000e-07	-2.941900e-06	-6.831264e-09	-2.225263e+01	-4.478613e+02
6.700000e-07	-2.936550e-06	-6.844592e-09	-2.221216e+01	-4.474591e+02
6.800000e-07	-2.931116e-06	-6.826269e-09	-2.217106e+01	-4.470388e+02
6.900000e-07	-2.925610e-06	-6.818372e-09	-2.212941e+01	-4.466001e+02
7.000000e-07	-2.920032e-06	-6.805240e-09	-2.208722e+01	-4.461426e+02
7.100000e-07	-2.914378e-06	-6.803258e-09	-2.204445e+01	-4.456663e+02
7.200000e-07	-2.908672e-06	-6.808165e-09	-2.200129e+01	-4.451714e+02
7.300000e-07	-2.902883e-06	-6.780135e-09	-2.195751e+01	-4.446582e+02
7.400000e-07	-2.897014e-06	-6.770412e-09	-2.191311e+01	-4.441276e+02
7.500000e-07	-2.891037e-06	-6.753500e-09	-2.186790e+01	-4.435806e+02
7.600000e-07	-2.884962e-06	-6.758995e-09	-2.182195e+01	-4.430183e+02
7.700000e-07	-2.878827e-06	-6.745702e-09	-2.177554e+01	-4.424424e+02
7.800000e-07	-2.872619e-06	-6.725107e-09	-2.172859e+01	-4.418546e+02
7.900000e-07	-2.866355e-06	-6.721916e-09	-2.168121e+01	-4.412567e+02
8.000000e-07	-2.860030e-06	-6.706079e-09	-2.163337e+01	-4.406507e+02
8.100000e-07	-2.853639e-06	-6.702592e-09	-2.158502e+01	-4.400386e+02
8.200000e-07	-2.847166e-06	-6.673769e-09	-2.153606e+01	-4.394222e+02
8.300000e-07	-2.840637e-06	-6.660245e-09	-2.148668e+01	-4.388035e+02
8.400000e-07	-2.834044e-06	-6.653490e-09	-2.143680e+01	-4.381841e+02
8.500000e-07	-2.827333e-06	-6.642926e-09	-2.138604e+01	-4.375655e+02
8.600000e-07	-2.820523e-06	-6.635217e-09	-2.133453e+01	-4.369489e+02
8.700000e-07	-2.813648e-06	-6.612978e-09	-2.128253e+01	-4.363352e+02
8.800000e-07	-2.806733e-06	-6.611690e-09	-2.123022e+01	-4.357251e+02
8.900000e-07	-2.799756e-06	-6.601263e-09	-2.117745e+01	-4.351190e+02
9.000000e-07	-2.792701e-06	-6.590327e-09	-2.112409e+01	-4.345171e+02
9.100000e-07	-2.785570e-06	-6.571022e-09	-2.107014e+01	-4.339194e+02
9.200000e-07	-2.778361e-06	-6.553189e-09	-2.101562e+01	-4.333257e+02
9.300000e-07	-2.771103e-06	-6.550081e-09	-2.096071e+01	-4.327356e+02
9.400000e-07	-2.763786e-06	-6.534611e-09	-2.090537e+01	-4.321488e+02
9.500000e-07	-2.756396e-06	-6.527764e-09	-2.084947e+01	-4.315649e+02
9.600000e-07	-2.748886e-06	-6.514036e-09	-2.079267e+01	-4.309836e+02
9.700000e-07	-2.741266e-06	-6.512187e-09	-2.073503e+01	-4.304045e+02
9.800000e-07	-2.733591e-06	-6.508527e-09	-2.067697e+01	-4.298275e+02
9.900000e-07	-2.725855e-06	-6.494382e-09	-2.061846e+01	-4.292526e+02
1.000000e-06	-2.718043e-06	-6.486959e-09	-2.055937e+01	-4.286798e+02
1.010000e-06	-2.710155e-06	-6.470314e-09	-2.049970e+01	-4.281093e+02
1.020000e-06	-2.702208e-06	-6.463801e-09	-2.043959e+01	-4.275415e+02
1.030000e-06	-2.694163e-06	-6.447653e-09	-2.037874e+01	-4.269766e+02
1.040000e-06	-2.686013e-06	-6.435244e-09	-2.031709e+01	-4.264150e+02
1.050000e-06	-2.677798e-06	-6.430352e-09	-2.025495e+01	-4.258570e+02
1.060000e-06	-2.669523e-06	-6.422179e-09	-2.019236e+01	-4.253029e+02
1.070000e-06	-2.661184e-06	-6.420785e-09	-2.012929e+01	-4.247526e+02
1.080000e-06	-2.652770e-06	-6.408836e-09	-2.006564e+01	-4.242062e+02
1.090000e-06	-2.644295e-06	-6.401610e-09	-2.000154e+01	-4.236631e+02
1.100000e-06	-2.635769e-06	-6.386772e-09	-1.993705e+01	-4.231226e+02
1.110000e-06	-2.627194e-06	-6.369893e-09	-1.987219e+01	-4.225839e+02
1.120000e-06	-2.618568e-06	-6.356094e-09	-1.980694e+01	-4.220455e+02
1.130000e-06	-2.609877e-06	-6.344061e-09	-1.974120e+01	-4.215059e+02
1.140000e-06	-2.601141e-06	-6.343989e-09	-1.967512e+01	-4.209633e+02
1.150000e-06	-2.592339e-06	-6.337010e-09	-1.960854e+01	-4.204156e+02
1.160000e-06	-2.583460e-06	-6.331623e-09	-1.954138e+01	-4.198605e+02
1.170000e-06	-2.574521e-06	-6.320364e-09	-1.947376e+01	-4.192956e+02
1.180000e-06	-2.565514e-06	-6.310414e-09	-1.940564e+01	-4.187187e+02
1.190000e-06	-2.556431e-06	-6.299514e-09	-1.933693e+01	-4.181273e+02
1.200000e-06	-2.547242e-06	-6.280172e-09	-1.926743e+01	-4.175193e+02
1.210000e-06	-2.537978e-06	-6.265807e-09	-1.919735e+01	-4.168928e+02
1.220000e-06	-2.528671e-06	-6.250414e-09	-1.912695e+01	-4.162460e+02
1.230000e-06	-2.519307e-06	-6.242107e-09	-1.905612e+01	-4.155776e+02
1.240000e-06	-2.509880e-06	-6.231748e-09	-1.898482e+01	-4.148866e+02
1.250000e-06	-2.500399e-06	-6.220596e-09	-1.891310e+01	-4.141723e+02
1.260000e-06	-2.490854e-06	-6.209970e-09	-1.884091e+01	-4.134345e+02
1.270000e-06	-2.481237e-06	-6.195782e-09	-1.876816e+01	-4.126735e+02
1.280000e-06	-2.471565e-06	-6.181395e-09	-1.869500e+01	-4.118896e+02
1.290000e-06	-2.461852e-06	-6.160907e-09	-1.862153e+01	-4.110837e+02
1.300000e-06	-2.452084e-06	-6.146473e-09	-1.854764e+01	-4.102567e+02
1.310000e-06	-2.442226e-06	-6.131021e-09	-1.847308e+01	-4.094101e+02
1.320000e-06	-2.432263e-06	-6.116389e-09	-1.839772e+01	-4.085449e+02
1.330000e-06	-2.422216e-06	-6.103863e-09	-1.832172e+01	-4.076627e+02
1.340000e-06	-2.412116e-06	-6.086433e-09	-1.824533e+01	-4.067648e+02
1.350000e-06	-2.401989e-06	-6.073023e-09	-1.816873e+01	-4.058523e+02
1.360000e-06	-2.391808e-06	-6.055434e-09	-1.809172e+01	-4.049263e+02
1.370000e-06	-2.381561e-06	-6.039475e-09	-1.801421e+01	-4.039879e+02
1.380000e-06	-2.371253e-06	-6.021909e-09	-1.793623e+01	-4.030376e+02
1.390000e-06	-2.360889e-06	-6.004907e-09	-1.785784e+01	-4.020761e+02
1.400000e-06	-2.350476e-06	-5.990077e-09	-1.777908e+01	-4.011035e+02
1.410000e-06	-2.340001e-06	-5.969284e-09	-1.769985e+01	-4.001202e+02
1.420000e-06	-2.329475e-06	-5.952263e-09	-1.762023e+01	-3.991260e+02
1.430000e-06	-2.318893e-06	-5.935234e-09	-1.754019e+01	-3.981209e+02
1.440000e-06	-2.308232e-06	-5.923669e-09	-1.745955e+01	-3.971049e+02
1.450000e-06	-2.297478e-06	-5.913781e-09	-1.737820e+01	-3.960779e+02
1.460000e-06	-2.286636e-06	-5.901352e-09	-1.729620e+01	-3.950398e+02
1.470000e-06	-2.275750e-06	-5.888729e-09	-1.721385e+01	-3.939909e+02
1.480000e-06	-2.264829e-06	-5.872687e-09	-1.713125e+01	-3.929314e+02
1.490000e-06	-2.253860e-06	-5.854388e-09	-1.704827e+01	-3.918619e+02
1.500000e-06	-2.242826e-06	-5.830942e-09	-1.696481e+01	-3.907831e+02
1.510000e-06	-2.231727e-06	-5.811609e-09	-1.688086e+01	-3.896959e+02
1.520000e-06	-2.220585e-06	-5.793676e-09	-1.679658e+01	-3.886015e+02
1.530000e-06	-2.209397e-06	-5.776000e-09	-1.671195e+01	-3.875012e+02
1.540000e-06	-2.198153e-06	-5.759671e-09	-1.662690e+01	-3.863965e+02
1.550000e-06	-2.186868e-06	-5.741246e-09	-1.654154e+01	-3.852888e+02
1.560000e-06	-2.175550e-06	-5.727633e-09	-1.645593e+01	-3.841797e+02
1.570000e-06	-2.164163e-06	-5.708245e-09	-1.636980e+01	-3.830707e+02
1.580000e-06	-2.152671e-06	-5.688347e-09	-1.628288e+01	-3.819630e+02
1.590000e-06	-2.141091e-06	-5.671557e-09	-1.619529e+01	-3.808579e+02
1.600000e-06	-2.129449e-06	-5.655715e-09	-1.610722e+01	-3.797563e+02
1.610000e-06	-2.117753e-06	-5.642568e-09	-1.601876e+01	-3.786587e+02
1.620000e-06	-2.106012e-06	-5.621860e-09	-1.592995e+01	-3.775654e+02
1.630000e-06	-2.094216e-06	-5.601237e-09	-1.584072e+01	-3.764764e+02
1.640000e-06	-2.082357e-06	-5.583577e-09	-1.575102e+01	-3.753912e+02
1.650000e-06	-2.070446e-06	-5.570115e-09	-1.566092e+01	-3.743093e+02
1.660000e-06	-2.058490e-06	-5.555607e-09	-1.557049e+01	-3.732295e+02
1.670000e-06	-2.046483e-06	-5.537857e-09	-1.547967e+01	-3.721506e+02
1.680000e-06	-2.034428e-06	-5.522423e-09	-1.538848e+01	-3.710713e+02
1.690000e-06	-2.022336e-06	-5.502896e-09	-1.529702e+01	-3.699899e+02
1.700000e-06	-2.010213e-06	-5.482415e-09	-1.520532e+01	-3.689049e+02
1.710000e-06	-1.998038e-06	-5.459868e-09	-1.511322e+01	-3.678148e+02
1.720000e-06	-1.985804e-06	-5.441083e-09	-1.502069e+01	-3.667180e+02
1.730000e-06	-1.973493e-06	-5.428065e-09	-1.492757e+01	-3.656132e+02
1.740000e-06	-1.961083e-06	-5.413710e-09	-1.483370e+01	-3.644994e+02
1.750000e-06	-1.948609e-06	-5.396290e-09	-1.473935e+01	-3.633757e+02
1.760000e-06	-1.936110e-06	-5.374036e-09	-1.464480e+01	-3.622414e+02
1.770000e-06	-1.923590e-06	-5.357965e-09	-1.455010e+01	-3.610962e+02
1.780000e-06	-1.911036e-06	-5.342067e-09	-1.445514e+01	-3.599399e+02
1.790000e-06	-1.898421e-06	-5.323286e-09	-1.435972e+01	-3.587726e+02
1.800000e-06	-1.885745e-06	-5.305502e-09	-1.426384e+01	-3.575946e+02
1.810000e-06	-1.873026e-06	-5.286079e-09	-1.416763e+01	-3.564063e+02
1.820000e-06	-1.860269e-06	-5.271731e-09	-1.407114e+01	-3.552079e+02
1.830000e-06	-1.847463e-06	-5.254246e-09	-1.397427e+01	-3.540001e+02
1.840000e-06	-1.834607e-06	-5.231169e-09	-1.387703e+01	-3.527832e+02
1.850000e-06	-1.821716e-06	-5.209941e-09	-1.377952e+01	-3.515573e+02
1.860000e-06	-1.808791e-06	-5.191683e-09	-1.368176e+01	-3.503225e+02
1.870000e-06	-1.795821e-06	-5.172851e-09	-1.358365e+01	-3.490788e+02
1.880000e-06	-1.782800e-06	-5.149143e-09	-1.348516e+01	-3.478258e+02
1.890000e-06	-1.769730e-06	-5.128188e-09	-1.338630e+01	-3.465629e+02
1.900000e-06	-1.756577e-06	-5.106506e-09	-1.328681e+01	-3.452892e+02
1.910000e-06	-1.743353e-06	-5.084823e-09	-1.318678e+01	-3.440037e+02
1.920000e-06	-1.730095e-06	-5.062405e-09	-1.308649e+01	-3.427053e+02
1.930000e-06	-1.716806e-06	-5.040880e-09	-1.298598e+01	-3.413927e+02
1.940000e-06	-1.703494e-06	-5.022371e-09	-1.288529e+01	-3.400646e+02
1.950000e-06	-1.690145e-06	-5.002345e-09	-1.278431e+01	-3.387197e+02
1.960000e-06	-1.676751e-06	-4.982448e-09	-1.268300e+01	-3.373567e+02
1.970000e-06	-1.663315e-06	-4.958183e-09	-1.258137e+01	-3.359747e+02
1.980000e-06	-1.649835e-06	-4.932560e-09	-1.247941e+01	-3.345727e+02
1.990000e-06	-1.636309e-06	-4.907936e-09	-1.237710e+01	-3.331502e+02
2.000000e-06	-1.622734e-06	-4.884964e-09	-1.227442e+01	-3.317070e+02
2.010000e-06	-1.609123e-06	-4.862058e-09	-1.217146e+01	-3.302431e+02
2.020000e-06	-1.595470e-06	-4.839924e-09	-1.206819e+01	-3.287588e+02
2.030000e-06	-1.581773e-06	-4.819716e-09	-1.196458e+01	-3.272550e+02
2.040000e-06	-1.568056e-06	-4.799301e-09	-1.186083e+01	-3.257326e+02
2.050000e-06	-1.554319e-06	-4.777739e-09	-1.175692e+01	-3.241930e+02
2.060000e-06	-1.540536e-06	-4.751931e-09	-1.165267e+01	-3.226375e+02
2.070000e-06	-1.526692e-06	-4.727236e-09	-1.154795e+01	-3.210679e+02
2.080000e-06	-1.512792e-06	-4.705235e-09	-1.144281e+01	-3.194858e+02
2.090000e-06	-1.498850e-06	-4.681257e-09	-1.133736e+01	-3.178930e+02
2.100000e-06	-1.484852e-06	-4.657471e-09	-1.123147e+01	-3.162912e+02
2.110000e-06	-1.470797e-06	-4.629117e-09	-1.112516e+01	-3.146818e+02
2.120000e-06	-1.456708e-06	-4.600717e-09	-1.101859e+01	-3.130664e+02
2.130000e-06	-1.442596e-06	-4.576238e-09	-1.091184e+01	-3.114460e+02
2.140000e-06	-1.428452e-06	-4.554190e-09	-1.080486e+01	-3.098217e+02
2.150000e-06	-1.414258e-06	-4.532802e-09	-1.069749e+01	-3.081942e+02
2.160000e-06	-1.400015e-06	-4.507060e-09	-1.058976e+01	-3.065640e+02
2.170000e-06	-1.385739e-06	-4.479840e-09	-1.048178e+01	-3.049314e+02
2.180000e-06	-1.371445e-06	-4.452470e-09	-1.037365e+01	-3.032966e+02
2.190000e-06	-1.357110e-06	-4.429527e-09	-1.026523e+01	-3.016596e+02
2.200000e-06	-1.342728e-06	-4.409048e-09	-1.015644e+01	-3.000204e+02
2.210000e-06	-1.328317e-06	-4.386475e-09	-1.004743e+01	-2.983787e+02
2.220000e-06	-1.313854e-06	-4.362860e-09	-9.938036e+00	-2.967347e+02
2.230000e-06	-1.299331e-06	-4.339556e-09	-9.828184e+00	-2.950883e+02
2.240000e-06	-1.284776e-06	-4.318435e-09	-9.718087e+00	-2.934396e+02
2.250000e-06	-1.270194e-06	-4.296341e-09	-9.607793e+00	-2.917891e+02
2.260000e-06	-1.255589e-06	-4.273516e-09	-9.497317e+00	-2.901372e+02
2.270000e-06	-1.240946e-06	-4.249686e-09	-9.386559e+00	-2.884845e+02
2.280000e-06	-1.226265e-06	-4.226236e-09	-9.275513e+00	-2.868319e+02
2.290000e-06	-1.211564e-06	-4.204503e-09	-9.164313e+00	-2.851803e+02
2.300000e-06	-1.196835e-06	-4.179970e-09	-9.052898e+00	-2.835308e+02
2.310000e-06	-1.182080e-06	-4.152828e-09	-8.941292e+00	-2.818845e+02
2.320000e-06	-1.167283e-06	-4.124038e-09	-8.829369e+00	-2.802424e+02
2.330000e-06	-1.152452e-06	-4.099333e-09	-8.717186e+00	-2.786055e+02
2.340000e-06	-1.137604e-06	-4.078882e-09	-8.604872e+00	-2.769746e+02
2.350000e-06	-1.122732e-06	-4.056960e-09	-8.492383e+00	-2.753503e+02
2.360000e-06	-1.107837e-06	-4.034988e-09	-8.379714e+00	-2.737328e+02
2.370000e-06	-1.092924e-06	-4.012963e-09	-8.266912e+00	-2.721220e+02
2.380000e-06	-1.077995e-06	-3.993171e-09	-8.153990e+00	-2.705175e+02
2.390000e-06	-1.063041e-06	-3.971598e-09	-8.040881e+00	-2.689183e+02
2.400000e-06	-1.048065e-06	-3.946444e-09	-7.927598e+00	-2.673232e+02
2.410000e-06	-1.033068e-06	-3.922028e-09	-7.814163e+00	-2.657304e+02
2.420000e-06	-1.018044e-06	-3.897962e-09	-7.700516e+00	-2.641379e+02
2.430000e-06	-1.002991e-06	-3.875198e-09	-7.586661e+00	-2.625432e+02
2.440000e-06	-9.879221e-07	-3.852218e-09	-7.472676e+00	-2.609438e+02
2.450000e-06	-9.728226e-07	-3.829414e-09	-7.358463e+00	-2.593368e+02
2.460000e-06	-9.576905e-07	-3.806263e-09	-7.244003e+00	-2.577192e+02
2.470000e-06	-9.425422e-07	-3.782479e-09	-7.129421e+00	-2.560881e+02
2.480000e-06	-9.273666e-07	-3.758330e-09	-7.014632e+00	-2.544407e+02
2.490000e-06	-9.121658e-07	-3.733849e-09	-6.899653e+00	-2.527745e+02
2.500000e-06	-8.969459e-07	-3.711832e-09	-6.784529e+00	-2.510869e+02
2.510000e-06	-8.816971e-07	-3.689039e-09	-6.669187e+00	-2.493759e+02
2.520000e-06	-8.664247e-07	-3.665297e-09	-6.553665e+00	-2.476399e+02
2.530000e-06	-8.511391e-07	-3.639634e-09	-6.438045e+00	-2.458776e+02
2.540000e-06	-8.358472e-07	-3.613049e-09	-6.322377e+00	-2.440884e+02
2.550000e-06	-8.205339e-07	-3.588765e-09	-6.206546e+00	-2.422717e+02
2.560000e-06	-8.051888e-07	-3.563259e-09	-6.090476e+00	-2.404279e+02
2.570000e-06	-7.898243e-07	-3.536208e-09	-5.974258e+00	-2.385573e+02
2.580000e-06	-7.744292e-07	-3.508111e-09	-5.857809e+00	-2.366608e+02
2.590000e-06	-7.590005e-07	-3.480370e-09	-5.741105e+00	-2.347398e+02
2.600000e-06	-7.435461e-07	-3.451724e-09	-5.624208e+00	-2.327956e+02
2.610000e-06	-7.280546e-07	-3.419991e-09	-5.507030e+00	-2.308297e+02
2.620000e-06	-7.125434e-07	-3.386259e-09	-5.389702e+00	-2.288441e+02
2.630000e-06	-6.970185e-07	-3.352048e-09	-5.272271e+00	-2.268402e+02
2.640000e-06	-6.814662e-07	-3.320413e-09	-5.154634e+00	-2.248200e+02
2.650000e-06	-6.658894e-07	-3.291462e-09	-5.036810e+00	-2.227849e+02
2.660000e-06	-6.502958e-07	-3.262382e-09	-4.918860e+00	-2.207364e+02
2.670000e-06	-6.346736e-07	-3.234346e-09	-4.800693e+00	-2.186758e+02
2.680000e-06	-6.190213e-07	-3.207888e-09	-4.682298e+00	-2.166041e+02
2.690000e-06	-6.033557e-07	-3.179633e-09	-4.563803e+00	-2.145223e+02
2.700000e-06	-5.876811e-07	-3.149085e-09	-4.445240e+00	-2.124310e+02
2.710000e-06	-5.719969e-07	-3.117639e-09	-4.326604e+00	-2.103305e+02
2.720000e-06	-5.562912e-07	-3.085396e-09	-4.207806e+00	-2.082213e+02
2.730000e-06	-5.405732e-07	-3.054276e-09	-4.088914e+00	-2.061033e+02
2.740000e-06	-5.248600e-07	-3.022101e-09	-3.970059e+00	-2.039767e+02
2.750000e-06	-5.091410e-07	-2.991189e-09	-3.851160e+00	-2.018412e+02
2.760000e-06	-4.934153e-07	-2.964736e-09	-3.732210e+00	-1.996968e+02
2.770000e-06	-4.776774e-07	-2.936995e-09	-3.613168e+00	-1.975434e+02
2.780000e-06	-4.619272e-07	-2.906674e-09	-3.494033e+00	-1.953808e+02
2.790000e-06	-4.461758e-07	-2.874523e-09	-3.374889e+00	-1.932089e+02
2.800000e-06	-4.304124e-07	-2.843466e-09	-3.255654e+00	-1.910277e+02
2.810000e-06	-4.146355e-07	-2.815503e-09	-3.136317e+00	-1.888374e+02
2.820000e-06	-3.988508e-07	-2.784982e-09	-3.016921e+00	-1.866381e+02
2.830000e-06	-3.830491e-07	-2.749755e-09	-2.897397e+00	-1.844299e+02
2.840000e-06	-3.672352e-07	-2.715416e-09	-2.777779e+00	-1.822133e+02
