# Temperatura_=_20.0
# Concentracion g/m^3_=_10000.0
# C_Vs_to_Am_M_A/Vsm_=_65563218390.804596
# pendiente_HvsI_1/m_=_3716.3
# ordenada_HvsI_A/m_=_1297.0
# frecuencia_Hz_=_81162.09977643676

Tiempo_(s)	Campo_(V.s)	Magnetizacion_(V.s)	Campo_(kA/m)	Magnetizacion_(A/m)
0.000000e+00	-3.110479e-06	-7.022429e-09	-2.356253e+01	-4.568892e+02
1.000000e-08	-3.110452e-06	-7.052140e-09	-2.356232e+01	-4.568776e+02
2.000000e-08	-3.110552e-06	-7.005305e-09	-2.356309e+01	-4.568539e+02
3.000000e-08	-3.110586e-06	-7.007660e-09	-2.356335e+01	-4.568199e+02
4.000000e-08	-3.110443e-06	-7.024776e-09	-2.356226e+01	-4.567775e+02
5.000000e-08	-3.110155e-06	-6.969987e-09	-2.356007e+01	-4.567288e+02
6.000000e-08	-3.109774e-06	-6.985663e-09	-2.355719e+01	-4.566759e+02
7.000000e-08	-3.109300e-06	-7.005368e-09	-2.355360e+01	-4.566209e+02
8.000000e-08	-3.108680e-06	-6.994730e-09	-2.354890e+01	-4.565655e+02
9.000000e-08	-3.107964e-06	-6.997886e-09	-2.354348e+01	-4.565116e+02
1.000000e-07	-3.107200e-06	-6.996004e-09	-2.353770e+01	-4.564607e+02
1.100000e-07	-3.106474e-06	-7.008386e-09	-2.353219e+01	-4.564140e+02
1.200000e-07	-3.105651e-06	-6.987252e-09	-2.352596e+01	-4.563722e+02
1.300000e-07	-3.104717e-06	-6.986127e-09	-2.351888e+01	-4.563361e+02
1.400000e-07	-3.103710e-06	-6.993987e-09	-2.351126e+01	-4.563057e+02
1.500000e-07	-3.102613e-06	-6.994770e-09	-2.350294e+01	-4.562807e+02
1.600000e-07	-3.101437e-06	-6.992934e-09	-2.349403e+01	-4.562607e+02
1.700000e-07	-3.100123e-06	-6.969177e-09	-2.348408e+01	-4.562448e+02
1.800000e-07	-3.098788e-06	-6.992552e-09	-2.347397e+01	-4.562318e+02
1.900000e-07	-3.097386e-06	-6.991941e-09	-2.346335e+01	-4.562205e+02
2.000000e-07	-3.095829e-06	-6.978469e-09	-2.345155e+01	-4.562093e+02
2.100000e-07	-3.094114e-06	-6.971179e-09	-2.343856e+01	-4.561967e+02
2.200000e-07	-3.092326e-06	-6.972844e-09	-2.342502e+01	-4.561811e+02
2.300000e-07	-3.090517e-06	-6.991120e-09	-2.341131e+01	-4.561610e+02
2.400000e-07	-3.088601e-06	-6.977584e-09	-2.339680e+01	-4.561350e+02
2.500000e-07	-3.086617e-06	-6.975297e-09	-2.338177e+01	-4.561017e+02
2.600000e-07	-3.084556e-06	-6.966318e-09	-2.336616e+01	-4.560600e+02
2.700000e-07	-3.082427e-06	-6.974947e-09	-2.335003e+01	-4.560090e+02
2.800000e-07	-3.080227e-06	-6.976143e-09	-2.333336e+01	-4.559480e+02
2.900000e-07	-3.077936e-06	-6.957114e-09	-2.331601e+01	-4.558765e+02
3.000000e-07	-3.075586e-06	-6.952376e-09	-2.329821e+01	-4.557942e+02
3.100000e-07	-3.073158e-06	-6.942772e-09	-2.327981e+01	-4.557011e+02
3.200000e-07	-3.070686e-06	-6.949160e-09	-2.326109e+01	-4.555972e+02
3.300000e-07	-3.068165e-06	-6.942874e-09	-2.324199e+01	-4.554827e+02
3.400000e-07	-3.065567e-06	-6.937881e-09	-2.322231e+01	-4.553578e+02
3.500000e-07	-3.062850e-06	-6.936604e-09	-2.320173e+01	-4.552230e+02
3.600000e-07	-3.060000e-06	-6.935251e-09	-2.318014e+01	-4.550786e+02
3.700000e-07	-3.057071e-06	-6.940054e-09	-2.315796e+01	-4.549247e+02
3.800000e-07	-3.054067e-06	-6.927042e-09	-2.313520e+01	-4.547616e+02
3.900000e-07	-3.051006e-06	-6.921622e-09	-2.311201e+01	-4.545896e+02
4.000000e-07	-3.047857e-06	-6.917898e-09	-2.308816e+01	-4.544085e+02
4.100000e-07	-3.044647e-06	-6.924319e-09	-2.306384e+01	-4.542183e+02
4.200000e-07	-3.041378e-06	-6.922280e-09	-2.303907e+01	-4.540187e+02
4.300000e-07	-3.038032e-06	-6.901692e-09	-2.301373e+01	-4.538095e+02
4.400000e-07	-3.034630e-06	-6.897597e-09	-2.298796e+01	-4.535902e+02
4.500000e-07	-3.031135e-06	-6.896591e-09	-2.296148e+01	-4.533604e+02
4.600000e-07	-3.027530e-06	-6.899466e-09	-2.293418e+01	-4.531194e+02
4.700000e-07	-3.023823e-06	-6.889136e-09	-2.290609e+01	-4.528668e+02
4.800000e-07	-3.020051e-06	-6.880309e-09	-2.287752e+01	-4.526019e+02
4.900000e-07	-3.016222e-06	-6.879205e-09	-2.284852e+01	-4.523245e+02
5.000000e-07	-3.012314e-06	-6.866467e-09	-2.281891e+01	-4.520339e+02
5.100000e-07	-3.008320e-06	-6.851888e-09	-2.278866e+01	-4.517300e+02
5.200000e-07	-3.004239e-06	-6.832978e-09	-2.275774e+01	-4.514125e+02
5.300000e-07	-3.000105e-06	-6.834263e-09	-2.272643e+01	-4.510815e+02
5.400000e-07	-2.995903e-06	-6.839217e-09	-2.269459e+01	-4.507370e+02
5.500000e-07	-2.991595e-06	-6.838647e-09	-2.266196e+01	-4.503792e+02
5.600000e-07	-2.987176e-06	-6.835146e-09	-2.262848e+01	-4.500087e+02
5.700000e-07	-2.982671e-06	-6.825375e-09	-2.259436e+01	-4.496257e+02
5.800000e-07	-2.978123e-06	-6.822416e-09	-2.255991e+01	-4.492311e+02
5.900000e-07	-2.973492e-06	-6.805506e-09	-2.252483e+01	-4.488254e+02
6.000000e-07	-2.968767e-06	-6.787070e-09	-2.248903e+01	-4.484095e+02
6.100000e-07	-2.963973e-06	-6.774759e-09	-2.245271e+01	-4.479841e+02
6.200000e-07	-2.959120e-06	-6.772740e-09	-2.241596e+01	-4.475500e+02
6.300000e-07	-2.954196e-06	-6.773944e-09	-2.237866e+01	-4.471082e+02
6.400000e-07	-2.949143e-06	-6.765259e-09	-2.234038e+01	-4.466593e+02
6.500000e-07	-2.943976e-06	-6.758065e-09	-2.230124e+01	-4.462042e+02
6.600000e-07	-2.938720e-06	-6.745712e-09	-2.226142e+01	-4.457435e+02
6.700000e-07	-2.933379e-06	-6.737762e-09	-2.222096e+01	-4.452778e+02
6.800000e-07	-2.927948e-06	-6.725323e-09	-2.217982e+01	-4.448078e+02
6.900000e-07	-2.922431e-06	-6.711981e-09	-2.213803e+01	-4.443339e+02
7.000000e-07	-2.916849e-06	-6.705254e-09	-2.209574e+01	-4.438567e+02
7.100000e-07	-2.911205e-06	-6.700328e-09	-2.205299e+01	-4.433765e+02
7.200000e-07	-2.905517e-06	-6.699581e-09	-2.200990e+01	-4.428938e+02
7.300000e-07	-2.899750e-06	-6.688490e-09	-2.196621e+01	-4.424088e+02
7.400000e-07	-2.893902e-06	-6.680582e-09	-2.192192e+01	-4.419219e+02
7.500000e-07	-2.887947e-06	-6.670512e-09	-2.187680e+01	-4.414334e+02
7.600000e-07	-2.881883e-06	-6.660020e-09	-2.183087e+01	-4.409437e+02
7.700000e-07	-2.875769e-06	-6.649937e-09	-2.178455e+01	-4.404530e+02
7.800000e-07	-2.869580e-06	-6.636079e-09	-2.173767e+01	-4.399616e+02
7.900000e-07	-2.863331e-06	-6.630104e-09	-2.169033e+01	-4.394699e+02
8.000000e-07	-2.857013e-06	-6.620107e-09	-2.164247e+01	-4.389780e+02
8.100000e-07	-2.850619e-06	-6.609199e-09	-2.159404e+01	-4.384864e+02
8.200000e-07	-2.844161e-06	-6.595738e-09	-2.154512e+01	-4.379951e+02
8.300000e-07	-2.837637e-06	-6.584242e-09	-2.149570e+01	-4.375045e+02
8.400000e-07	-2.831056e-06	-6.582004e-09	-2.144585e+01	-4.370146e+02
8.500000e-07	-2.824395e-06	-6.578237e-09	-2.139538e+01	-4.365254e+02
8.600000e-07	-2.817650e-06	-6.570573e-09	-2.134429e+01	-4.360370e+02
8.700000e-07	-2.810809e-06	-6.559068e-09	-2.129247e+01	-4.355492e+02
8.800000e-07	-2.803896e-06	-6.552406e-09	-2.124010e+01	-4.350618e+02
8.900000e-07	-2.796926e-06	-6.545723e-09	-2.118730e+01	-4.345745e+02
9.000000e-07	-2.789884e-06	-6.531333e-09	-2.113396e+01	-4.340868e+02
9.100000e-07	-2.782784e-06	-6.514693e-09	-2.108017e+01	-4.335983e+02
9.200000e-07	-2.775601e-06	-6.501011e-09	-2.102576e+01	-4.331082e+02
9.300000e-07	-2.768359e-06	-6.497620e-09	-2.097090e+01	-4.326160e+02
9.400000e-07	-2.761063e-06	-6.494653e-09	-2.091563e+01	-4.321207e+02
9.500000e-07	-2.753701e-06	-6.488401e-09	-2.085987e+01	-4.316215e+02
9.600000e-07	-2.746266e-06	-6.481096e-09	-2.080354e+01	-4.311177e+02
9.700000e-07	-2.738722e-06	-6.471400e-09	-2.074640e+01	-4.306083e+02
9.800000e-07	-2.731090e-06	-6.461086e-09	-2.068858e+01	-4.300923e+02
9.900000e-07	-2.723384e-06	-6.442098e-09	-2.063020e+01	-4.295690e+02
1.000000e-06	-2.715605e-06	-6.424061e-09	-2.057128e+01	-4.290375e+02
1.010000e-06	-2.707737e-06	-6.414965e-09	-2.051167e+01	-4.284971e+02
1.020000e-06	-2.699801e-06	-6.412271e-09	-2.045156e+01	-4.279469e+02
1.030000e-06	-2.691782e-06	-6.409044e-09	-2.039081e+01	-4.273863e+02
1.040000e-06	-2.683649e-06	-6.398693e-09	-2.032921e+01	-4.268147e+02
1.050000e-06	-2.675449e-06	-6.391897e-09	-2.026709e+01	-4.262317e+02
1.060000e-06	-2.667189e-06	-6.383302e-09	-2.020452e+01	-4.256367e+02
1.070000e-06	-2.658876e-06	-6.367828e-09	-2.014154e+01	-4.250294e+02
1.080000e-06	-2.650497e-06	-6.348374e-09	-2.007807e+01	-4.244095e+02
1.090000e-06	-2.642045e-06	-6.331824e-09	-2.001405e+01	-4.237767e+02
1.100000e-06	-2.633541e-06	-6.320990e-09	-1.994963e+01	-4.231309e+02
1.110000e-06	-2.624994e-06	-6.311187e-09	-1.988488e+01	-4.224719e+02
1.120000e-06	-2.616396e-06	-6.302527e-09	-1.981975e+01	-4.217997e+02
1.130000e-06	-2.607724e-06	-6.293047e-09	-1.975406e+01	-4.211141e+02
1.140000e-06	-2.598992e-06	-6.284601e-09	-1.968791e+01	-4.204153e+02
1.150000e-06	-2.590198e-06	-6.273566e-09	-1.962129e+01	-4.197033e+02
1.160000e-06	-2.581336e-06	-6.258541e-09	-1.955416e+01	-4.189781e+02
1.170000e-06	-2.572418e-06	-6.241370e-09	-1.948661e+01	-4.182399e+02
1.180000e-06	-2.563446e-06	-6.225770e-09	-1.941864e+01	-4.174889e+02
1.190000e-06	-2.554421e-06	-6.214141e-09	-1.935027e+01	-4.167254e+02
1.200000e-06	-2.545296e-06	-6.198851e-09	-1.928115e+01	-4.159497e+02
1.210000e-06	-2.536071e-06	-6.182864e-09	-1.921127e+01	-4.151621e+02
1.220000e-06	-2.526783e-06	-6.168497e-09	-1.914091e+01	-4.143631e+02
1.230000e-06	-2.517441e-06	-6.153797e-09	-1.907015e+01	-4.135532e+02
1.240000e-06	-2.508046e-06	-6.138764e-09	-1.899898e+01	-4.127331e+02
1.250000e-06	-2.498585e-06	-6.123725e-09	-1.892731e+01	-4.119033e+02
1.260000e-06	-2.489069e-06	-6.111775e-09	-1.885522e+01	-4.110646e+02
1.270000e-06	-2.479490e-06	-6.098619e-09	-1.878266e+01	-4.102178e+02
1.280000e-06	-2.469847e-06	-6.080818e-09	-1.870961e+01	-4.093636e+02
1.290000e-06	-2.460154e-06	-6.060803e-09	-1.863619e+01	-4.085028e+02
1.300000e-06	-2.450407e-06	-6.043348e-09	-1.856235e+01	-4.076364e+02
1.310000e-06	-2.440586e-06	-6.029267e-09	-1.848795e+01	-4.067650e+02
1.320000e-06	-2.430662e-06	-6.016371e-09	-1.841277e+01	-4.058895e+02
1.330000e-06	-2.420654e-06	-6.004586e-09	-1.833696e+01	-4.050107e+02
1.340000e-06	-2.410580e-06	-5.991540e-09	-1.826065e+01	-4.041292e+02
1.350000e-06	-2.400451e-06	-5.980893e-09	-1.818392e+01	-4.032455e+02
1.360000e-06	-2.390285e-06	-5.969630e-09	-1.810691e+01	-4.023603e+02
1.370000e-06	-2.380082e-06	-5.950353e-09	-1.802962e+01	-4.014739e+02
1.380000e-06	-2.369818e-06	-5.930240e-09	-1.795187e+01	-4.005865e+02
1.390000e-06	-2.359481e-06	-5.912606e-09	-1.787357e+01	-3.996985e+02
1.400000e-06	-2.349087e-06	-5.898513e-09	-1.779482e+01	-3.988098e+02
1.410000e-06	-2.338626e-06	-5.886089e-09	-1.771558e+01	-3.979204e+02
1.420000e-06	-2.328120e-06	-5.871568e-09	-1.763600e+01	-3.970302e+02
1.430000e-06	-2.317576e-06	-5.857695e-09	-1.755612e+01	-3.961389e+02
1.440000e-06	-2.306965e-06	-5.848818e-09	-1.747574e+01	-3.952463e+02
1.450000e-06	-2.296276e-06	-5.841574e-09	-1.739477e+01	-3.943519e+02
1.460000e-06	-2.285492e-06	-5.826528e-09	-1.731308e+01	-3.934553e+02
1.470000e-06	-2.274629e-06	-5.807490e-09	-1.723079e+01	-3.925561e+02
1.480000e-06	-2.263716e-06	-5.793538e-09	-1.714812e+01	-3.916538e+02
1.490000e-06	-2.252758e-06	-5.781483e-09	-1.706512e+01	-3.907477e+02
1.500000e-06	-2.241753e-06	-5.764163e-09	-1.698175e+01	-3.898375e+02
1.510000e-06	-2.230689e-06	-5.743380e-09	-1.689794e+01	-3.889226e+02
1.520000e-06	-2.219575e-06	-5.729587e-09	-1.681375e+01	-3.880025e+02
1.530000e-06	-2.208410e-06	-5.719878e-09	-1.672917e+01	-3.870766e+02
1.540000e-06	-2.197189e-06	-5.707156e-09	-1.664416e+01	-3.861446e+02
1.550000e-06	-2.185923e-06	-5.690032e-09	-1.655882e+01	-3.852058e+02
1.560000e-06	-2.174613e-06	-5.671756e-09	-1.647315e+01	-3.842599e+02
1.570000e-06	-2.163262e-06	-5.656791e-09	-1.638717e+01	-3.833063e+02
1.580000e-06	-2.151849e-06	-5.639336e-09	-1.630071e+01	-3.823446e+02
1.590000e-06	-2.140331e-06	-5.617754e-09	-1.621345e+01	-3.813744e+02
1.600000e-06	-2.128708e-06	-5.600556e-09	-1.612541e+01	-3.803951e+02
1.610000e-06	-2.117027e-06	-5.588406e-09	-1.603692e+01	-3.794063e+02
1.620000e-06	-2.105301e-06	-5.575453e-09	-1.594810e+01	-3.784075e+02
1.630000e-06	-2.093539e-06	-5.559027e-09	-1.585900e+01	-3.773981e+02
1.640000e-06	-2.081731e-06	-5.542860e-09	-1.576955e+01	-3.763778e+02
1.650000e-06	-2.069858e-06	-5.529386e-09	-1.567961e+01	-3.753459e+02
1.660000e-06	-2.057939e-06	-5.516119e-09	-1.558932e+01	-3.743019e+02
1.670000e-06	-2.045975e-06	-5.498971e-09	-1.549869e+01	-3.732455e+02
1.680000e-06	-2.033957e-06	-5.476727e-09	-1.540765e+01	-3.721761e+02
1.690000e-06	-2.021886e-06	-5.455384e-09	-1.531621e+01	-3.710932e+02
1.700000e-06	-2.009781e-06	-5.434153e-09	-1.522451e+01	-3.699965e+02
1.710000e-06	-1.997647e-06	-5.413148e-09	-1.513259e+01	-3.688855e+02
1.720000e-06	-1.985445e-06	-5.395902e-09	-1.504016e+01	-3.677599e+02
1.730000e-06	-1.973175e-06	-5.383138e-09	-1.494722e+01	-3.666194e+02
1.740000e-06	-1.960838e-06	-5.370257e-09	-1.485376e+01	-3.654638e+02
1.750000e-06	-1.948423e-06	-5.351570e-09	-1.475971e+01	-3.642929e+02
1.760000e-06	-1.935953e-06	-5.327440e-09	-1.466525e+01	-3.631065e+02
1.770000e-06	-1.923435e-06	-5.304309e-09	-1.457043e+01	-3.619047e+02
1.780000e-06	-1.910874e-06	-5.285805e-09	-1.447527e+01	-3.606872e+02
1.790000e-06	-1.898281e-06	-5.266239e-09	-1.437988e+01	-3.594543e+02
1.800000e-06	-1.885648e-06	-5.245562e-09	-1.428418e+01	-3.582060e+02
1.810000e-06	-1.872957e-06	-5.226352e-09	-1.418804e+01	-3.569424e+02
1.820000e-06	-1.860216e-06	-5.209944e-09	-1.409152e+01	-3.556636e+02
1.830000e-06	-1.847439e-06	-5.193632e-09	-1.399474e+01	-3.543701e+02
1.840000e-06	-1.834617e-06	-5.171932e-09	-1.389761e+01	-3.530619e+02
1.850000e-06	-1.821750e-06	-5.150177e-09	-1.380014e+01	-3.517395e+02
1.860000e-06	-1.808841e-06	-5.130081e-09	-1.370235e+01	-3.504032e+02
1.870000e-06	-1.795896e-06	-5.108402e-09	-1.360429e+01	-3.490535e+02
1.880000e-06	-1.782912e-06	-5.085596e-09	-1.350594e+01	-3.476909e+02
1.890000e-06	-1.769876e-06	-5.061706e-09	-1.340718e+01	-3.463160e+02
1.900000e-06	-1.756782e-06	-5.034297e-09	-1.330799e+01	-3.449294e+02
1.910000e-06	-1.743640e-06	-5.005381e-09	-1.320844e+01	-3.435319e+02
1.920000e-06	-1.730430e-06	-4.980827e-09	-1.310837e+01	-3.421242e+02
1.930000e-06	-1.717147e-06	-4.962656e-09	-1.300775e+01	-3.407073e+02
1.940000e-06	-1.703835e-06	-4.944633e-09	-1.290691e+01	-3.392819e+02
1.950000e-06	-1.690499e-06	-4.922154e-09	-1.280588e+01	-3.378492e+02
1.960000e-06	-1.677124e-06	-4.899737e-09	-1.270457e+01	-3.364102e+02
1.970000e-06	-1.663711e-06	-4.879496e-09	-1.260296e+01	-3.349658e+02
1.980000e-06	-1.650259e-06	-4.855660e-09	-1.250106e+01	-3.335172e+02
1.990000e-06	-1.636761e-06	-4.826106e-09	-1.239881e+01	-3.320653e+02
2.000000e-06	-1.623221e-06	-4.798216e-09	-1.229624e+01	-3.306113e+02
2.010000e-06	-1.609636e-06	-4.776120e-09	-1.219333e+01	-3.291559e+02
2.020000e-06	-1.596005e-06	-4.758469e-09	-1.209008e+01	-3.277000e+02
2.030000e-06	-1.582337e-06	-4.740519e-09	-1.198653e+01	-3.262443e+02
2.040000e-06	-1.568635e-06	-4.719122e-09	-1.188274e+01	-3.247893e+02
2.050000e-06	-1.554911e-06	-4.698540e-09	-1.177878e+01	-3.233353e+02
2.060000e-06	-1.541169e-06	-4.679234e-09	-1.167468e+01	-3.218825e+02
2.070000e-06	-1.527382e-06	-4.655723e-09	-1.157024e+01	-3.204308e+02
2.080000e-06	-1.513545e-06	-4.628819e-09	-1.146542e+01	-3.189801e+02
2.090000e-06	-1.499649e-06	-4.605940e-09	-1.136016e+01	-3.175297e+02
2.100000e-06	-1.485687e-06	-4.591064e-09	-1.125439e+01	-3.160791e+02
2.110000e-06	-1.471661e-06	-4.573589e-09	-1.114814e+01	-3.146275e+02
2.120000e-06	-1.457590e-06	-4.549398e-09	-1.104155e+01	-3.131738e+02
2.130000e-06	-1.443482e-06	-4.526648e-09	-1.093468e+01	-3.117171e+02
2.140000e-06	-1.429341e-06	-4.508313e-09	-1.082756e+01	-3.102563e+02
2.150000e-06	-1.415171e-06	-4.491707e-09	-1.072022e+01	-3.087900e+02
2.160000e-06	-1.400976e-06	-4.468543e-09	-1.061269e+01	-3.073174e+02
2.170000e-06	-1.386756e-06	-4.441598e-09	-1.050496e+01	-3.058372e+02
2.180000e-06	-1.372488e-06	-4.418520e-09	-1.039688e+01	-3.043486e+02
2.190000e-06	-1.358171e-06	-4.398072e-09	-1.028843e+01	-3.028508e+02
2.200000e-06	-1.343823e-06	-4.376084e-09	-1.017974e+01	-3.013431e+02
2.210000e-06	-1.329437e-06	-4.350447e-09	-1.007076e+01	-2.998252e+02
2.220000e-06	-1.314992e-06	-4.328510e-09	-9.961340e+00	-2.982970e+02
2.230000e-06	-1.300489e-06	-4.312594e-09	-9.851474e+00	-2.967583e+02
2.240000e-06	-1.285957e-06	-4.297114e-09	-9.741390e+00	-2.952097e+02
2.250000e-06	-1.271405e-06	-4.279142e-09	-9.631158e+00	-2.936514e+02
2.260000e-06	-1.256809e-06	-4.257457e-09	-9.520589e+00	-2.920841e+02
2.270000e-06	-1.242172e-06	-4.234864e-09	-9.409712e+00	-2.905087e+02
2.280000e-06	-1.227513e-06	-4.207847e-09	-9.298667e+00	-2.889259e+02
2.290000e-06	-1.212831e-06	-4.178634e-09	-9.187451e+00	-2.873366e+02
2.300000e-06	-1.198115e-06	-4.153367e-09	-9.075971e+00	-2.857417e+02
2.310000e-06	-1.183383e-06	-4.132526e-09	-8.964371e+00	-2.841420e+02
2.320000e-06	-1.168638e-06	-4.110404e-09	-8.852681e+00	-2.825382e+02
2.330000e-06	-1.153859e-06	-4.084752e-09	-8.740723e+00	-2.809306e+02
2.340000e-06	-1.139044e-06	-4.062394e-09	-8.628496e+00	-2.793195e+02
2.350000e-06	-1.124198e-06	-4.040403e-09	-8.516037e+00	-2.777049e+02
2.360000e-06	-1.109319e-06	-4.018202e-09	-8.403326e+00	-2.760865e+02
2.370000e-06	-1.094417e-06	-3.996653e-09	-8.290442e+00	-2.744636e+02
2.380000e-06	-1.079501e-06	-3.972911e-09	-8.177449e+00	-2.728355e+02
2.390000e-06	-1.064565e-06	-3.948389e-09	-8.064301e+00	-2.712009e+02
2.400000e-06	-1.049610e-06	-3.921856e-09	-7.951019e+00	-2.695583e+02
2.410000e-06	-1.034637e-06	-3.894971e-09	-7.837590e+00	-2.679063e+02
2.420000e-06	-1.019644e-06	-3.870328e-09	-7.724018e+00	-2.662431e+02
2.430000e-06	-1.004627e-06	-3.848412e-09	-7.610264e+00	-2.645667e+02
2.440000e-06	-9.895845e-07	-3.826841e-09	-7.496310e+00	-2.628753e+02
2.450000e-06	-9.745142e-07	-3.800137e-09	-7.382150e+00	-2.611672e+02
2.460000e-06	-9.594176e-07	-3.770837e-09	-7.267789e+00	-2.594405e+02
2.470000e-06	-9.442986e-07	-3.743783e-09	-7.153260e+00	-2.576937e+02
2.480000e-06	-9.291530e-07	-3.718305e-09	-7.038529e+00	-2.559255e+02
2.490000e-06	-9.139782e-07	-3.690211e-09	-6.923576e+00	-2.541350e+02
2.500000e-06	-8.987771e-07	-3.659940e-09	-6.808425e+00	-2.523213e+02
2.510000e-06	-8.835616e-07	-3.635651e-09	-6.693164e+00	-2.504842e+02
2.520000e-06	-8.683285e-07	-3.616282e-09	-6.577771e+00	-2.486237e+02
2.530000e-06	-8.530801e-07	-3.596184e-09	-6.462261e+00	-2.467402e+02
2.540000e-06	-8.378036e-07	-3.571269e-09	-6.346538e+00	-2.448345e+02
2.550000e-06	-8.224980e-07	-3.545026e-09	-6.230595e+00	-2.429077e+02
2.560000e-06	-8.071814e-07	-3.519116e-09	-6.114568e+00	-2.409612e+02
2.570000e-06	-7.918457e-07	-3.489631e-09	-5.998397e+00	-2.389966e+02
2.580000e-06	-7.764869e-07	-3.456981e-09	-5.882051e+00	-2.370159e+02
2.590000e-06	-7.611040e-07	-3.422333e-09	-5.765522e+00	-2.350211e+02
2.600000e-06	-7.456848e-07	-3.392461e-09	-5.648719e+00	-2.330141e+02
2.610000e-06	-7.302470e-07	-3.364180e-09	-5.531774e+00	-2.309972e+02
2.620000e-06	-7.147993e-07	-3.331567e-09	-5.414755e+00	-2.289724e+02
2.630000e-06	-6.993295e-07	-3.297643e-09	-5.297568e+00	-2.269415e+02
2.640000e-06	-6.838270e-07	-3.268805e-09	-5.180133e+00	-2.249065e+02
2.650000e-06	-6.682935e-07	-3.244543e-09	-5.062464e+00	-2.228688e+02
2.660000e-06	-6.527381e-07	-3.216850e-09	-4.944628e+00	-2.208298e+02
2.670000e-06	-6.371460e-07	-3.186119e-09	-4.826515e+00	-2.187906e+02
2.680000e-06	-6.215278e-07	-3.155108e-09	-4.708203e+00	-2.167521e+02
2.690000e-06	-6.058835e-07	-3.124966e-09	-4.589695e+00	-2.147147e+02
2.700000e-06	-5.902180e-07	-3.095528e-09	-4.471025e+00	-2.126787e+02
2.710000e-06	-5.745335e-07	-3.064746e-09	-4.352212e+00	-2.106441e+02
2.720000e-06	-5.588345e-07	-3.034352e-09	-4.233289e+00	-2.086108e+02
2.730000e-06	-5.431353e-07	-3.007137e-09	-4.114364e+00	-2.065783e+02
2.740000e-06	-5.274293e-07	-2.982703e-09	-3.995388e+00	-2.045460e+02
2.750000e-06	-5.117157e-07	-2.954258e-09	-3.876354e+00	-2.025133e+02
2.760000e-06	-4.959934e-07	-2.922769e-09	-3.757254e+00	-2.004791e+02
2.770000e-06	-4.802642e-07	-2.893962e-09	-3.638102e+00	-1.984428e+02
2.780000e-06	-4.645266e-07	-2.865860e-09	-3.518886e+00	-1.964034e+02
2.790000e-06	-4.487776e-07	-2.835970e-09	-3.399585e+00	-1.943599e+02
2.800000e-06	-4.330197e-07	-2.802805e-09	-3.280215e+00	-1.923114e+02
2.810000e-06	-4.172599e-07	-2.772546e-09	-3.160831e+00	-1.902572e+02
2.820000e-06	-4.014953e-07	-2.748038e-09	-3.041411e+00	-1.881962e+02
2.830000e-06	-3.857044e-07	-2.719681e-09	-2.921792e+00	-1.861279e+02
2.840000e-06	-3.699028e-07	-2.686452e-09	-2.802091e+00	-1.840515e+02
