# Temperatura_=_20.0
# Concentracion g/m^3_=_10000.0
# C_Vs_to_Am_M_A/Vsm_=_65563218390.804596
# pendiente_HvsI_1/m_=_3716.3
# ordenada_HvsI_A/m_=_1297.0
# frecuencia_Hz_=_81162.34153486176

Tiempo_(s)	Campo_(V.s)	Magnetizacion_(V.s)	Campo_(kA/m)	Magnetizacion_(A/m)
0.000000e+00	-3.112267e-06	-7.045224e-09	-2.356171e+01	-4.546171e+02
1.000000e-08	-3.112249e-06	-7.061916e-09	-2.356157e+01	-4.545463e+02
2.000000e-08	-3.112367e-06	-6.976849e-09	-2.356247e+01	-4.544728e+02
3.000000e-08	-3.112407e-06	-7.014047e-09	-2.356277e+01	-4.543993e+02
4.000000e-08	-3.112265e-06	-7.019878e-09	-2.356170e+01	-4.543284e+02
5.000000e-08	-3.111976e-06	-6.970811e-09	-2.355951e+01	-4.542621e+02
6.000000e-08	-3.111588e-06	-7.030104e-09	-2.355657e+01	-4.542022e+02
7.000000e-08	-3.111080e-06	-7.003004e-09	-2.355272e+01	-4.541500e+02
8.000000e-08	-3.110447e-06	-7.002051e-09	-2.354794e+01	-4.541063e+02
9.000000e-08	-3.109738e-06	-6.999349e-09	-2.354257e+01	-4.540715e+02
1.000000e-07	-3.108976e-06	-7.001095e-09	-2.353680e+01	-4.540454e+02
1.100000e-07	-3.108245e-06	-7.015616e-09	-2.353127e+01	-4.540274e+02
1.200000e-07	-3.107406e-06	-6.963267e-09	-2.352491e+01	-4.540164e+02
1.300000e-07	-3.106483e-06	-6.976826e-09	-2.351793e+01	-4.540111e+02
1.400000e-07	-3.105489e-06	-6.979203e-09	-2.351040e+01	-4.540099e+02
1.500000e-07	-3.104411e-06	-7.007380e-09	-2.350224e+01	-4.540111e+02
1.600000e-07	-3.103236e-06	-6.995791e-09	-2.349334e+01	-4.540127e+02
1.700000e-07	-3.101916e-06	-6.985655e-09	-2.348335e+01	-4.540130e+02
1.800000e-07	-3.100568e-06	-7.026001e-09	-2.347314e+01	-4.540103e+02
1.900000e-07	-3.099132e-06	-6.986622e-09	-2.346227e+01	-4.540031e+02
2.000000e-07	-3.097578e-06	-6.977002e-09	-2.345050e+01	-4.539902e+02
2.100000e-07	-3.095867e-06	-6.946102e-09	-2.343755e+01	-4.539707e+02
2.200000e-07	-3.094088e-06	-6.967449e-09	-2.342409e+01	-4.539438e+02
2.300000e-07	-3.092294e-06	-6.989323e-09	-2.341050e+01	-4.539094e+02
2.400000e-07	-3.090388e-06	-6.975049e-09	-2.339608e+01	-4.538675e+02
2.500000e-07	-3.088412e-06	-6.979624e-09	-2.338111e+01	-4.538185e+02
2.600000e-07	-3.086358e-06	-6.958439e-09	-2.336557e+01	-4.537628e+02
2.700000e-07	-3.084232e-06	-6.989298e-09	-2.334947e+01	-4.537013e+02
2.800000e-07	-3.082023e-06	-6.972367e-09	-2.333275e+01	-4.536347e+02
2.900000e-07	-3.079736e-06	-6.956137e-09	-2.331543e+01	-4.535639e+02
3.000000e-07	-3.077398e-06	-6.947262e-09	-2.329773e+01	-4.534897e+02
3.100000e-07	-3.074978e-06	-6.942770e-09	-2.327941e+01	-4.534128e+02
3.200000e-07	-3.072495e-06	-6.962521e-09	-2.326062e+01	-4.533336e+02
3.300000e-07	-3.069944e-06	-6.935716e-09	-2.324130e+01	-4.532524e+02
3.400000e-07	-3.067333e-06	-6.942922e-09	-2.322154e+01	-4.531689e+02
3.500000e-07	-3.064614e-06	-6.940121e-09	-2.320095e+01	-4.530828e+02
3.600000e-07	-3.061753e-06	-6.949579e-09	-2.317929e+01	-4.529934e+02
3.700000e-07	-3.058825e-06	-6.947253e-09	-2.315712e+01	-4.528996e+02
3.800000e-07	-3.055821e-06	-6.923444e-09	-2.313438e+01	-4.527999e+02
3.900000e-07	-3.052747e-06	-6.927320e-09	-2.311111e+01	-4.526928e+02
4.000000e-07	-3.049576e-06	-6.915286e-09	-2.308710e+01	-4.525766e+02
4.100000e-07	-3.046352e-06	-6.932508e-09	-2.306270e+01	-4.524492e+02
4.200000e-07	-3.043100e-06	-6.918133e-09	-2.303808e+01	-4.523088e+02
4.300000e-07	-3.039773e-06	-6.903232e-09	-2.301289e+01	-4.521535e+02
4.400000e-07	-3.036373e-06	-6.904516e-09	-2.298715e+01	-4.519814e+02
4.500000e-07	-3.032873e-06	-6.898328e-09	-2.296065e+01	-4.517910e+02
4.600000e-07	-3.029265e-06	-6.904368e-09	-2.293334e+01	-4.515809e+02
4.700000e-07	-3.025552e-06	-6.881224e-09	-2.290523e+01	-4.513500e+02
4.800000e-07	-3.021777e-06	-6.885073e-09	-2.287665e+01	-4.510978e+02
4.900000e-07	-3.017931e-06	-6.880867e-09	-2.284753e+01	-4.508237e+02
5.000000e-07	-3.014005e-06	-6.870203e-09	-2.281781e+01	-4.505279e+02
5.100000e-07	-3.009998e-06	-6.853148e-09	-2.278747e+01	-4.502108e+02
5.200000e-07	-3.005900e-06	-6.827421e-09	-2.275645e+01	-4.498730e+02
5.300000e-07	-3.001766e-06	-6.835042e-09	-2.272516e+01	-4.495157e+02
5.400000e-07	-2.997559e-06	-6.829581e-09	-2.269331e+01	-4.491400e+02
5.500000e-07	-2.993244e-06	-6.835210e-09	-2.266064e+01	-4.487476e+02
5.600000e-07	-2.988818e-06	-6.829168e-09	-2.262713e+01	-4.483401e+02
5.700000e-07	-2.984304e-06	-6.826217e-09	-2.259295e+01	-4.479191e+02
5.800000e-07	-2.979746e-06	-6.825216e-09	-2.255845e+01	-4.474864e+02
5.900000e-07	-2.975105e-06	-6.798461e-09	-2.252331e+01	-4.470438e+02
6.000000e-07	-2.970374e-06	-6.780934e-09	-2.248749e+01	-4.465928e+02
6.100000e-07	-2.965555e-06	-6.759494e-09	-2.245101e+01	-4.461350e+02
6.200000e-07	-2.960672e-06	-6.764077e-09	-2.241404e+01	-4.456718e+02
6.300000e-07	-2.955736e-06	-6.763609e-09	-2.237668e+01	-4.452042e+02
6.400000e-07	-2.950707e-06	-6.756491e-09	-2.233861e+01	-4.447334e+02
6.500000e-07	-2.945568e-06	-6.752585e-09	-2.229970e+01	-4.442601e+02
6.600000e-07	-2.940314e-06	-6.737620e-09	-2.225992e+01	-4.437849e+02
6.700000e-07	-2.934979e-06	-6.732532e-09	-2.221953e+01	-4.433085e+02
6.800000e-07	-2.929549e-06	-6.709961e-09	-2.217843e+01	-4.428310e+02
6.900000e-07	-2.924032e-06	-6.699126e-09	-2.213666e+01	-4.423528e+02
7.000000e-07	-2.918447e-06	-6.694182e-09	-2.209438e+01	-4.418741e+02
7.100000e-07	-2.912798e-06	-6.691948e-09	-2.205161e+01	-4.413949e+02
7.200000e-07	-2.907106e-06	-6.689812e-09	-2.200852e+01	-4.409154e+02
7.300000e-07	-2.901341e-06	-6.670425e-09	-2.196488e+01	-4.404357e+02
7.400000e-07	-2.895497e-06	-6.664569e-09	-2.192063e+01	-4.399560e+02
7.500000e-07	-2.889550e-06	-6.653763e-09	-2.187561e+01	-4.394763e+02
7.600000e-07	-2.883496e-06	-6.651680e-09	-2.182978e+01	-4.389969e+02
7.700000e-07	-2.877367e-06	-6.642153e-09	-2.178338e+01	-4.385180e+02
7.800000e-07	-2.871168e-06	-6.628976e-09	-2.173645e+01	-4.380399e+02
7.900000e-07	-2.864917e-06	-6.624686e-09	-2.168912e+01	-4.375629e+02
8.000000e-07	-2.858592e-06	-6.611412e-09	-2.164124e+01	-4.370872e+02
8.100000e-07	-2.852200e-06	-6.604064e-09	-2.159285e+01	-4.366131e+02
8.200000e-07	-2.845737e-06	-6.583848e-09	-2.154392e+01	-4.361409e+02
8.300000e-07	-2.839203e-06	-6.574835e-09	-2.149445e+01	-4.356707e+02
8.400000e-07	-2.832618e-06	-6.574220e-09	-2.144460e+01	-4.352026e+02
8.500000e-07	-2.825943e-06	-6.569465e-09	-2.139407e+01	-4.347367e+02
8.600000e-07	-2.819173e-06	-6.566617e-09	-2.134282e+01	-4.342728e+02
8.700000e-07	-2.812312e-06	-6.556219e-09	-2.129088e+01	-4.338108e+02
8.800000e-07	-2.805388e-06	-6.553144e-09	-2.123845e+01	-4.333503e+02
8.900000e-07	-2.798408e-06	-6.542565e-09	-2.118561e+01	-4.328909e+02
9.000000e-07	-2.791343e-06	-6.530720e-09	-2.113213e+01	-4.324321e+02
9.100000e-07	-2.784219e-06	-6.516358e-09	-2.107819e+01	-4.319732e+02
9.200000e-07	-2.777034e-06	-6.505672e-09	-2.102380e+01	-4.315134e+02
9.300000e-07	-2.769790e-06	-6.505765e-09	-2.096895e+01	-4.310518e+02
9.400000e-07	-2.762478e-06	-6.497821e-09	-2.091360e+01	-4.305877e+02
9.500000e-07	-2.755104e-06	-6.490789e-09	-2.085777e+01	-4.301200e+02
9.600000e-07	-2.747648e-06	-6.479047e-09	-2.080133e+01	-4.296478e+02
9.700000e-07	-2.740085e-06	-6.474343e-09	-2.074407e+01	-4.291699e+02
9.800000e-07	-2.732444e-06	-6.468626e-09	-2.068622e+01	-4.286854e+02
9.900000e-07	-2.724717e-06	-6.455039e-09	-2.062772e+01	-4.281933e+02
1.000000e-06	-2.716918e-06	-6.443022e-09	-2.056869e+01	-4.276926e+02
1.010000e-06	-2.709048e-06	-6.427024e-09	-2.050911e+01	-4.271821e+02
1.020000e-06	-2.701114e-06	-6.419873e-09	-2.044904e+01	-4.266611e+02
1.030000e-06	-2.693106e-06	-6.409324e-09	-2.038841e+01	-4.261286e+02
1.040000e-06	-2.684989e-06	-6.398756e-09	-2.032696e+01	-4.255837e+02
1.050000e-06	-2.676773e-06	-6.389649e-09	-2.026476e+01	-4.250256e+02
1.060000e-06	-2.668486e-06	-6.379586e-09	-2.020202e+01	-4.244535e+02
1.070000e-06	-2.660148e-06	-6.370160e-09	-2.013890e+01	-4.238666e+02
1.080000e-06	-2.651754e-06	-6.354592e-09	-2.007535e+01	-4.232644e+02
1.090000e-06	-2.643308e-06	-6.345213e-09	-2.001141e+01	-4.226463e+02
1.100000e-06	-2.634805e-06	-6.334840e-09	-1.994704e+01	-4.220117e+02
1.110000e-06	-2.626253e-06	-6.324639e-09	-1.988230e+01	-4.213602e+02
1.120000e-06	-2.617647e-06	-6.309423e-09	-1.981714e+01	-4.206916e+02
1.130000e-06	-2.608974e-06	-6.291082e-09	-1.975148e+01	-4.200055e+02
1.140000e-06	-2.600251e-06	-6.279788e-09	-1.968545e+01	-4.193018e+02
1.150000e-06	-2.591459e-06	-6.266759e-09	-1.961888e+01	-4.185806e+02
1.160000e-06	-2.582592e-06	-6.254911e-09	-1.955176e+01	-4.178419e+02
1.170000e-06	-2.573669e-06	-6.240448e-09	-1.948420e+01	-4.170860e+02
1.180000e-06	-2.564698e-06	-6.231891e-09	-1.941629e+01	-4.163132e+02
1.190000e-06	-2.555672e-06	-6.223499e-09	-1.934796e+01	-4.155239e+02
1.200000e-06	-2.546557e-06	-6.202575e-09	-1.927895e+01	-4.147187e+02
1.210000e-06	-2.537340e-06	-6.178426e-09	-1.920918e+01	-4.138982e+02
1.220000e-06	-2.528041e-06	-6.155027e-09	-1.913877e+01	-4.130632e+02
1.230000e-06	-2.518692e-06	-6.141189e-09	-1.906799e+01	-4.122144e+02
1.240000e-06	-2.509295e-06	-6.129396e-09	-1.899685e+01	-4.113526e+02
1.250000e-06	-2.499837e-06	-6.118961e-09	-1.892525e+01	-4.104787e+02
1.260000e-06	-2.490312e-06	-6.108737e-09	-1.885314e+01	-4.095935e+02
1.270000e-06	-2.480725e-06	-6.092234e-09	-1.878056e+01	-4.086980e+02
1.280000e-06	-2.471091e-06	-6.073859e-09	-1.870762e+01	-4.077930e+02
1.290000e-06	-2.461390e-06	-6.051573e-09	-1.863419e+01	-4.068793e+02
1.300000e-06	-2.451620e-06	-6.032520e-09	-1.856022e+01	-4.059577e+02
1.310000e-06	-2.441781e-06	-6.015862e-09	-1.848574e+01	-4.050290e+02
1.320000e-06	-2.431851e-06	-6.002395e-09	-1.841056e+01	-4.040938e+02
1.330000e-06	-2.421832e-06	-5.991015e-09	-1.833471e+01	-4.031529e+02
1.340000e-06	-2.411745e-06	-5.975763e-09	-1.825834e+01	-4.022068e+02
1.350000e-06	-2.401613e-06	-5.961854e-09	-1.818164e+01	-4.012561e+02
1.360000e-06	-2.391446e-06	-5.945694e-09	-1.810466e+01	-4.003015e+02
1.370000e-06	-2.381224e-06	-5.929940e-09	-1.802728e+01	-3.993435e+02
1.380000e-06	-2.370938e-06	-5.911279e-09	-1.794941e+01	-3.983827e+02
1.390000e-06	-2.360583e-06	-5.890767e-09	-1.787102e+01	-3.974196e+02
1.400000e-06	-2.350177e-06	-5.872484e-09	-1.779224e+01	-3.964549e+02
1.410000e-06	-2.339708e-06	-5.854666e-09	-1.771298e+01	-3.954892e+02
1.420000e-06	-2.329187e-06	-5.840385e-09	-1.763333e+01	-3.945231e+02
1.430000e-06	-2.318628e-06	-5.826150e-09	-1.755339e+01	-3.935571e+02
1.440000e-06	-2.308000e-06	-5.816198e-09	-1.747293e+01	-3.925920e+02
1.450000e-06	-2.297288e-06	-5.808446e-09	-1.739183e+01	-3.916284e+02
1.460000e-06	-2.286501e-06	-5.797217e-09	-1.731017e+01	-3.906666e+02
1.470000e-06	-2.275646e-06	-5.782903e-09	-1.722799e+01	-3.897074e+02
1.480000e-06	-2.264729e-06	-5.766556e-09	-1.714535e+01	-3.887510e+02
1.490000e-06	-2.253777e-06	-5.751216e-09	-1.706243e+01	-3.877978e+02
1.500000e-06	-2.242780e-06	-5.732570e-09	-1.697918e+01	-3.868478e+02
1.510000e-06	-2.231714e-06	-5.712214e-09	-1.689540e+01	-3.859011e+02
1.520000e-06	-2.220592e-06	-5.691261e-09	-1.681120e+01	-3.849574e+02
1.530000e-06	-2.209425e-06	-5.673111e-09	-1.672666e+01	-3.840165e+02
1.540000e-06	-2.198205e-06	-5.663675e-09	-1.664172e+01	-3.830776e+02
1.550000e-06	-2.186932e-06	-5.654598e-09	-1.655637e+01	-3.821401e+02
1.560000e-06	-2.175606e-06	-5.642397e-09	-1.647063e+01	-3.812029e+02
1.570000e-06	-2.164227e-06	-5.627379e-09	-1.638448e+01	-3.802649e+02
1.580000e-06	-2.152788e-06	-5.613598e-09	-1.629788e+01	-3.793249e+02
1.590000e-06	-2.141259e-06	-5.599615e-09	-1.621061e+01	-3.783814e+02
1.600000e-06	-2.129647e-06	-5.582373e-09	-1.612270e+01	-3.774330e+02
1.610000e-06	-2.117974e-06	-5.564704e-09	-1.603432e+01	-3.764781e+02
1.620000e-06	-2.106248e-06	-5.546247e-09	-1.594555e+01	-3.755152e+02
1.630000e-06	-2.094483e-06	-5.531639e-09	-1.585648e+01	-3.745429e+02
1.640000e-06	-2.082659e-06	-5.518855e-09	-1.576697e+01	-3.735596e+02
1.650000e-06	-2.070777e-06	-5.503702e-09	-1.567701e+01	-3.725641e+02
1.660000e-06	-2.058848e-06	-5.486611e-09	-1.558670e+01	-3.715553e+02
1.670000e-06	-2.046879e-06	-5.470753e-09	-1.549609e+01	-3.705321e+02
1.680000e-06	-2.034857e-06	-5.455435e-09	-1.540508e+01	-3.694936e+02
1.690000e-06	-2.022774e-06	-5.436789e-09	-1.531360e+01	-3.684393e+02
1.700000e-06	-2.010650e-06	-5.415561e-09	-1.522182e+01	-3.673687e+02
1.710000e-06	-1.998484e-06	-5.392417e-09	-1.512971e+01	-3.662814e+02
1.720000e-06	-1.986266e-06	-5.373401e-09	-1.503721e+01	-3.651773e+02
1.730000e-06	-1.973971e-06	-5.358475e-09	-1.494414e+01	-3.640563e+02
1.740000e-06	-1.961597e-06	-5.343054e-09	-1.485046e+01	-3.629184e+02
1.750000e-06	-1.949172e-06	-5.324923e-09	-1.475639e+01	-3.617639e+02
1.760000e-06	-1.936699e-06	-5.304025e-09	-1.466196e+01	-3.605927e+02
1.770000e-06	-1.924182e-06	-5.284772e-09	-1.456720e+01	-3.594051e+02
1.780000e-06	-1.911626e-06	-5.264132e-09	-1.447215e+01	-3.582012e+02
1.790000e-06	-1.899037e-06	-5.244189e-09	-1.437684e+01	-3.569810e+02
1.800000e-06	-1.886399e-06	-5.225211e-09	-1.428116e+01	-3.557445e+02
1.810000e-06	-1.873703e-06	-5.203042e-09	-1.418505e+01	-3.544917e+02
1.820000e-06	-1.860961e-06	-5.183790e-09	-1.408858e+01	-3.532225e+02
1.830000e-06	-1.848168e-06	-5.163831e-09	-1.399173e+01	-3.519368e+02
1.840000e-06	-1.835324e-06	-5.141695e-09	-1.389449e+01	-3.506342e+02
1.850000e-06	-1.822441e-06	-5.122694e-09	-1.379696e+01	-3.493148e+02
1.860000e-06	-1.809540e-06	-5.105217e-09	-1.369929e+01	-3.479783e+02
1.870000e-06	-1.796599e-06	-5.086316e-09	-1.360133e+01	-3.466247e+02
1.880000e-06	-1.783596e-06	-5.062350e-09	-1.350288e+01	-3.452540e+02
1.890000e-06	-1.770540e-06	-5.036013e-09	-1.340404e+01	-3.438664e+02
1.900000e-06	-1.757409e-06	-5.008647e-09	-1.330463e+01	-3.424623e+02
1.910000e-06	-1.744222e-06	-4.983489e-09	-1.320480e+01	-3.410422e+02
1.920000e-06	-1.731000e-06	-4.961604e-09	-1.310470e+01	-3.396068e+02
1.930000e-06	-1.717724e-06	-4.941804e-09	-1.300419e+01	-3.381571e+02
1.940000e-06	-1.704404e-06	-4.922478e-09	-1.290335e+01	-3.366943e+02
1.950000e-06	-1.691052e-06	-4.898646e-09	-1.280227e+01	-3.352197e+02
1.960000e-06	-1.677673e-06	-4.875629e-09	-1.270098e+01	-3.337349e+02
1.970000e-06	-1.664257e-06	-4.852468e-09	-1.259942e+01	-3.322416e+02
1.980000e-06	-1.650788e-06	-4.824489e-09	-1.249745e+01	-3.307415e+02
1.990000e-06	-1.637264e-06	-4.794230e-09	-1.239507e+01	-3.292363e+02
2.000000e-06	-1.623700e-06	-4.766754e-09	-1.229237e+01	-3.277279e+02
2.010000e-06	-1.610116e-06	-4.742234e-09	-1.218953e+01	-3.262179e+02
2.020000e-06	-1.596483e-06	-4.720156e-09	-1.208632e+01	-3.247078e+02
2.030000e-06	-1.582804e-06	-4.700362e-09	-1.198277e+01	-3.231990e+02
2.040000e-06	-1.569095e-06	-4.679871e-09	-1.187898e+01	-3.216926e+02
2.050000e-06	-1.555347e-06	-4.660560e-09	-1.177490e+01	-3.201895e+02
2.060000e-06	-1.541579e-06	-4.642332e-09	-1.167067e+01	-3.186903e+02
2.070000e-06	-1.527769e-06	-4.622783e-09	-1.156612e+01	-3.171952e+02
2.080000e-06	-1.513896e-06	-4.599897e-09	-1.146109e+01	-3.157042e+02
2.090000e-06	-1.499980e-06	-4.574850e-09	-1.135574e+01	-3.142170e+02
2.100000e-06	-1.486009e-06	-4.551090e-09	-1.124997e+01	-3.127330e+02
2.110000e-06	-1.471975e-06	-4.525413e-09	-1.114373e+01	-3.112515e+02
2.120000e-06	-1.457903e-06	-4.500399e-09	-1.103719e+01	-3.097716e+02
2.130000e-06	-1.443794e-06	-4.477898e-09	-1.093038e+01	-3.082921e+02
2.140000e-06	-1.429648e-06	-4.458172e-09	-1.082328e+01	-3.068120e+02
2.150000e-06	-1.415468e-06	-4.440252e-09	-1.071593e+01	-3.053301e+02
2.160000e-06	-1.401255e-06	-4.420558e-09	-1.060833e+01	-3.038454e+02
2.170000e-06	-1.387008e-06	-4.399123e-09	-1.050047e+01	-3.023569e+02
2.180000e-06	-1.372703e-06	-4.375507e-09	-1.039218e+01	-3.008640e+02
2.190000e-06	-1.358368e-06	-4.353570e-09	-1.028365e+01	-2.993658e+02
2.200000e-06	-1.344021e-06	-4.332697e-09	-1.017504e+01	-2.978620e+02
2.210000e-06	-1.329625e-06	-4.310979e-09	-1.006606e+01	-2.963525e+02
2.220000e-06	-1.315184e-06	-4.289248e-09	-9.956722e+00	-2.948372e+02
2.230000e-06	-1.300706e-06	-4.268209e-09	-9.847116e+00	-2.933162e+02
2.240000e-06	-1.286189e-06	-4.247091e-09	-9.737215e+00	-2.917899e+02
2.250000e-06	-1.271626e-06	-4.225463e-09	-9.626968e+00	-2.902588e+02
2.260000e-06	-1.257021e-06	-4.204993e-09	-9.516393e+00	-2.887233e+02
2.270000e-06	-1.242381e-06	-4.182353e-09	-9.405564e+00	-2.871840e+02
2.280000e-06	-1.227712e-06	-4.157595e-09	-9.294512e+00	-2.856413e+02
2.290000e-06	-1.213012e-06	-4.135192e-09	-9.183224e+00	-2.840956e+02
2.300000e-06	-1.198288e-06	-4.112465e-09	-9.071749e+00	-2.825471e+02
2.310000e-06	-1.183544e-06	-4.087338e-09	-8.960133e+00	-2.809958e+02
2.320000e-06	-1.168771e-06	-4.059959e-09	-8.848290e+00	-2.794416e+02
2.330000e-06	-1.153970e-06	-4.033638e-09	-8.736239e+00	-2.778839e+02
2.340000e-06	-1.139148e-06	-4.011554e-09	-8.624025e+00	-2.763220e+02
2.350000e-06	-1.124302e-06	-3.990176e-09	-8.511633e+00	-2.747550e+02
2.360000e-06	-1.109425e-06	-3.969105e-09	-8.399010e+00	-2.731815e+02
2.370000e-06	-1.094515e-06	-3.949468e-09	-8.286128e+00	-2.716001e+02
2.380000e-06	-1.079583e-06	-3.930096e-09	-8.173088e+00	-2.700091e+02
2.390000e-06	-1.064638e-06	-3.908501e-09	-8.059939e+00	-2.684067e+02
2.400000e-06	-1.049676e-06	-3.883680e-09	-7.946668e+00	-2.667911e+02
2.410000e-06	-1.034691e-06	-3.855786e-09	-7.833225e+00	-2.651602e+02
2.420000e-06	-1.019686e-06	-3.829368e-09	-7.719630e+00	-2.635123e+02
2.430000e-06	-1.004664e-06	-3.807251e-09	-7.605907e+00	-2.618454e+02
2.440000e-06	-9.896104e-07	-3.786256e-09	-7.491939e+00	-2.601581e+02
2.450000e-06	-9.745351e-07	-3.763200e-09	-7.377810e+00	-2.584487e+02
2.460000e-06	-9.594425e-07	-3.736760e-09	-7.263550e+00	-2.567161e+02
2.470000e-06	-9.443128e-07	-3.711348e-09	-7.149009e+00	-2.549595e+02
2.480000e-06	-9.291550e-07	-3.685315e-09	-7.034255e+00	-2.531782e+02
2.490000e-06	-9.139799e-07	-3.655956e-09	-6.919371e+00	-2.513720e+02
2.500000e-06	-8.987815e-07	-3.628897e-09	-6.804310e+00	-2.495409e+02
2.510000e-06	-8.835651e-07	-3.605600e-09	-6.689113e+00	-2.476855e+02
2.520000e-06	-8.683172e-07	-3.581413e-09	-6.573677e+00	-2.458063e+02
2.530000e-06	-8.530543e-07	-3.553109e-09	-6.458128e+00	-2.439045e+02
2.540000e-06	-8.377752e-07	-3.523232e-09	-6.342456e+00	-2.419814e+02
2.550000e-06	-8.224597e-07	-3.497754e-09	-6.226509e+00	-2.400384e+02
2.560000e-06	-8.071363e-07	-3.473511e-09	-6.110502e+00	-2.380773e+02
2.570000e-06	-7.917893e-07	-3.445256e-09	-5.994316e+00	-2.361000e+02
2.580000e-06	-7.764089e-07	-3.415379e-09	-5.877877e+00	-2.341083e+02
2.590000e-06	-7.610139e-07	-3.384431e-09	-5.761328e+00	-2.321043e+02
2.600000e-06	-7.455924e-07	-3.353548e-09	-5.644578e+00	-2.300900e+02
2.610000e-06	-7.301446e-07	-3.320317e-09	-5.527629e+00	-2.280673e+02
2.620000e-06	-7.146729e-07	-3.285701e-09	-5.410499e+00	-2.260383e+02
2.630000e-06	-6.991714e-07	-3.254998e-09	-5.293143e+00	-2.240046e+02
2.640000e-06	-6.836538e-07	-3.226834e-09	-5.175666e+00	-2.219679e+02
2.650000e-06	-6.681257e-07	-3.200309e-09	-5.058109e+00	-2.199299e+02
2.660000e-06	-6.525651e-07	-3.172780e-09	-4.940306e+00	-2.178917e+02
2.670000e-06	-6.369679e-07	-3.145523e-09	-4.822225e+00	-2.158546e+02
2.680000e-06	-6.213521e-07	-3.118596e-09	-4.704005e+00	-2.138195e+02
2.690000e-06	-6.057183e-07	-3.088482e-09	-4.585648e+00	-2.117869e+02
2.700000e-06	-5.900716e-07	-3.056942e-09	-4.467193e+00	-2.097575e+02
2.710000e-06	-5.744088e-07	-3.025907e-09	-4.348616e+00	-2.077314e+02
2.720000e-06	-5.587132e-07	-2.995668e-09	-4.229791e+00	-2.057087e+02
2.730000e-06	-5.430104e-07	-2.966416e-09	-4.110912e+00	-2.036890e+02
2.740000e-06	-5.273016e-07	-2.935746e-09	-3.991987e+00	-2.016720e+02
2.750000e-06	-5.115796e-07	-2.906181e-09	-3.872962e+00	-1.996570e+02
2.760000e-06	-4.958457e-07	-2.881030e-09	-3.753847e+00	-1.976430e+02
2.770000e-06	-4.800970e-07	-2.856962e-09	-3.634620e+00	-1.956291e+02
2.780000e-06	-4.643466e-07	-2.829996e-09	-3.515380e+00	-1.936141e+02
2.790000e-06	-4.485896e-07	-2.803266e-09	-3.396090e+00	-1.915966e+02
2.800000e-06	-4.328225e-07	-2.778101e-09	-3.276724e+00	-1.895754e+02
2.810000e-06	-4.170495e-07	-2.749601e-09	-3.157313e+00	-1.875489e+02
2.820000e-06	-4.012605e-07	-2.717319e-09	-3.037780e+00	-1.855157e+02
2.830000e-06	-3.854606e-07	-2.682290e-09	-2.918166e+00	-1.834744e+02
2.840000e-06	-3.696672e-07	-2.649206e-09	-2.798601e+00	-1.814236e+02
