# Temperatura_=_20.0
# Concentracion g/m^3_=_10000.0
# C_Vs_to_Am_M_A/Vsm_=_65563218390.804596
# pendiente_HvsI_1/m_=_3716.3
# ordenada_HvsI_A/m_=_1297.0
# frecuencia_Hz_=_81162.5724999356

Tiempo_(s)	Campo_(V.s)	Magnetizacion_(V.s)	Campo_(kA/m)	Magnetizacion_(A/m)
0.000000e+00	-3.111062e-06	-7.069851e-09	-2.356068e+01	-4.590950e+02
1.000000e-08	-3.111034e-06	-7.073340e-09	-2.356046e+01	-4.590926e+02
2.000000e-08	-3.111132e-06	-7.033510e-09	-2.356121e+01	-4.590766e+02
3.000000e-08	-3.111166e-06	-7.046503e-09	-2.356147e+01	-4.590478e+02
4.000000e-08	-3.111027e-06	-7.052836e-09	-2.356041e+01	-4.590072e+02
5.000000e-08	-3.110747e-06	-7.017990e-09	-2.355829e+01	-4.589558e+02
6.000000e-08	-3.110378e-06	-7.028799e-09	-2.355550e+01	-4.588949e+02
7.000000e-08	-3.109890e-06	-7.034583e-09	-2.355180e+01	-4.588258e+02
8.000000e-08	-3.109260e-06	-7.026241e-09	-2.354703e+01	-4.587500e+02
9.000000e-08	-3.108551e-06	-7.021212e-09	-2.354166e+01	-4.586686e+02
1.000000e-07	-3.107787e-06	-7.021625e-09	-2.353588e+01	-4.585830e+02
1.100000e-07	-3.107055e-06	-7.033278e-09	-2.353033e+01	-4.584944e+02
1.200000e-07	-3.106232e-06	-7.018722e-09	-2.352410e+01	-4.584037e+02
1.300000e-07	-3.105309e-06	-7.014253e-09	-2.351711e+01	-4.583117e+02
1.400000e-07	-3.104324e-06	-7.020037e-09	-2.350965e+01	-4.582192e+02
1.500000e-07	-3.103245e-06	-7.021810e-09	-2.350148e+01	-4.581265e+02
1.600000e-07	-3.102062e-06	-7.002740e-09	-2.349252e+01	-4.580339e+02
1.700000e-07	-3.100750e-06	-6.984599e-09	-2.348259e+01	-4.579415e+02
1.800000e-07	-3.099416e-06	-7.005936e-09	-2.347248e+01	-4.578492e+02
1.900000e-07	-3.097998e-06	-7.002111e-09	-2.346174e+01	-4.577568e+02
2.000000e-07	-3.096434e-06	-6.992362e-09	-2.344990e+01	-4.576641e+02
2.100000e-07	-3.094709e-06	-6.987633e-09	-2.343683e+01	-4.575706e+02
2.200000e-07	-3.092919e-06	-6.992135e-09	-2.342327e+01	-4.574760e+02
2.300000e-07	-3.091118e-06	-6.999030e-09	-2.340963e+01	-4.573799e+02
2.400000e-07	-3.089212e-06	-6.987653e-09	-2.339521e+01	-4.572818e+02
2.500000e-07	-3.087230e-06	-6.982269e-09	-2.338020e+01	-4.571816e+02
2.600000e-07	-3.085177e-06	-6.973728e-09	-2.336464e+01	-4.570788e+02
2.700000e-07	-3.083053e-06	-6.984558e-09	-2.334856e+01	-4.569733e+02
2.800000e-07	-3.080842e-06	-6.985673e-09	-2.333182e+01	-4.568649e+02
2.900000e-07	-3.078541e-06	-6.976677e-09	-2.331439e+01	-4.567534e+02
3.000000e-07	-3.076201e-06	-6.969803e-09	-2.329667e+01	-4.566386e+02
3.100000e-07	-3.073786e-06	-6.965229e-09	-2.327838e+01	-4.565205e+02
3.200000e-07	-3.071312e-06	-6.975124e-09	-2.325964e+01	-4.563989e+02
3.300000e-07	-3.068765e-06	-6.965365e-09	-2.324036e+01	-4.562735e+02
3.400000e-07	-3.066147e-06	-6.952295e-09	-2.322053e+01	-4.561439e+02
3.500000e-07	-3.063421e-06	-6.942919e-09	-2.319989e+01	-4.560099e+02
3.600000e-07	-3.060549e-06	-6.942996e-09	-2.317814e+01	-4.558708e+02
3.700000e-07	-3.057610e-06	-6.946870e-09	-2.315588e+01	-4.557261e+02
3.800000e-07	-3.054608e-06	-6.940540e-09	-2.313314e+01	-4.555751e+02
3.900000e-07	-3.051539e-06	-6.936453e-09	-2.310990e+01	-4.554168e+02
4.000000e-07	-3.048379e-06	-6.931490e-09	-2.308596e+01	-4.552504e+02
4.100000e-07	-3.045166e-06	-6.935123e-09	-2.306164e+01	-4.550749e+02
4.200000e-07	-3.041909e-06	-6.923732e-09	-2.303697e+01	-4.548894e+02
4.300000e-07	-3.038574e-06	-6.901875e-09	-2.301171e+01	-4.546929e+02
4.400000e-07	-3.035172e-06	-6.895761e-09	-2.298595e+01	-4.544845e+02
4.500000e-07	-3.031667e-06	-6.897242e-09	-2.295940e+01	-4.542634e+02
4.600000e-07	-3.028056e-06	-6.901332e-09	-2.293206e+01	-4.540288e+02
4.700000e-07	-3.024352e-06	-6.890572e-09	-2.290401e+01	-4.537802e+02
4.800000e-07	-3.020575e-06	-6.885614e-09	-2.287540e+01	-4.535173e+02
4.900000e-07	-3.016731e-06	-6.887840e-09	-2.284629e+01	-4.532399e+02
5.000000e-07	-3.012816e-06	-6.883268e-09	-2.281664e+01	-4.529479e+02
5.100000e-07	-3.008829e-06	-6.868311e-09	-2.278645e+01	-4.526417e+02
5.200000e-07	-3.004752e-06	-6.844019e-09	-2.275557e+01	-4.523214e+02
5.300000e-07	-3.000615e-06	-6.838734e-09	-2.272424e+01	-4.519877e+02
5.400000e-07	-2.996414e-06	-6.840151e-09	-2.269243e+01	-4.516411e+02
5.500000e-07	-2.992115e-06	-6.841026e-09	-2.265987e+01	-4.512824e+02
5.600000e-07	-2.987704e-06	-6.836494e-09	-2.262646e+01	-4.509124e+02
5.700000e-07	-2.983195e-06	-6.832335e-09	-2.259232e+01	-4.505318e+02
5.800000e-07	-2.978622e-06	-6.832675e-09	-2.255769e+01	-4.501413e+02
5.900000e-07	-2.973969e-06	-6.820981e-09	-2.252244e+01	-4.497417e+02
6.000000e-07	-2.969228e-06	-6.804561e-09	-2.248654e+01	-4.493336e+02
6.100000e-07	-2.964416e-06	-6.787715e-09	-2.245010e+01	-4.489174e+02
6.200000e-07	-2.959543e-06	-6.784900e-09	-2.241320e+01	-4.484936e+02
6.300000e-07	-2.954611e-06	-6.784222e-09	-2.237584e+01	-4.480625e+02
6.400000e-07	-2.949582e-06	-6.777400e-09	-2.233776e+01	-4.476243e+02
6.500000e-07	-2.944446e-06	-6.772520e-09	-2.229886e+01	-4.471791e+02
6.600000e-07	-2.939197e-06	-6.765133e-09	-2.225911e+01	-4.467270e+02
6.700000e-07	-2.933848e-06	-6.761286e-09	-2.221860e+01	-4.462682e+02
6.800000e-07	-2.928421e-06	-6.750712e-09	-2.217750e+01	-4.458028e+02
6.900000e-07	-2.922919e-06	-6.739051e-09	-2.213584e+01	-4.453308e+02
7.000000e-07	-2.917352e-06	-6.728525e-09	-2.209367e+01	-4.448528e+02
7.100000e-07	-2.911710e-06	-6.720721e-09	-2.205095e+01	-4.443690e+02
7.200000e-07	-2.906015e-06	-6.716707e-09	-2.200782e+01	-4.438800e+02
7.300000e-07	-2.900258e-06	-6.704172e-09	-2.196422e+01	-4.433867e+02
7.400000e-07	-2.894419e-06	-6.693774e-09	-2.191999e+01	-4.428898e+02
7.500000e-07	-2.888468e-06	-6.681846e-09	-2.187493e+01	-4.423906e+02
7.600000e-07	-2.882409e-06	-6.673729e-09	-2.182905e+01	-4.418901e+02
7.700000e-07	-2.876294e-06	-6.666243e-09	-2.178273e+01	-4.413896e+02
7.800000e-07	-2.870117e-06	-6.659228e-09	-2.173596e+01	-4.408906e+02
7.900000e-07	-2.863876e-06	-6.656837e-09	-2.168869e+01	-4.403944e+02
8.000000e-07	-2.857569e-06	-6.648156e-09	-2.164092e+01	-4.399022e+02
8.100000e-07	-2.851198e-06	-6.637604e-09	-2.159268e+01	-4.394152e+02
8.200000e-07	-2.844747e-06	-6.620124e-09	-2.154382e+01	-4.389344e+02
8.300000e-07	-2.838223e-06	-6.606407e-09	-2.149442e+01	-4.384606e+02
8.400000e-07	-2.831651e-06	-6.599796e-09	-2.144464e+01	-4.379942e+02
8.500000e-07	-2.824985e-06	-6.591915e-09	-2.139416e+01	-4.375353e+02
8.600000e-07	-2.818224e-06	-6.587140e-09	-2.134296e+01	-4.370837e+02
8.700000e-07	-2.811375e-06	-6.582768e-09	-2.129109e+01	-4.366389e+02
8.800000e-07	-2.804460e-06	-6.580554e-09	-2.123872e+01	-4.362000e+02
8.900000e-07	-2.797491e-06	-6.572810e-09	-2.118594e+01	-4.357656e+02
9.000000e-07	-2.790458e-06	-6.560000e-09	-2.113268e+01	-4.353342e+02
9.100000e-07	-2.783352e-06	-6.548156e-09	-2.107887e+01	-4.349041e+02
9.200000e-07	-2.776155e-06	-6.539492e-09	-2.102436e+01	-4.344731e+02
9.300000e-07	-2.768907e-06	-6.533867e-09	-2.096947e+01	-4.340394e+02
9.400000e-07	-2.761607e-06	-6.524296e-09	-2.091419e+01	-4.336006e+02
9.500000e-07	-2.754252e-06	-6.517122e-09	-2.085848e+01	-4.331548e+02
9.600000e-07	-2.746827e-06	-6.510151e-09	-2.080225e+01	-4.327000e+02
9.700000e-07	-2.739287e-06	-6.503974e-09	-2.074515e+01	-4.322342e+02
9.800000e-07	-2.731653e-06	-6.496313e-09	-2.068734e+01	-4.317561e+02
9.900000e-07	-2.723930e-06	-6.486417e-09	-2.062885e+01	-4.312643e+02
1.000000e-06	-2.716128e-06	-6.478517e-09	-2.056976e+01	-4.307578e+02
1.010000e-06	-2.708257e-06	-6.465232e-09	-2.051016e+01	-4.302360e+02
1.020000e-06	-2.700324e-06	-6.450597e-09	-2.045008e+01	-4.296986e+02
1.030000e-06	-2.692312e-06	-6.435677e-09	-2.038940e+01	-4.291457e+02
1.040000e-06	-2.684206e-06	-6.425109e-09	-2.032802e+01	-4.285774e+02
1.050000e-06	-2.676012e-06	-6.417565e-09	-2.026596e+01	-4.279943e+02
1.060000e-06	-2.667744e-06	-6.406864e-09	-2.020334e+01	-4.273972e+02
1.070000e-06	-2.659419e-06	-6.396727e-09	-2.014030e+01	-4.267867e+02
1.080000e-06	-2.651031e-06	-6.386666e-09	-2.007677e+01	-4.261639e+02
1.090000e-06	-2.642582e-06	-6.380044e-09	-2.001279e+01	-4.255295e+02
1.100000e-06	-2.634078e-06	-6.368581e-09	-1.994839e+01	-4.248844e+02
1.110000e-06	-2.625524e-06	-6.350837e-09	-1.988360e+01	-4.242292e+02
1.120000e-06	-2.616918e-06	-6.335390e-09	-1.981843e+01	-4.235644e+02
1.130000e-06	-2.608244e-06	-6.322246e-09	-1.975274e+01	-4.228905e+02
1.140000e-06	-2.599508e-06	-6.309156e-09	-1.968658e+01	-4.222074e+02
1.150000e-06	-2.590709e-06	-6.292243e-09	-1.961994e+01	-4.215151e+02
1.160000e-06	-2.581855e-06	-6.276338e-09	-1.955289e+01	-4.208135e+02
1.170000e-06	-2.572941e-06	-6.266571e-09	-1.948539e+01	-4.201019e+02
1.180000e-06	-2.563974e-06	-6.261137e-09	-1.941747e+01	-4.193799e+02
1.190000e-06	-2.554950e-06	-6.252397e-09	-1.934913e+01	-4.186468e+02
1.200000e-06	-2.545812e-06	-6.237365e-09	-1.927993e+01	-4.179019e+02
1.210000e-06	-2.536572e-06	-6.219771e-09	-1.920995e+01	-4.171446e+02
1.220000e-06	-2.527268e-06	-6.202771e-09	-1.913949e+01	-4.163743e+02
1.230000e-06	-2.517916e-06	-6.185169e-09	-1.906867e+01	-4.155904e+02
1.240000e-06	-2.508518e-06	-6.166393e-09	-1.899749e+01	-4.147927e+02
1.250000e-06	-2.499050e-06	-6.153830e-09	-1.892579e+01	-4.139810e+02
1.260000e-06	-2.489529e-06	-6.145555e-09	-1.885369e+01	-4.131554e+02
1.270000e-06	-2.479955e-06	-6.134765e-09	-1.878118e+01	-4.123161e+02
1.280000e-06	-2.470321e-06	-6.119637e-09	-1.870822e+01	-4.114636e+02
1.290000e-06	-2.460619e-06	-6.100613e-09	-1.863474e+01	-4.105985e+02
1.300000e-06	-2.450855e-06	-6.082372e-09	-1.856080e+01	-4.097217e+02
1.310000e-06	-2.441038e-06	-6.064581e-09	-1.848645e+01	-4.088341e+02
1.320000e-06	-2.431113e-06	-6.044413e-09	-1.841129e+01	-4.079367e+02
1.330000e-06	-2.421084e-06	-6.026057e-09	-1.833534e+01	-4.070306e+02
1.340000e-06	-2.411001e-06	-6.012131e-09	-1.825898e+01	-4.061169e+02
1.350000e-06	-2.400878e-06	-6.001807e-09	-1.818231e+01	-4.051964e+02
1.360000e-06	-2.390709e-06	-5.991173e-09	-1.810531e+01	-4.042703e+02
1.370000e-06	-2.380482e-06	-5.979379e-09	-1.802785e+01	-4.033393e+02
1.380000e-06	-2.370201e-06	-5.967454e-09	-1.794999e+01	-4.024041e+02
1.390000e-06	-2.359857e-06	-5.950469e-09	-1.787165e+01	-4.014652e+02
1.400000e-06	-2.349457e-06	-5.927709e-09	-1.779289e+01	-4.005231e+02
1.410000e-06	-2.339002e-06	-5.903156e-09	-1.771372e+01	-3.995782e+02
1.420000e-06	-2.328497e-06	-5.878772e-09	-1.763416e+01	-3.986305e+02
1.430000e-06	-2.317947e-06	-5.862858e-09	-1.755427e+01	-3.976802e+02
1.440000e-06	-2.307328e-06	-5.855745e-09	-1.747385e+01	-3.967275e+02
1.450000e-06	-2.296624e-06	-5.852271e-09	-1.739278e+01	-3.957723e+02
1.460000e-06	-2.285821e-06	-5.848232e-09	-1.731097e+01	-3.948148e+02
1.470000e-06	-2.274942e-06	-5.837203e-09	-1.722858e+01	-3.938551e+02
1.480000e-06	-2.264022e-06	-5.818864e-09	-1.714588e+01	-3.928934e+02
1.490000e-06	-2.253072e-06	-5.793810e-09	-1.706295e+01	-3.919300e+02
1.500000e-06	-2.242074e-06	-5.770671e-09	-1.697966e+01	-3.909652e+02
1.510000e-06	-2.231018e-06	-5.752246e-09	-1.689593e+01	-3.899996e+02
1.520000e-06	-2.219914e-06	-5.736542e-09	-1.681184e+01	-3.890336e+02
1.530000e-06	-2.208756e-06	-5.722810e-09	-1.672734e+01	-3.880677e+02
1.540000e-06	-2.197540e-06	-5.713467e-09	-1.664240e+01	-3.871025e+02
1.550000e-06	-2.186274e-06	-5.705663e-09	-1.655708e+01	-3.861382e+02
1.560000e-06	-2.174962e-06	-5.691153e-09	-1.647141e+01	-3.851753e+02
1.570000e-06	-2.163591e-06	-5.672613e-09	-1.638530e+01	-3.842137e+02
1.580000e-06	-2.152153e-06	-5.655494e-09	-1.629867e+01	-3.832536e+02
1.590000e-06	-2.140644e-06	-5.641313e-09	-1.621151e+01	-3.822943e+02
1.600000e-06	-2.129054e-06	-5.626505e-09	-1.612374e+01	-3.813352e+02
1.610000e-06	-2.117391e-06	-5.612185e-09	-1.603541e+01	-3.803754e+02
1.620000e-06	-2.105673e-06	-5.597403e-09	-1.594667e+01	-3.794134e+02
1.630000e-06	-2.093911e-06	-5.580347e-09	-1.585759e+01	-3.784475e+02
1.640000e-06	-2.082112e-06	-5.564566e-09	-1.576824e+01	-3.774758e+02
1.650000e-06	-2.070256e-06	-5.549133e-09	-1.567845e+01	-3.764959e+02
1.660000e-06	-2.058333e-06	-5.534010e-09	-1.558816e+01	-3.755054e+02
1.670000e-06	-2.046348e-06	-5.517996e-09	-1.549739e+01	-3.745017e+02
1.680000e-06	-2.034309e-06	-5.499999e-09	-1.540622e+01	-3.734821e+02
1.690000e-06	-2.022236e-06	-5.481813e-09	-1.531479e+01	-3.724441e+02
1.700000e-06	-2.010133e-06	-5.462450e-09	-1.522313e+01	-3.713851e+02
1.710000e-06	-1.997990e-06	-5.442737e-09	-1.513116e+01	-3.703029e+02
1.720000e-06	-1.985787e-06	-5.426015e-09	-1.503875e+01	-3.691956e+02
1.730000e-06	-1.973515e-06	-5.413646e-09	-1.494582e+01	-3.680617e+02
1.740000e-06	-1.961176e-06	-5.399364e-09	-1.485237e+01	-3.668999e+02
1.750000e-06	-1.948759e-06	-5.379757e-09	-1.475833e+01	-3.657098e+02
1.760000e-06	-1.936284e-06	-5.357196e-09	-1.466386e+01	-3.644911e+02
1.770000e-06	-1.923771e-06	-5.334930e-09	-1.456909e+01	-3.632444e+02
1.780000e-06	-1.911222e-06	-5.314673e-09	-1.447406e+01	-3.619704e+02
1.790000e-06	-1.898635e-06	-5.293494e-09	-1.437873e+01	-3.606706e+02
1.800000e-06	-1.885993e-06	-5.269109e-09	-1.428300e+01	-3.593466e+02
1.810000e-06	-1.873306e-06	-5.244534e-09	-1.418691e+01	-3.580004e+02
1.820000e-06	-1.860576e-06	-5.226417e-09	-1.409051e+01	-3.566344e+02
1.830000e-06	-1.847795e-06	-5.209637e-09	-1.399371e+01	-3.552509e+02
1.840000e-06	-1.834967e-06	-5.187327e-09	-1.389656e+01	-3.538522e+02
1.850000e-06	-1.822102e-06	-5.163411e-09	-1.379913e+01	-3.524409e+02
1.860000e-06	-1.809202e-06	-5.142002e-09	-1.370144e+01	-3.510190e+02
1.870000e-06	-1.796263e-06	-5.121984e-09	-1.360345e+01	-3.495885e+02
1.880000e-06	-1.783271e-06	-5.097731e-09	-1.350506e+01	-3.481510e+02
1.890000e-06	-1.770223e-06	-5.072357e-09	-1.340624e+01	-3.467080e+02
1.900000e-06	-1.757120e-06	-5.044818e-09	-1.330701e+01	-3.452603e+02
1.910000e-06	-1.743961e-06	-5.016325e-09	-1.320736e+01	-3.438085e+02
1.920000e-06	-1.730749e-06	-4.992232e-09	-1.310730e+01	-3.423529e+02
1.930000e-06	-1.717479e-06	-4.970638e-09	-1.300681e+01	-3.408935e+02
1.940000e-06	-1.704161e-06	-4.954295e-09	-1.290594e+01	-3.394298e+02
1.950000e-06	-1.690815e-06	-4.938886e-09	-1.280487e+01	-3.379613e+02
1.960000e-06	-1.677448e-06	-4.919153e-09	-1.270364e+01	-3.364874e+02
1.970000e-06	-1.664054e-06	-4.896547e-09	-1.260220e+01	-3.350074e+02
1.980000e-06	-1.650612e-06	-4.866892e-09	-1.250040e+01	-3.335205e+02
1.990000e-06	-1.637123e-06	-4.834429e-09	-1.239825e+01	-3.320263e+02
2.000000e-06	-1.623590e-06	-4.805343e-09	-1.229576e+01	-3.305243e+02
2.010000e-06	-1.609996e-06	-4.781090e-09	-1.219281e+01	-3.290143e+02
2.020000e-06	-1.596358e-06	-4.763005e-09	-1.208953e+01	-3.274965e+02
2.030000e-06	-1.582685e-06	-4.746796e-09	-1.198598e+01	-3.259711e+02
2.040000e-06	-1.568976e-06	-4.729578e-09	-1.188216e+01	-3.244389e+02
2.050000e-06	-1.555247e-06	-4.710273e-09	-1.177819e+01	-3.229007e+02
2.060000e-06	-1.541497e-06	-4.689487e-09	-1.167406e+01	-3.213576e+02
2.070000e-06	-1.527708e-06	-4.663808e-09	-1.156963e+01	-3.198110e+02
2.080000e-06	-1.513859e-06	-4.634889e-09	-1.146475e+01	-3.182623e+02
2.090000e-06	-1.499950e-06	-4.607017e-09	-1.135941e+01	-3.167129e+02
2.100000e-06	-1.485972e-06	-4.582060e-09	-1.125355e+01	-3.151642e+02
2.110000e-06	-1.471940e-06	-4.560266e-09	-1.114729e+01	-3.136176e+02
2.120000e-06	-1.457872e-06	-4.539919e-09	-1.104075e+01	-3.120741e+02
2.130000e-06	-1.443756e-06	-4.522093e-09	-1.093384e+01	-3.105348e+02
2.140000e-06	-1.429600e-06	-4.502499e-09	-1.082664e+01	-3.090000e+02
2.150000e-06	-1.415428e-06	-4.480360e-09	-1.071931e+01	-3.074702e+02
2.160000e-06	-1.401231e-06	-4.456832e-09	-1.061180e+01	-3.059451e+02
2.170000e-06	-1.386996e-06	-4.428525e-09	-1.050399e+01	-3.044244e+02
2.180000e-06	-1.372717e-06	-4.401781e-09	-1.039585e+01	-3.029073e+02
2.190000e-06	-1.358402e-06	-4.382578e-09	-1.028744e+01	-3.013926e+02
2.200000e-06	-1.344052e-06	-4.367316e-09	-1.017877e+01	-2.998789e+02
2.210000e-06	-1.329649e-06	-4.348576e-09	-1.006969e+01	-2.983649e+02
2.220000e-06	-1.315214e-06	-4.325222e-09	-9.960369e+00	-2.968486e+02
2.230000e-06	-1.300740e-06	-4.302424e-09	-9.850758e+00	-2.953285e+02
2.240000e-06	-1.286210e-06	-4.281223e-09	-9.740722e+00	-2.938027e+02
2.250000e-06	-1.271638e-06	-4.260401e-09	-9.630364e+00	-2.922697e+02
2.260000e-06	-1.257039e-06	-4.236090e-09	-9.519803e+00	-2.907280e+02
2.270000e-06	-1.242407e-06	-4.210958e-09	-9.408987e+00	-2.891762e+02
2.280000e-06	-1.227735e-06	-4.190308e-09	-9.297879e+00	-2.876134e+02
2.290000e-06	-1.213036e-06	-4.171600e-09	-9.186556e+00	-2.860388e+02
2.300000e-06	-1.198315e-06	-4.150405e-09	-9.075074e+00	-2.844520e+02
2.310000e-06	-1.183577e-06	-4.128232e-09	-8.963462e+00	-2.828527e+02
2.320000e-06	-1.168802e-06	-4.105923e-09	-8.851566e+00	-2.812410e+02
2.330000e-06	-1.154001e-06	-4.080445e-09	-8.739475e+00	-2.796171e+02
2.340000e-06	-1.139187e-06	-4.054288e-09	-8.627282e+00	-2.779816e+02
2.350000e-06	-1.124348e-06	-4.026994e-09	-8.514907e+00	-2.763349e+02
2.360000e-06	-1.109480e-06	-4.000243e-09	-8.402304e+00	-2.746777e+02
2.370000e-06	-1.094583e-06	-3.977329e-09	-8.289493e+00	-2.730107e+02
2.380000e-06	-1.079676e-06	-3.954860e-09	-8.176595e+00	-2.713342e+02
2.390000e-06	-1.064748e-06	-3.930347e-09	-8.063547e+00	-2.696489e+02
2.400000e-06	-1.049784e-06	-3.902862e-09	-7.950219e+00	-2.679548e+02
2.410000e-06	-1.034793e-06	-3.876898e-09	-7.836692e+00	-2.662521e+02
2.420000e-06	-1.019788e-06	-3.852456e-09	-7.723052e+00	-2.645406e+02
2.430000e-06	-1.004762e-06	-3.825270e-09	-7.609257e+00	-2.628198e+02
2.440000e-06	-9.897105e-07	-3.797314e-09	-7.495270e+00	-2.610892e+02
2.450000e-06	-9.746317e-07	-3.770853e-09	-7.381075e+00	-2.593479e+02
2.460000e-06	-9.595175e-07	-3.745225e-09	-7.266613e+00	-2.575950e+02
2.470000e-06	-9.443887e-07	-3.717739e-09	-7.152040e+00	-2.558293e+02
2.480000e-06	-9.292491e-07	-3.689883e-09	-7.037384e+00	-2.540496e+02
2.490000e-06	-9.140861e-07	-3.664204e-09	-6.922552e+00	-2.522547e+02
2.500000e-06	-8.988983e-07	-3.640021e-09	-6.807532e+00	-2.504436e+02
2.510000e-06	-8.836850e-07	-3.615946e-09	-6.692319e+00	-2.486151e+02
2.520000e-06	-8.684468e-07	-3.589216e-09	-6.576916e+00	-2.467684e+02
2.530000e-06	-8.531899e-07	-3.560026e-09	-6.461373e+00	-2.449029e+02
2.540000e-06	-8.379072e-07	-3.530943e-09	-6.345634e+00	-2.430181e+02
2.550000e-06	-8.225979e-07	-3.504109e-09	-6.229694e+00	-2.411140e+02
2.560000e-06	-8.072725e-07	-3.477276e-09	-6.113632e+00	-2.391906e+02
2.570000e-06	-7.919247e-07	-3.448521e-09	-5.997400e+00	-2.372484e+02
2.580000e-06	-7.765609e-07	-3.419883e-09	-5.881047e+00	-2.352882e+02
2.590000e-06	-7.611831e-07	-3.391340e-09	-5.764587e+00	-2.333109e+02
2.600000e-06	-7.457735e-07	-3.361423e-09	-5.647887e+00	-2.313179e+02
2.610000e-06	-7.303364e-07	-3.328397e-09	-5.530979e+00	-2.293105e+02
2.620000e-06	-7.148847e-07	-3.295209e-09	-5.413961e+00	-2.272903e+02
2.630000e-06	-6.994101e-07	-3.265853e-09	-5.296769e+00	-2.252589e+02
2.640000e-06	-6.839028e-07	-3.238848e-09	-5.179329e+00	-2.232180e+02
2.650000e-06	-6.683637e-07	-3.210188e-09	-5.061648e+00	-2.211694e+02
2.660000e-06	-6.528034e-07	-3.181111e-09	-4.943807e+00	-2.191145e+02
2.670000e-06	-6.372092e-07	-3.154867e-09	-4.825709e+00	-2.170549e+02
2.680000e-06	-6.215889e-07	-3.126658e-09	-4.707414e+00	-2.149920e+02
2.690000e-06	-6.059525e-07	-3.093100e-09	-4.588996e+00	-2.129269e+02
2.700000e-06	-5.903011e-07	-3.058649e-09	-4.470465e+00	-2.108607e+02
2.710000e-06	-5.746352e-07	-3.027729e-09	-4.351824e+00	-2.087940e+02
2.720000e-06	-5.589456e-07	-2.998367e-09	-4.233004e+00	-2.067274e+02
2.730000e-06	-5.432457e-07	-2.966611e-09	-4.114105e+00	-2.046614e+02
2.740000e-06	-5.275384e-07	-2.934797e-09	-3.995151e+00	-2.025959e+02
2.750000e-06	-5.118193e-07	-2.904332e-09	-3.876107e+00	-2.005310e+02
2.760000e-06	-4.960876e-07	-2.876233e-09	-3.756968e+00	-1.984665e+02
2.770000e-06	-4.803447e-07	-2.848856e-09	-3.637744e+00	-1.964019e+02
2.780000e-06	-4.645988e-07	-2.819523e-09	-3.518497e+00	-1.943367e+02
2.790000e-06	-4.488494e-07	-2.793224e-09	-3.399224e+00	-1.922704e+02
2.800000e-06	-4.330897e-07	-2.767848e-09	-3.279872e+00	-1.902022e+02
2.810000e-06	-4.173188e-07	-2.739408e-09	-3.160437e+00	-1.881314e+02
2.820000e-06	-4.015465e-07	-2.708468e-09	-3.040990e+00	-1.860571e+02
2.830000e-06	-3.857695e-07	-2.676693e-09	-2.921507e+00	-1.839785e+02
2.840000e-06	-3.699811e-07	-2.643708e-09	-2.801939e+00	-1.818948e+02
2.850000e-06	-3.541865e-07	-2.613314e-09	-2.682323e+00	-1.798051e+02
