# Temperatura_=_20.0
# Concentracion g/m^3_=_10000.0
# C_Vs_to_Am_M_A/Vsm_=_65563218390.804596
# pendiente_HvsI_1/m_=_3716.3
# ordenada_HvsI_A/m_=_1297.0
# frecuencia_Hz_=_81162.44434544968

Tiempo_(s)	Campo_(V.s)	Magnetizacion_(V.s)	Campo_(kA/m)	Magnetizacion_(A/m)
0.000000e+00	-3.108809e-06	-7.106680e-09	-2.355875e+01	-4.572141e+02
1.000000e-08	-3.108772e-06	-7.256269e-09	-2.355847e+01	-4.572273e+02
2.000000e-08	-3.108858e-06	-7.096877e-09	-2.355912e+01	-4.572329e+02
3.000000e-08	-3.108861e-06	-7.114859e-09	-2.355914e+01	-4.572328e+02
4.000000e-08	-3.108686e-06	-7.227891e-09	-2.355782e+01	-4.572290e+02
5.000000e-08	-3.108364e-06	-7.113842e-09	-2.355537e+01	-4.572229e+02
6.000000e-08	-3.107942e-06	-7.139150e-09	-2.355217e+01	-4.572158e+02
7.000000e-08	-3.107416e-06	-7.101591e-09	-2.354819e+01	-4.572084e+02
8.000000e-08	-3.106771e-06	-7.068522e-09	-2.354331e+01	-4.572013e+02
9.000000e-08	-3.106055e-06	-7.103219e-09	-2.353788e+01	-4.571941e+02
1.000000e-07	-3.105291e-06	-7.130943e-09	-2.353209e+01	-4.571865e+02
1.100000e-07	-3.104549e-06	-7.191746e-09	-2.352647e+01	-4.571774e+02
1.200000e-07	-3.103690e-06	-7.104297e-09	-2.351995e+01	-4.571655e+02
1.300000e-07	-3.102730e-06	-7.080376e-09	-2.351268e+01	-4.571494e+02
1.400000e-07	-3.101699e-06	-7.107398e-09	-2.350487e+01	-4.571271e+02
1.500000e-07	-3.100589e-06	-7.143205e-09	-2.349646e+01	-4.570971e+02
1.600000e-07	-3.099389e-06	-7.118681e-09	-2.348736e+01	-4.570574e+02
1.700000e-07	-3.098063e-06	-7.038719e-09	-2.347731e+01	-4.570066e+02
1.800000e-07	-3.096727e-06	-7.124858e-09	-2.346719e+01	-4.569431e+02
1.900000e-07	-3.095293e-06	-7.127750e-09	-2.345633e+01	-4.568661e+02
2.000000e-07	-3.093721e-06	-7.118359e-09	-2.344441e+01	-4.567748e+02
2.100000e-07	-3.091992e-06	-7.054184e-09	-2.343131e+01	-4.566691e+02
2.200000e-07	-3.090192e-06	-7.043996e-09	-2.341767e+01	-4.565493e+02
2.300000e-07	-3.088364e-06	-7.115305e-09	-2.340381e+01	-4.564161e+02
2.400000e-07	-3.086426e-06	-7.108015e-09	-2.338913e+01	-4.562708e+02
2.500000e-07	-3.084436e-06	-7.095825e-09	-2.337405e+01	-4.561148e+02
2.600000e-07	-3.082376e-06	-7.025117e-09	-2.335844e+01	-4.559501e+02
2.700000e-07	-3.080240e-06	-7.065629e-09	-2.334225e+01	-4.557786e+02
2.800000e-07	-3.078021e-06	-7.086442e-09	-2.332543e+01	-4.556026e+02
2.900000e-07	-3.075729e-06	-7.056320e-09	-2.330806e+01	-4.554243e+02
3.000000e-07	-3.073381e-06	-7.039592e-09	-2.329028e+01	-4.552456e+02
3.100000e-07	-3.070947e-06	-7.024535e-09	-2.327183e+01	-4.550684e+02
3.200000e-07	-3.068458e-06	-7.079381e-09	-2.325296e+01	-4.548943e+02
3.300000e-07	-3.065894e-06	-7.051526e-09	-2.323353e+01	-4.547242e+02
3.400000e-07	-3.063271e-06	-7.026762e-09	-2.321366e+01	-4.545590e+02
3.500000e-07	-3.060537e-06	-7.007825e-09	-2.319294e+01	-4.543988e+02
3.600000e-07	-3.057649e-06	-7.018926e-09	-2.317105e+01	-4.542433e+02
3.700000e-07	-3.054692e-06	-7.054279e-09	-2.314864e+01	-4.540918e+02
3.800000e-07	-3.051672e-06	-7.021079e-09	-2.312576e+01	-4.539432e+02
3.900000e-07	-3.048593e-06	-7.013161e-09	-2.310243e+01	-4.537958e+02
4.000000e-07	-3.045428e-06	-6.991004e-09	-2.307844e+01	-4.536481e+02
4.100000e-07	-3.042209e-06	-7.018401e-09	-2.305405e+01	-4.534980e+02
4.200000e-07	-3.038934e-06	-7.018390e-09	-2.302923e+01	-4.533435e+02
4.300000e-07	-3.035582e-06	-6.979752e-09	-2.300383e+01	-4.531826e+02
4.400000e-07	-3.032162e-06	-6.979831e-09	-2.297791e+01	-4.530134e+02
4.500000e-07	-3.028642e-06	-6.982038e-09	-2.295124e+01	-4.528344e+02
4.600000e-07	-3.025026e-06	-7.014646e-09	-2.292383e+01	-4.526442e+02
4.700000e-07	-3.021318e-06	-6.979530e-09	-2.289574e+01	-4.524418e+02
4.800000e-07	-3.017539e-06	-6.957338e-09	-2.286709e+01	-4.522266e+02
4.900000e-07	-3.013696e-06	-6.962677e-09	-2.283797e+01	-4.519983e+02
5.000000e-07	-3.009783e-06	-6.967832e-09	-2.280832e+01	-4.517571e+02
5.100000e-07	-3.005775e-06	-6.963884e-09	-2.277795e+01	-4.515035e+02
5.200000e-07	-3.001667e-06	-6.915229e-09	-2.274682e+01	-4.512383e+02
5.300000e-07	-2.997514e-06	-6.925333e-09	-2.271535e+01	-4.509625e+02
5.400000e-07	-2.993304e-06	-6.938335e-09	-2.268345e+01	-4.506771e+02
5.500000e-07	-2.988986e-06	-6.948638e-09	-2.265072e+01	-4.503835e+02
5.600000e-07	-2.984549e-06	-6.930024e-09	-2.261710e+01	-4.500826e+02
5.700000e-07	-2.980026e-06	-6.904670e-09	-2.258283e+01	-4.497755e+02
5.800000e-07	-2.975447e-06	-6.919500e-09	-2.254812e+01	-4.494630e+02
5.900000e-07	-2.970789e-06	-6.904534e-09	-2.251283e+01	-4.491456e+02
6.000000e-07	-2.966053e-06	-6.891372e-09	-2.247693e+01	-4.488236e+02
6.100000e-07	-2.961230e-06	-6.865093e-09	-2.244038e+01	-4.484968e+02
6.200000e-07	-2.956345e-06	-6.873846e-09	-2.240337e+01	-4.481649e+02
6.300000e-07	-2.951388e-06	-6.893009e-09	-2.236580e+01	-4.478271e+02
6.400000e-07	-2.946326e-06	-6.886040e-09	-2.232744e+01	-4.474825e+02
6.500000e-07	-2.941175e-06	-6.879039e-09	-2.228841e+01	-4.471298e+02
6.600000e-07	-2.935912e-06	-6.853919e-09	-2.224852e+01	-4.467679e+02
6.700000e-07	-2.930559e-06	-6.860236e-09	-2.220796e+01	-4.463954e+02
6.800000e-07	-2.925113e-06	-6.848967e-09	-2.216669e+01	-4.460111e+02
6.900000e-07	-2.919591e-06	-6.830230e-09	-2.212484e+01	-4.456137e+02
7.000000e-07	-2.914008e-06	-6.817436e-09	-2.208253e+01	-4.452023e+02
7.100000e-07	-2.908350e-06	-6.812861e-09	-2.203966e+01	-4.447764e+02
7.200000e-07	-2.902641e-06	-6.828828e-09	-2.199639e+01	-4.443357e+02
7.300000e-07	-2.896861e-06	-6.811277e-09	-2.195259e+01	-4.438802e+02
7.400000e-07	-2.891011e-06	-6.797006e-09	-2.190826e+01	-4.434104e+02
7.500000e-07	-2.885049e-06	-6.778322e-09	-2.186308e+01	-4.429271e+02
7.600000e-07	-2.878981e-06	-6.773520e-09	-2.181710e+01	-4.424316e+02
7.700000e-07	-2.872856e-06	-6.767529e-09	-2.177068e+01	-4.419254e+02
7.800000e-07	-2.866662e-06	-6.745048e-09	-2.172374e+01	-4.414101e+02
7.900000e-07	-2.860408e-06	-6.739774e-09	-2.167635e+01	-4.408876e+02
8.000000e-07	-2.854085e-06	-6.728645e-09	-2.162843e+01	-4.403599e+02
8.100000e-07	-2.847699e-06	-6.726475e-09	-2.158004e+01	-4.398289e+02
8.200000e-07	-2.841233e-06	-6.703955e-09	-2.153104e+01	-4.392963e+02
8.300000e-07	-2.834696e-06	-6.684225e-09	-2.148150e+01	-4.387636e+02
8.400000e-07	-2.828110e-06	-6.681394e-09	-2.143160e+01	-4.382322e+02
8.500000e-07	-2.821436e-06	-6.675214e-09	-2.138102e+01	-4.377028e+02
8.600000e-07	-2.814645e-06	-6.670693e-09	-2.132956e+01	-4.371761e+02
8.700000e-07	-2.807767e-06	-6.646773e-09	-2.127743e+01	-4.366522e+02
8.800000e-07	-2.800843e-06	-6.636658e-09	-2.122496e+01	-4.361306e+02
8.900000e-07	-2.793867e-06	-6.629121e-09	-2.117210e+01	-4.356108e+02
9.000000e-07	-2.786832e-06	-6.618098e-09	-2.111878e+01	-4.350918e+02
9.100000e-07	-2.779725e-06	-6.603886e-09	-2.106493e+01	-4.345722e+02
9.200000e-07	-2.772546e-06	-6.586334e-09	-2.101052e+01	-4.340507e+02
9.300000e-07	-2.765306e-06	-6.588958e-09	-2.095566e+01	-4.335255e+02
9.400000e-07	-2.758003e-06	-6.583989e-09	-2.090031e+01	-4.329951e+02
9.500000e-07	-2.750632e-06	-6.574575e-09	-2.084446e+01	-4.324580e+02
9.600000e-07	-2.743159e-06	-6.557073e-09	-2.078783e+01	-4.319129e+02
9.700000e-07	-2.735582e-06	-6.547535e-09	-2.073041e+01	-4.313585e+02
9.800000e-07	-2.727923e-06	-6.544634e-09	-2.067237e+01	-4.307940e+02
9.900000e-07	-2.720183e-06	-6.527837e-09	-2.061372e+01	-4.302189e+02
1.000000e-06	-2.712365e-06	-6.513384e-09	-2.055447e+01	-4.296330e+02
1.010000e-06	-2.704481e-06	-6.496399e-09	-2.049472e+01	-4.290366e+02
1.020000e-06	-2.696553e-06	-6.492581e-09	-2.043465e+01	-4.284300e+02
1.030000e-06	-2.688539e-06	-6.484832e-09	-2.037391e+01	-4.278141e+02
1.040000e-06	-2.680415e-06	-6.470356e-09	-2.031235e+01	-4.271900e+02
1.050000e-06	-2.672197e-06	-6.459553e-09	-2.025007e+01	-4.265588e+02
1.060000e-06	-2.663911e-06	-6.447040e-09	-2.018728e+01	-4.259218e+02
1.070000e-06	-2.655582e-06	-6.442894e-09	-2.012417e+01	-4.252804e+02
1.080000e-06	-2.647180e-06	-6.429194e-09	-2.006050e+01	-4.246357e+02
1.090000e-06	-2.638712e-06	-6.416120e-09	-1.999633e+01	-4.239888e+02
1.100000e-06	-2.630201e-06	-6.405803e-09	-1.993183e+01	-4.233406e+02
1.110000e-06	-2.621640e-06	-6.396209e-09	-1.986695e+01	-4.226916e+02
1.120000e-06	-2.613025e-06	-6.386896e-09	-1.980166e+01	-4.220422e+02
1.130000e-06	-2.604342e-06	-6.367881e-09	-1.973586e+01	-4.213922e+02
1.140000e-06	-2.595604e-06	-6.354021e-09	-1.966965e+01	-4.207412e+02
1.150000e-06	-2.586800e-06	-6.342896e-09	-1.960293e+01	-4.200885e+02
1.160000e-06	-2.577917e-06	-6.336452e-09	-1.953562e+01	-4.194331e+02
1.170000e-06	-2.568987e-06	-6.327703e-09	-1.946794e+01	-4.187737e+02
1.180000e-06	-2.560004e-06	-6.318191e-09	-1.939987e+01	-4.181088e+02
1.190000e-06	-2.550945e-06	-6.310598e-09	-1.933122e+01	-4.174370e+02
1.200000e-06	-2.541791e-06	-6.294972e-09	-1.926185e+01	-4.167567e+02
1.210000e-06	-2.532559e-06	-6.278821e-09	-1.919189e+01	-4.160662e+02
1.220000e-06	-2.523263e-06	-6.258476e-09	-1.912144e+01	-4.153643e+02
1.230000e-06	-2.513912e-06	-6.247816e-09	-1.905058e+01	-4.146494e+02
1.240000e-06	-2.504505e-06	-6.242219e-09	-1.897929e+01	-4.139208e+02
1.250000e-06	-2.495029e-06	-6.232450e-09	-1.890749e+01	-4.131774e+02
1.260000e-06	-2.485503e-06	-6.220072e-09	-1.883530e+01	-4.124189e+02
1.270000e-06	-2.475911e-06	-6.201456e-09	-1.876260e+01	-4.116450e+02
1.280000e-06	-2.466259e-06	-6.184141e-09	-1.868946e+01	-4.108557e+02
1.290000e-06	-2.456558e-06	-6.165409e-09	-1.861595e+01	-4.100514e+02
1.300000e-06	-2.446800e-06	-6.148397e-09	-1.854200e+01	-4.092325e+02
1.310000e-06	-2.436984e-06	-6.131940e-09	-1.846761e+01	-4.084000e+02
1.320000e-06	-2.427074e-06	-6.119524e-09	-1.839252e+01	-4.075545e+02
1.330000e-06	-2.417057e-06	-6.111758e-09	-1.831661e+01	-4.066970e+02
1.340000e-06	-2.406967e-06	-6.100653e-09	-1.824014e+01	-4.058284e+02
1.350000e-06	-2.396837e-06	-6.088568e-09	-1.816338e+01	-4.049498e+02
1.360000e-06	-2.386662e-06	-6.071474e-09	-1.808627e+01	-4.040619e+02
1.370000e-06	-2.376427e-06	-6.053709e-09	-1.800871e+01	-4.031654e+02
1.380000e-06	-2.366123e-06	-6.035056e-09	-1.793063e+01	-4.022611e+02
1.390000e-06	-2.355756e-06	-6.015111e-09	-1.785206e+01	-4.013492e+02
1.400000e-06	-2.345348e-06	-5.997839e-09	-1.777319e+01	-4.004302e+02
1.410000e-06	-2.334886e-06	-5.980401e-09	-1.769391e+01	-3.995041e+02
1.420000e-06	-2.324368e-06	-5.967950e-09	-1.761421e+01	-3.985711e+02
1.430000e-06	-2.313796e-06	-5.954884e-09	-1.753409e+01	-3.976310e+02
1.440000e-06	-2.303158e-06	-5.943631e-09	-1.745348e+01	-3.966837e+02
1.450000e-06	-2.292452e-06	-5.934845e-09	-1.737235e+01	-3.957290e+02
1.460000e-06	-2.281666e-06	-5.921371e-09	-1.729061e+01	-3.947668e+02
1.470000e-06	-2.270801e-06	-5.905190e-09	-1.720827e+01	-3.937970e+02
1.480000e-06	-2.259886e-06	-5.886806e-09	-1.712555e+01	-3.928194e+02
1.490000e-06	-2.248940e-06	-5.869007e-09	-1.704261e+01	-3.918340e+02
1.500000e-06	-2.237944e-06	-5.848603e-09	-1.695928e+01	-3.908411e+02
1.510000e-06	-2.226886e-06	-5.829649e-09	-1.687548e+01	-3.898407e+02
1.520000e-06	-2.215777e-06	-5.812704e-09	-1.679129e+01	-3.888331e+02
1.530000e-06	-2.204623e-06	-5.796949e-09	-1.670677e+01	-3.878188e+02
1.540000e-06	-2.193423e-06	-5.786412e-09	-1.662190e+01	-3.867980e+02
1.550000e-06	-2.182155e-06	-5.773664e-09	-1.653651e+01	-3.857714e+02
1.560000e-06	-2.170832e-06	-5.759423e-09	-1.645070e+01	-3.847392e+02
1.570000e-06	-2.159473e-06	-5.741062e-09	-1.636462e+01	-3.837018e+02
1.580000e-06	-2.148055e-06	-5.720438e-09	-1.627810e+01	-3.826596e+02
1.590000e-06	-2.136540e-06	-5.699095e-09	-1.619083e+01	-3.816127e+02
1.600000e-06	-2.124929e-06	-5.677015e-09	-1.610284e+01	-3.805611e+02
1.610000e-06	-2.113249e-06	-5.660344e-09	-1.601433e+01	-3.795048e+02
1.620000e-06	-2.101524e-06	-5.644070e-09	-1.592548e+01	-3.784433e+02
1.630000e-06	-2.089764e-06	-5.629878e-09	-1.583636e+01	-3.773764e+02
1.640000e-06	-2.077944e-06	-5.616003e-09	-1.574679e+01	-3.763033e+02
1.650000e-06	-2.066074e-06	-5.600013e-09	-1.565683e+01	-3.752234e+02
1.660000e-06	-2.054156e-06	-5.583049e-09	-1.556652e+01	-3.741359e+02
1.670000e-06	-2.042177e-06	-5.562014e-09	-1.547575e+01	-3.730399e+02
1.680000e-06	-2.030146e-06	-5.541552e-09	-1.538457e+01	-3.719346e+02
1.690000e-06	-2.018069e-06	-5.519622e-09	-1.529305e+01	-3.708190e+02
1.700000e-06	-2.005957e-06	-5.496448e-09	-1.520126e+01	-3.696925e+02
1.710000e-06	-1.993808e-06	-5.474689e-09	-1.510920e+01	-3.685544e+02
1.720000e-06	-1.981603e-06	-5.457433e-09	-1.501671e+01	-3.674042e+02
1.730000e-06	-1.969334e-06	-5.447786e-09	-1.492373e+01	-3.662416e+02
1.740000e-06	-1.956994e-06	-5.437919e-09	-1.483022e+01	-3.650665e+02
1.750000e-06	-1.944565e-06	-5.423862e-09	-1.473603e+01	-3.638790e+02
1.760000e-06	-1.932080e-06	-5.402081e-09	-1.464143e+01	-3.626794e+02
1.770000e-06	-1.919570e-06	-5.376095e-09	-1.454662e+01	-3.614680e+02
1.780000e-06	-1.907025e-06	-5.347860e-09	-1.445155e+01	-3.602457e+02
1.790000e-06	-1.894437e-06	-5.319126e-09	-1.435616e+01	-3.590131e+02
1.800000e-06	-1.881799e-06	-5.294835e-09	-1.426039e+01	-3.577710e+02
1.810000e-06	-1.869107e-06	-5.273861e-09	-1.416421e+01	-3.565204e+02
1.820000e-06	-1.856361e-06	-5.268141e-09	-1.406762e+01	-3.552619e+02
1.830000e-06	-1.843572e-06	-5.266288e-09	-1.397070e+01	-3.539964e+02
1.840000e-06	-1.830734e-06	-5.253118e-09	-1.387341e+01	-3.527246e+02
1.850000e-06	-1.817852e-06	-5.232561e-09	-1.377579e+01	-3.514469e+02
1.860000e-06	-1.804941e-06	-5.201555e-09	-1.367795e+01	-3.501638e+02
1.870000e-06	-1.791993e-06	-5.172741e-09	-1.357984e+01	-3.488753e+02
1.880000e-06	-1.778996e-06	-5.143113e-09	-1.348134e+01	-3.475814e+02
1.890000e-06	-1.765944e-06	-5.117049e-09	-1.338243e+01	-3.462820e+02
1.900000e-06	-1.752826e-06	-5.097888e-09	-1.328302e+01	-3.449765e+02
1.910000e-06	-1.739654e-06	-5.082912e-09	-1.318321e+01	-3.436646e+02
1.920000e-06	-1.726432e-06	-5.074031e-09	-1.308301e+01	-3.423454e+02
1.930000e-06	-1.713156e-06	-5.060463e-09	-1.298240e+01	-3.410184e+02
1.940000e-06	-1.699856e-06	-5.039790e-09	-1.288162e+01	-3.396828e+02
1.950000e-06	-1.686532e-06	-5.009121e-09	-1.278065e+01	-3.383377e+02
1.960000e-06	-1.673170e-06	-4.980639e-09	-1.267939e+01	-3.369827e+02
1.970000e-06	-1.659762e-06	-4.953887e-09	-1.257778e+01	-3.356171e+02
1.980000e-06	-1.646308e-06	-4.924614e-09	-1.247582e+01	-3.342405e+02
1.990000e-06	-1.632804e-06	-4.901850e-09	-1.237349e+01	-3.328526e+02
2.000000e-06	-1.619250e-06	-4.884363e-09	-1.227077e+01	-3.314533e+02
2.010000e-06	-1.605662e-06	-4.868994e-09	-1.216781e+01	-3.300427e+02
2.020000e-06	-1.592034e-06	-4.848748e-09	-1.206453e+01	-3.286209e+02
2.030000e-06	-1.578373e-06	-4.825982e-09	-1.196101e+01	-3.271884e+02
2.040000e-06	-1.564680e-06	-4.803215e-09	-1.185724e+01	-3.257454e+02
2.050000e-06	-1.550949e-06	-4.781394e-09	-1.175319e+01	-3.242927e+02
2.060000e-06	-1.537192e-06	-4.760454e-09	-1.164894e+01	-3.228308e+02
2.070000e-06	-1.523390e-06	-4.733888e-09	-1.154434e+01	-3.213602e+02
2.080000e-06	-1.509545e-06	-4.707389e-09	-1.143943e+01	-3.198815e+02
2.090000e-06	-1.495663e-06	-4.681716e-09	-1.133423e+01	-3.183952e+02
2.100000e-06	-1.481712e-06	-4.657077e-09	-1.122850e+01	-3.169016e+02
2.110000e-06	-1.467690e-06	-4.632418e-09	-1.112224e+01	-3.154009e+02
2.120000e-06	-1.453619e-06	-4.608479e-09	-1.101561e+01	-3.138933e+02
2.130000e-06	-1.439513e-06	-4.589217e-09	-1.090872e+01	-3.123787e+02
2.140000e-06	-1.425379e-06	-4.570264e-09	-1.080161e+01	-3.108569e+02
2.150000e-06	-1.411207e-06	-4.551842e-09	-1.069421e+01	-3.093278e+02
2.160000e-06	-1.397005e-06	-4.529455e-09	-1.058659e+01	-3.077909e+02
2.170000e-06	-1.382769e-06	-4.502970e-09	-1.047871e+01	-3.062458e+02
2.180000e-06	-1.368489e-06	-4.477001e-09	-1.037049e+01	-3.046921e+02
2.190000e-06	-1.354184e-06	-4.452445e-09	-1.026209e+01	-3.031294e+02
2.200000e-06	-1.339842e-06	-4.429613e-09	-1.015341e+01	-3.015574e+02
2.210000e-06	-1.325467e-06	-4.404057e-09	-1.004447e+01	-2.999759e+02
2.220000e-06	-1.311053e-06	-4.380579e-09	-9.935244e+00	-2.983847e+02
2.230000e-06	-1.296579e-06	-4.358490e-09	-9.825555e+00	-2.967839e+02
2.240000e-06	-1.282069e-06	-4.339396e-09	-9.715602e+00	-2.951737e+02
2.250000e-06	-1.267520e-06	-4.322043e-09	-9.605346e+00	-2.935546e+02
2.260000e-06	-1.252922e-06	-4.296844e-09	-9.494718e+00	-2.919271e+02
2.270000e-06	-1.238283e-06	-4.270239e-09	-9.383786e+00	-2.902919e+02
2.280000e-06	-1.223619e-06	-4.244621e-09	-9.272657e+00	-2.886499e+02
2.290000e-06	-1.208933e-06	-4.220424e-09	-9.161366e+00	-2.870018e+02
2.300000e-06	-1.194212e-06	-4.194551e-09	-9.049814e+00	-2.853486e+02
2.310000e-06	-1.179476e-06	-4.168389e-09	-8.938142e+00	-2.836912e+02
2.320000e-06	-1.164722e-06	-4.146810e-09	-8.826336e+00	-2.820303e+02
2.330000e-06	-1.149935e-06	-4.124728e-09	-8.714280e+00	-2.803667e+02
2.340000e-06	-1.135118e-06	-4.102040e-09	-8.601996e+00	-2.787009e+02
2.350000e-06	-1.120271e-06	-4.076822e-09	-8.489486e+00	-2.770331e+02
2.360000e-06	-1.105397e-06	-4.053265e-09	-8.376771e+00	-2.753635e+02
2.370000e-06	-1.090504e-06	-4.033506e-09	-8.263905e+00	-2.736917e+02
2.380000e-06	-1.075592e-06	-4.011002e-09	-8.150901e+00	-2.720174e+02
2.390000e-06	-1.060663e-06	-3.984170e-09	-8.037771e+00	-2.703398e+02
2.400000e-06	-1.045716e-06	-3.953987e-09	-7.924503e+00	-2.686579e+02
2.410000e-06	-1.030746e-06	-3.927076e-09	-7.811058e+00	-2.669706e+02
2.420000e-06	-1.015751e-06	-3.903192e-09	-7.697423e+00	-2.652765e+02
2.430000e-06	-1.000725e-06	-3.881923e-09	-7.583556e+00	-2.635743e+02
2.440000e-06	-9.856694e-07	-3.861383e-09	-7.469464e+00	-2.618624e+02
2.450000e-06	-9.705942e-07	-3.838028e-09	-7.355223e+00	-2.601393e+02
2.460000e-06	-9.554991e-07	-3.814511e-09	-7.240831e+00	-2.584037e+02
2.470000e-06	-9.403691e-07	-3.788900e-09	-7.126175e+00	-2.566541e+02
2.480000e-06	-9.252135e-07	-3.760841e-09	-7.011325e+00	-2.548894e+02
2.490000e-06	-9.100522e-07	-3.733052e-09	-6.896432e+00	-2.531087e+02
2.500000e-06	-8.948704e-07	-3.709418e-09	-6.781383e+00	-2.513113e+02
2.510000e-06	-8.796559e-07	-3.688445e-09	-6.666087e+00	-2.494967e+02
2.520000e-06	-8.644163e-07	-3.664748e-09	-6.550601e+00	-2.476647e+02
2.530000e-06	-8.491527e-07	-3.637281e-09	-6.434932e+00	-2.458155e+02
2.540000e-06	-8.338651e-07	-3.610697e-09	-6.319081e+00	-2.439493e+02
2.550000e-06	-8.185564e-07	-3.586526e-09	-6.203071e+00	-2.420667e+02
2.560000e-06	-8.032314e-07	-3.558066e-09	-6.086937e+00	-2.401684e+02
2.570000e-06	-7.878970e-07	-3.527132e-09	-5.970732e+00	-2.382553e+02
2.580000e-06	-7.725440e-07	-3.498010e-09	-5.854386e+00	-2.363284e+02
2.590000e-06	-7.571744e-07	-3.469023e-09	-5.737915e+00	-2.343887e+02
2.600000e-06	-7.417756e-07	-3.438747e-09	-5.621221e+00	-2.324373e+02
2.610000e-06	-7.263409e-07	-3.405069e-09	-5.504256e+00	-2.304752e+02
2.620000e-06	-7.108687e-07	-3.372404e-09	-5.387007e+00	-2.285032e+02
2.630000e-06	-6.953671e-07	-3.344096e-09	-5.269535e+00	-2.265223e+02
2.640000e-06	-6.798577e-07	-3.317867e-09	-5.152004e+00	-2.245331e+02
2.650000e-06	-6.643406e-07	-3.293159e-09	-5.034415e+00	-2.225361e+02
2.660000e-06	-6.487903e-07	-3.265596e-09	-4.916573e+00	-2.205318e+02
2.670000e-06	-6.331909e-07	-3.236704e-09	-4.798360e+00	-2.185204e+02
2.680000e-06	-6.175680e-07	-3.205854e-09	-4.679968e+00	-2.165019e+02
2.690000e-06	-6.019237e-07	-3.173349e-09	-4.561415e+00	-2.144764e+02
2.700000e-06	-5.862632e-07	-3.140756e-09	-4.442739e+00	-2.124436e+02
2.710000e-06	-5.705946e-07	-3.107565e-09	-4.324001e+00	-2.104032e+02
2.720000e-06	-5.549169e-07	-3.078012e-09	-4.205194e+00	-2.083551e+02
2.730000e-06	-5.392291e-07	-3.049374e-09	-4.086311e+00	-2.062987e+02
2.740000e-06	-5.235345e-07	-3.020074e-09	-3.967377e+00	-2.042337e+02
2.750000e-06	-5.078337e-07	-2.988846e-09	-3.848395e+00	-2.021596e+02
2.760000e-06	-4.921185e-07	-2.959199e-09	-3.729305e+00	-2.000762e+02
2.770000e-06	-4.763971e-07	-2.930925e-09	-3.610167e+00	-1.979830e+02
2.780000e-06	-4.606654e-07	-2.899462e-09	-3.490951e+00	-1.958797e+02
2.790000e-06	-4.449246e-07	-2.866637e-09	-3.371666e+00	-1.937660e+02
2.800000e-06	-4.291777e-07	-2.835362e-09	-3.252336e+00	-1.916417e+02
2.810000e-06	-4.134249e-07	-2.806019e-09	-3.132959e+00	-1.895065e+02
2.820000e-06	-3.976688e-07	-2.774307e-09	-3.013559e+00	-1.873604e+02
2.830000e-06	-3.819036e-07	-2.741573e-09	-2.894089e+00	-1.852030e+02
2.840000e-06	-3.661314e-07	-2.710986e-09	-2.774567e+00	-1.830344e+02
