# Temperatura_=_20.0
# Concentracion g/m^3_=_10000.0
# C_Vs_to_Am_M_A/Vsm_=_65563218390.804596
# pendiente_HvsI_1/m_=_3716.3
# ordenada_HvsI_A/m_=_1297.0
# frecuencia_Hz_=_81162.89676332205

Tiempo_(s)	Campo_(V.s)	Magnetizacion_(V.s)	Campo_(kA/m)	Magnetizacion_(A/m)
0.000000e+00	-3.108943e-06	-7.064400e-09	-2.355734e+01	-4.570916e+02
1.000000e-08	-3.108933e-06	-7.026150e-09	-2.355727e+01	-4.570422e+02
2.000000e-08	-3.109033e-06	-6.988580e-09	-2.355803e+01	-4.569705e+02
3.000000e-08	-3.109059e-06	-7.036811e-09	-2.355822e+01	-4.568780e+02
4.000000e-08	-3.108920e-06	-6.972363e-09	-2.355716e+01	-4.567665e+02
5.000000e-08	-3.108630e-06	-6.964631e-09	-2.355497e+01	-4.566376e+02
6.000000e-08	-3.108247e-06	-7.014000e-09	-2.355207e+01	-4.564930e+02
7.000000e-08	-3.107749e-06	-6.978897e-09	-2.354829e+01	-4.563343e+02
8.000000e-08	-3.107125e-06	-6.993586e-09	-2.354357e+01	-4.561632e+02
9.000000e-08	-3.106417e-06	-6.963765e-09	-2.353820e+01	-4.559813e+02
1.000000e-07	-3.105664e-06	-6.984293e-09	-2.353250e+01	-4.557898e+02
1.100000e-07	-3.104933e-06	-6.984643e-09	-2.352696e+01	-4.555901e+02
1.200000e-07	-3.104095e-06	-6.949437e-09	-2.352061e+01	-4.553835e+02
1.300000e-07	-3.103172e-06	-6.959229e-09	-2.351361e+01	-4.551711e+02
1.400000e-07	-3.102181e-06	-6.943064e-09	-2.350610e+01	-4.549539e+02
1.500000e-07	-3.101106e-06	-6.968999e-09	-2.349796e+01	-4.547330e+02
1.600000e-07	-3.099916e-06	-6.920240e-09	-2.348894e+01	-4.545094e+02
1.700000e-07	-3.098607e-06	-6.925287e-09	-2.347903e+01	-4.542841e+02
1.800000e-07	-3.097269e-06	-6.942246e-09	-2.346888e+01	-4.540582e+02
1.900000e-07	-3.095837e-06	-6.914815e-09	-2.345803e+01	-4.538326e+02
2.000000e-07	-3.094272e-06	-6.915845e-09	-2.344618e+01	-4.536087e+02
2.100000e-07	-3.092557e-06	-6.892430e-09	-2.343318e+01	-4.533875e+02
2.200000e-07	-3.090785e-06	-6.921463e-09	-2.341975e+01	-4.531703e+02
2.300000e-07	-3.088976e-06	-6.900825e-09	-2.340604e+01	-4.529583e+02
2.400000e-07	-3.087055e-06	-6.894604e-09	-2.339149e+01	-4.527529e+02
2.500000e-07	-3.085061e-06	-6.890271e-09	-2.337638e+01	-4.525553e+02
2.600000e-07	-3.083002e-06	-6.881149e-09	-2.336078e+01	-4.523667e+02
2.700000e-07	-3.080883e-06	-6.909052e-09	-2.334472e+01	-4.521880e+02
2.800000e-07	-3.078677e-06	-6.887955e-09	-2.332801e+01	-4.520204e+02
2.900000e-07	-3.076389e-06	-6.897023e-09	-2.331067e+01	-4.518644e+02
3.000000e-07	-3.074033e-06	-6.874776e-09	-2.329282e+01	-4.517206e+02
3.100000e-07	-3.071604e-06	-6.875827e-09	-2.327442e+01	-4.515892e+02
3.200000e-07	-3.069127e-06	-6.876711e-09	-2.325564e+01	-4.514702e+02
3.300000e-07	-3.066574e-06	-6.854878e-09	-2.323630e+01	-4.513631e+02
3.400000e-07	-3.063948e-06	-6.861744e-09	-2.321640e+01	-4.512674e+02
3.500000e-07	-3.061194e-06	-6.847087e-09	-2.319554e+01	-4.511820e+02
3.600000e-07	-3.058318e-06	-6.865980e-09	-2.317374e+01	-4.511056e+02
3.700000e-07	-3.055385e-06	-6.855359e-09	-2.315152e+01	-4.510368e+02
3.800000e-07	-3.052393e-06	-6.855205e-09	-2.312885e+01	-4.509737e+02
3.900000e-07	-3.049325e-06	-6.860543e-09	-2.310560e+01	-4.509145e+02
4.000000e-07	-3.046158e-06	-6.854638e-09	-2.308160e+01	-4.508570e+02
4.100000e-07	-3.042941e-06	-6.869512e-09	-2.305722e+01	-4.507991e+02
4.200000e-07	-3.039666e-06	-6.844724e-09	-2.303241e+01	-4.507386e+02
4.300000e-07	-3.036329e-06	-6.841989e-09	-2.300712e+01	-4.506734e+02
4.400000e-07	-3.032939e-06	-6.835172e-09	-2.298144e+01	-4.506014e+02
4.500000e-07	-3.029453e-06	-6.838534e-09	-2.295502e+01	-4.505206e+02
4.600000e-07	-3.025850e-06	-6.841746e-09	-2.292772e+01	-4.504292e+02
4.700000e-07	-3.022136e-06	-6.830479e-09	-2.289958e+01	-4.503255e+02
4.800000e-07	-3.018358e-06	-6.844116e-09	-2.287095e+01	-4.502082e+02
4.900000e-07	-3.014514e-06	-6.831714e-09	-2.284183e+01	-4.500760e+02
5.000000e-07	-3.010595e-06	-6.830309e-09	-2.281213e+01	-4.499278e+02
5.100000e-07	-3.006592e-06	-6.808897e-09	-2.278180e+01	-4.497628e+02
5.200000e-07	-3.002508e-06	-6.790978e-09	-2.275086e+01	-4.495802e+02
5.300000e-07	-2.998379e-06	-6.790953e-09	-2.271956e+01	-4.493796e+02
5.400000e-07	-2.994164e-06	-6.785886e-09	-2.268763e+01	-4.491606e+02
5.500000e-07	-2.989852e-06	-6.799415e-09	-2.265495e+01	-4.489229e+02
5.600000e-07	-2.985435e-06	-6.792635e-09	-2.262149e+01	-4.486663e+02
5.700000e-07	-2.980926e-06	-6.799625e-09	-2.258732e+01	-4.483906e+02
5.800000e-07	-2.976368e-06	-6.793176e-09	-2.255279e+01	-4.480959e+02
5.900000e-07	-2.971736e-06	-6.779999e-09	-2.251769e+01	-4.477820e+02
6.000000e-07	-2.967017e-06	-6.770000e-09	-2.248193e+01	-4.474489e+02
6.100000e-07	-2.962210e-06	-6.751827e-09	-2.244550e+01	-4.470968e+02
6.200000e-07	-2.957345e-06	-6.754469e-09	-2.240864e+01	-4.467257e+02
6.300000e-07	-2.952413e-06	-6.739663e-09	-2.237127e+01	-4.463358e+02
6.400000e-07	-2.947375e-06	-6.738064e-09	-2.233309e+01	-4.459272e+02
6.500000e-07	-2.942222e-06	-6.732163e-09	-2.229405e+01	-4.455003e+02
6.600000e-07	-2.936973e-06	-6.723720e-09	-2.225428e+01	-4.450554e+02
6.700000e-07	-2.931649e-06	-6.721102e-09	-2.221394e+01	-4.445932e+02
6.800000e-07	-2.926220e-06	-6.704941e-09	-2.217279e+01	-4.441141e+02
6.900000e-07	-2.920708e-06	-6.700284e-09	-2.213103e+01	-4.436189e+02
7.000000e-07	-2.915124e-06	-6.681461e-09	-2.208872e+01	-4.431086e+02
7.100000e-07	-2.909483e-06	-6.674929e-09	-2.204598e+01	-4.425842e+02
7.200000e-07	-2.903804e-06	-6.666618e-09	-2.200295e+01	-4.420467e+02
7.300000e-07	-2.898057e-06	-6.655128e-09	-2.195940e+01	-4.414974e+02
7.400000e-07	-2.892236e-06	-6.649699e-09	-2.191529e+01	-4.409376e+02
7.500000e-07	-2.886297e-06	-6.631912e-09	-2.187029e+01	-4.403686e+02
7.600000e-07	-2.880249e-06	-6.627648e-09	-2.182446e+01	-4.397918e+02
7.700000e-07	-2.874135e-06	-6.612280e-09	-2.177814e+01	-4.392087e+02
7.800000e-07	-2.867957e-06	-6.603094e-09	-2.173132e+01	-4.386204e+02
7.900000e-07	-2.861715e-06	-6.592826e-09	-2.168402e+01	-4.380284e+02
8.000000e-07	-2.855400e-06	-6.581006e-09	-2.163618e+01	-4.374337e+02
8.100000e-07	-2.849030e-06	-6.573671e-09	-2.158791e+01	-4.368376e+02
8.200000e-07	-2.842581e-06	-6.549999e-09	-2.153904e+01	-4.362408e+02
8.300000e-07	-2.836063e-06	-6.536822e-09	-2.148965e+01	-4.356444e+02
8.400000e-07	-2.829503e-06	-6.523782e-09	-2.143994e+01	-4.350491e+02
8.500000e-07	-2.822865e-06	-6.520375e-09	-2.138965e+01	-4.344555e+02
8.600000e-07	-2.816117e-06	-6.515514e-09	-2.133852e+01	-4.338642e+02
8.700000e-07	-2.809259e-06	-6.507462e-09	-2.128655e+01	-4.332756e+02
8.800000e-07	-2.802343e-06	-6.506493e-09	-2.123415e+01	-4.326903e+02
8.900000e-07	-2.795369e-06	-6.494858e-09	-2.118131e+01	-4.321086e+02
9.000000e-07	-2.788337e-06	-6.485223e-09	-2.112802e+01	-4.315309e+02
9.100000e-07	-2.781234e-06	-6.463530e-09	-2.107420e+01	-4.309578e+02
9.200000e-07	-2.774051e-06	-6.448694e-09	-2.101977e+01	-4.303895e+02
9.300000e-07	-2.766809e-06	-6.441303e-09	-2.096489e+01	-4.298266e+02
9.400000e-07	-2.759505e-06	-6.431459e-09	-2.090955e+01	-4.292695e+02
9.500000e-07	-2.752147e-06	-6.425754e-09	-2.085380e+01	-4.287188e+02
9.600000e-07	-2.744700e-06	-6.414822e-09	-2.079737e+01	-4.281750e+02
9.700000e-07	-2.737152e-06	-6.417297e-09	-2.074018e+01	-4.276386e+02
9.800000e-07	-2.729514e-06	-6.412828e-09	-2.068230e+01	-4.271099e+02
9.900000e-07	-2.721793e-06	-6.400683e-09	-2.062380e+01	-4.265892e+02
1.000000e-06	-2.714011e-06	-6.386098e-09	-2.056483e+01	-4.260767e+02
1.010000e-06	-2.706152e-06	-6.373952e-09	-2.050528e+01	-4.255723e+02
1.020000e-06	-2.698230e-06	-6.371554e-09	-2.044525e+01	-4.250758e+02
1.030000e-06	-2.690222e-06	-6.357533e-09	-2.038457e+01	-4.245866e+02
1.040000e-06	-2.682093e-06	-6.345847e-09	-2.032298e+01	-4.241039e+02
1.050000e-06	-2.673881e-06	-6.336160e-09	-2.026075e+01	-4.236265e+02
1.060000e-06	-2.665613e-06	-6.329968e-09	-2.019811e+01	-4.231529e+02
1.070000e-06	-2.657294e-06	-6.323621e-09	-2.013507e+01	-4.226814e+02
1.080000e-06	-2.648899e-06	-6.312463e-09	-2.007146e+01	-4.222100e+02
1.090000e-06	-2.640445e-06	-6.309029e-09	-2.000740e+01	-4.217363e+02
1.100000e-06	-2.631947e-06	-6.302575e-09	-1.994301e+01	-4.212577e+02
1.110000e-06	-2.623403e-06	-6.292997e-09	-1.987827e+01	-4.207718e+02
1.120000e-06	-2.614808e-06	-6.275951e-09	-1.981314e+01	-4.202757e+02
1.130000e-06	-2.606139e-06	-6.261078e-09	-1.974745e+01	-4.197668e+02
1.140000e-06	-2.597418e-06	-6.250999e-09	-1.968137e+01	-4.192423e+02
1.150000e-06	-2.588635e-06	-6.242512e-09	-1.961482e+01	-4.186999e+02
1.160000e-06	-2.579777e-06	-6.239208e-09	-1.954770e+01	-4.181372e+02
1.170000e-06	-2.570856e-06	-6.230573e-09	-1.948010e+01	-4.175524e+02
1.180000e-06	-2.561884e-06	-6.229526e-09	-1.941212e+01	-4.169439e+02
1.190000e-06	-2.552848e-06	-6.225334e-09	-1.934365e+01	-4.163103e+02
1.200000e-06	-2.543708e-06	-6.211433e-09	-1.927439e+01	-4.156510e+02
1.210000e-06	-2.534462e-06	-6.193220e-09	-1.920434e+01	-4.149655e+02
1.220000e-06	-2.525149e-06	-6.173983e-09	-1.913377e+01	-4.142539e+02
1.230000e-06	-2.515807e-06	-6.163385e-09	-1.906298e+01	-4.135166e+02
1.240000e-06	-2.506420e-06	-6.149656e-09	-1.899186e+01	-4.127544e+02
1.250000e-06	-2.496971e-06	-6.136931e-09	-1.892026e+01	-4.119683e+02
1.260000e-06	-2.487455e-06	-6.124654e-09	-1.884815e+01	-4.111596e+02
1.270000e-06	-2.477875e-06	-6.110605e-09	-1.877556e+01	-4.103296e+02
1.280000e-06	-2.468238e-06	-6.092853e-09	-1.870254e+01	-4.094800e+02
1.290000e-06	-2.458538e-06	-6.070904e-09	-1.862904e+01	-4.086122e+02
1.300000e-06	-2.448785e-06	-6.053720e-09	-1.855514e+01	-4.077277e+02
1.310000e-06	-2.438968e-06	-6.037176e-09	-1.848075e+01	-4.068278e+02
1.320000e-06	-2.429069e-06	-6.028430e-09	-1.840574e+01	-4.059137e+02
1.330000e-06	-2.419089e-06	-6.019034e-09	-1.833012e+01	-4.049863e+02
1.340000e-06	-2.409027e-06	-6.006761e-09	-1.825388e+01	-4.040464e+02
1.350000e-06	-2.398907e-06	-5.993577e-09	-1.817720e+01	-4.030945e+02
1.360000e-06	-2.388749e-06	-5.973523e-09	-1.810022e+01	-4.021310e+02
1.370000e-06	-2.378548e-06	-5.953252e-09	-1.802293e+01	-4.011560e+02
1.380000e-06	-2.368289e-06	-5.931495e-09	-1.794520e+01	-4.001694e+02
1.390000e-06	-2.357953e-06	-5.914574e-09	-1.786688e+01	-3.991713e+02
1.400000e-06	-2.347551e-06	-5.900742e-09	-1.778806e+01	-3.981614e+02
1.410000e-06	-2.337086e-06	-5.887868e-09	-1.770876e+01	-3.971397e+02
1.420000e-06	-2.326573e-06	-5.871614e-09	-1.762911e+01	-3.961063e+02
1.430000e-06	-2.316025e-06	-5.851352e-09	-1.754918e+01	-3.950612e+02
1.440000e-06	-2.305421e-06	-5.836816e-09	-1.746883e+01	-3.940049e+02
1.450000e-06	-2.294719e-06	-5.822458e-09	-1.738774e+01	-3.929379e+02
1.460000e-06	-2.283914e-06	-5.804688e-09	-1.730587e+01	-3.918611e+02
1.470000e-06	-2.273041e-06	-5.785702e-09	-1.722348e+01	-3.907756e+02
1.480000e-06	-2.262125e-06	-5.773589e-09	-1.714076e+01	-3.896827e+02
1.490000e-06	-2.251176e-06	-5.762468e-09	-1.705780e+01	-3.885840e+02
1.500000e-06	-2.240170e-06	-5.744980e-09	-1.697441e+01	-3.874814e+02
1.510000e-06	-2.229117e-06	-5.727089e-09	-1.689065e+01	-3.863767e+02
1.520000e-06	-2.218021e-06	-5.705206e-09	-1.680657e+01	-3.852720e+02
1.530000e-06	-2.206862e-06	-5.686181e-09	-1.672202e+01	-3.841691e+02
1.540000e-06	-2.195651e-06	-5.666880e-09	-1.663707e+01	-3.830701e+02
1.550000e-06	-2.184386e-06	-5.648554e-09	-1.655171e+01	-3.819767e+02
1.560000e-06	-2.173084e-06	-5.636370e-09	-1.646607e+01	-3.808903e+02
1.570000e-06	-2.161735e-06	-5.624353e-09	-1.638008e+01	-3.798124e+02
1.580000e-06	-2.150321e-06	-5.615701e-09	-1.629359e+01	-3.787437e+02
1.590000e-06	-2.138839e-06	-5.598484e-09	-1.620659e+01	-3.776849e+02
1.600000e-06	-2.127263e-06	-5.578582e-09	-1.611888e+01	-3.766360e+02
1.610000e-06	-2.115599e-06	-5.557055e-09	-1.603049e+01	-3.755966e+02
1.620000e-06	-2.103875e-06	-5.534261e-09	-1.594166e+01	-3.745662e+02
1.630000e-06	-2.092106e-06	-5.518711e-09	-1.585248e+01	-3.735436e+02
1.640000e-06	-2.080290e-06	-5.506121e-09	-1.576295e+01	-3.725273e+02
1.650000e-06	-2.068422e-06	-5.500482e-09	-1.567302e+01	-3.715156e+02
1.660000e-06	-2.056506e-06	-5.492880e-09	-1.558273e+01	-3.705066e+02
1.670000e-06	-2.044538e-06	-5.482647e-09	-1.549204e+01	-3.694981e+02
1.680000e-06	-2.032517e-06	-5.466384e-09	-1.540096e+01	-3.684879e+02
1.690000e-06	-2.020450e-06	-5.446088e-09	-1.530953e+01	-3.674737e+02
1.700000e-06	-2.008342e-06	-5.426629e-09	-1.521777e+01	-3.664534e+02
1.710000e-06	-1.996188e-06	-5.403655e-09	-1.512568e+01	-3.654249e+02
1.720000e-06	-1.983984e-06	-5.386698e-09	-1.503321e+01	-3.643863e+02
1.730000e-06	-1.971702e-06	-5.377673e-09	-1.494015e+01	-3.633358e+02
1.740000e-06	-1.959325e-06	-5.371236e-09	-1.484636e+01	-3.622721e+02
1.750000e-06	-1.946875e-06	-5.356212e-09	-1.475202e+01	-3.611939e+02
1.760000e-06	-1.934379e-06	-5.332949e-09	-1.465734e+01	-3.601002e+02
1.770000e-06	-1.921857e-06	-5.310218e-09	-1.456246e+01	-3.589904e+02
1.780000e-06	-1.909316e-06	-5.286114e-09	-1.446743e+01	-3.578639e+02
1.790000e-06	-1.896742e-06	-5.264719e-09	-1.437215e+01	-3.567204e+02
1.800000e-06	-1.884103e-06	-5.244944e-09	-1.427639e+01	-3.555599e+02
1.810000e-06	-1.871418e-06	-5.228311e-09	-1.418026e+01	-3.543822e+02
1.820000e-06	-1.858700e-06	-5.213495e-09	-1.408390e+01	-3.531875e+02
1.830000e-06	-1.845927e-06	-5.197768e-09	-1.398712e+01	-3.519758e+02
1.840000e-06	-1.833098e-06	-5.180319e-09	-1.388990e+01	-3.507471e+02
1.850000e-06	-1.820223e-06	-5.159786e-09	-1.379234e+01	-3.495016e+02
1.860000e-06	-1.807308e-06	-5.139187e-09	-1.369449e+01	-3.482392e+02
1.870000e-06	-1.794363e-06	-5.115175e-09	-1.359640e+01	-3.469598e+02
1.880000e-06	-1.781398e-06	-5.089725e-09	-1.349816e+01	-3.456632e+02
1.890000e-06	-1.768386e-06	-5.064055e-09	-1.339956e+01	-3.443493e+02
1.900000e-06	-1.755309e-06	-5.038634e-09	-1.330048e+01	-3.430176e+02
1.910000e-06	-1.742166e-06	-5.013975e-09	-1.320088e+01	-3.416679e+02
1.920000e-06	-1.728943e-06	-4.990325e-09	-1.310069e+01	-3.402999e+02
1.930000e-06	-1.715674e-06	-4.972538e-09	-1.300015e+01	-3.389131e+02
1.940000e-06	-1.702376e-06	-4.954992e-09	-1.289938e+01	-3.375074e+02
1.950000e-06	-1.689045e-06	-4.931404e-09	-1.279837e+01	-3.360826e+02
1.960000e-06	-1.675686e-06	-4.904720e-09	-1.269715e+01	-3.346386e+02
1.970000e-06	-1.662286e-06	-4.878162e-09	-1.259561e+01	-3.331755e+02
1.980000e-06	-1.648840e-06	-4.853810e-09	-1.249372e+01	-3.316935e+02
1.990000e-06	-1.635356e-06	-4.827321e-09	-1.239156e+01	-3.301932e+02
2.000000e-06	-1.621825e-06	-4.802552e-09	-1.228903e+01	-3.286750e+02
2.010000e-06	-1.608240e-06	-4.778727e-09	-1.218609e+01	-3.271398e+02
2.020000e-06	-1.594614e-06	-4.755980e-09	-1.208284e+01	-3.255886e+02
2.030000e-06	-1.580944e-06	-4.732950e-09	-1.197926e+01	-3.240225e+02
2.040000e-06	-1.567243e-06	-4.707367e-09	-1.187545e+01	-3.224428e+02
2.050000e-06	-1.553520e-06	-4.684272e-09	-1.177146e+01	-3.208510e+02
2.060000e-06	-1.539774e-06	-4.660210e-09	-1.166730e+01	-3.192483e+02
2.070000e-06	-1.526003e-06	-4.636812e-09	-1.156296e+01	-3.176365e+02
2.080000e-06	-1.512182e-06	-4.609954e-09	-1.145823e+01	-3.160169e+02
2.090000e-06	-1.498277e-06	-4.582918e-09	-1.135287e+01	-3.143913e+02
2.100000e-06	-1.484307e-06	-4.563446e-09	-1.124702e+01	-3.127610e+02
2.110000e-06	-1.470281e-06	-4.542113e-09	-1.114073e+01	-3.111275e+02
2.120000e-06	-1.456214e-06	-4.517687e-09	-1.103415e+01	-3.094922e+02
2.130000e-06	-1.442117e-06	-4.491567e-09	-1.092733e+01	-3.078564e+02
2.140000e-06	-1.427982e-06	-4.466619e-09	-1.082022e+01	-3.062212e+02
2.150000e-06	-1.413825e-06	-4.443496e-09	-1.071295e+01	-3.045877e+02
2.160000e-06	-1.399631e-06	-4.418504e-09	-1.060540e+01	-3.029569e+02
2.170000e-06	-1.385393e-06	-4.392431e-09	-1.049752e+01	-3.013296e+02
2.180000e-06	-1.371115e-06	-4.366722e-09	-1.038932e+01	-2.997067e+02
2.190000e-06	-1.356798e-06	-4.347634e-09	-1.028084e+01	-2.980888e+02
2.200000e-06	-1.342451e-06	-4.328683e-09	-1.017213e+01	-2.964765e+02
2.210000e-06	-1.328084e-06	-4.304837e-09	-1.006327e+01	-2.948703e+02
2.220000e-06	-1.313684e-06	-4.279997e-09	-9.954159e+00	-2.932707e+02
2.230000e-06	-1.299226e-06	-4.255761e-09	-9.844603e+00	-2.916780e+02
2.240000e-06	-1.284707e-06	-4.233126e-09	-9.734588e+00	-2.900926e+02
2.250000e-06	-1.270137e-06	-4.211566e-09	-9.624185e+00	-2.885145e+02
2.260000e-06	-1.255531e-06	-4.191033e-09	-9.513513e+00	-2.869440e+02
2.270000e-06	-1.240917e-06	-4.169387e-09	-9.402780e+00	-2.853810e+02
2.280000e-06	-1.226285e-06	-4.149006e-09	-9.291910e+00	-2.838255e+02
2.290000e-06	-1.211615e-06	-4.129346e-09	-9.180748e+00	-2.822770e+02
2.300000e-06	-1.196916e-06	-4.107509e-09	-9.069372e+00	-2.807353e+02
2.310000e-06	-1.182187e-06	-4.086144e-09	-8.957768e+00	-2.791999e+02
2.320000e-06	-1.167425e-06	-4.062522e-09	-8.845906e+00	-2.776699e+02
2.330000e-06	-1.152645e-06	-4.038986e-09	-8.733919e+00	-2.761445e+02
2.340000e-06	-1.137840e-06	-4.017693e-09	-8.621735e+00	-2.746226e+02
2.350000e-06	-1.122985e-06	-3.993725e-09	-8.509179e+00	-2.731031e+02
2.360000e-06	-1.108102e-06	-3.968608e-09	-8.396405e+00	-2.715846e+02
2.370000e-06	-1.093212e-06	-3.947275e-09	-8.283581e+00	-2.700654e+02
2.380000e-06	-1.078309e-06	-3.931594e-09	-8.170656e+00	-2.685440e+02
2.390000e-06	-1.063383e-06	-3.914474e-09	-8.057553e+00	-2.670185e+02
2.400000e-06	-1.048436e-06	-3.890824e-09	-7.944295e+00	-2.654872e+02
2.410000e-06	-1.033471e-06	-3.866374e-09	-7.830904e+00	-2.639481e+02
2.420000e-06	-1.018490e-06	-3.844478e-09	-7.717390e+00	-2.623992e+02
2.430000e-06	-1.003487e-06	-3.822154e-09	-7.603703e+00	-2.608387e+02
2.440000e-06	-9.884473e-07	-3.798907e-09	-7.489745e+00	-2.592646e+02
2.450000e-06	-9.733685e-07	-3.775179e-09	-7.375489e+00	-2.576752e+02
2.460000e-06	-9.582765e-07	-3.749457e-09	-7.261132e+00	-2.560685e+02
2.470000e-06	-9.431677e-07	-3.721527e-09	-7.146649e+00	-2.544431e+02
2.480000e-06	-9.280302e-07	-3.694147e-09	-7.031948e+00	-2.527975e+02
2.490000e-06	-9.128760e-07	-3.669842e-09	-6.917120e+00	-2.511302e+02
2.500000e-06	-8.976914e-07	-3.646593e-09	-6.802062e+00	-2.494400e+02
2.510000e-06	-8.824801e-07	-3.623431e-09	-6.686802e+00	-2.477261e+02
2.520000e-06	-8.672439e-07	-3.600036e-09	-6.571353e+00	-2.459876e+02
2.530000e-06	-8.519810e-07	-3.573137e-09	-6.455701e+00	-2.442237e+02
2.540000e-06	-8.366952e-07	-3.545451e-09	-6.339876e+00	-2.424341e+02
2.550000e-06	-8.213870e-07	-3.520796e-09	-6.223882e+00	-2.406185e+02
2.560000e-06	-8.060724e-07	-3.493933e-09	-6.107839e+00	-2.387768e+02
2.570000e-06	-7.907460e-07	-3.465462e-09	-5.991707e+00	-2.369091e+02
2.580000e-06	-7.754010e-07	-3.438725e-09	-5.875433e+00	-2.350157e+02
2.590000e-06	-7.600446e-07	-3.412152e-09	-5.759073e+00	-2.330969e+02
2.600000e-06	-7.446653e-07	-3.382269e-09	-5.642540e+00	-2.311535e+02
2.610000e-06	-7.292482e-07	-3.347931e-09	-5.525720e+00	-2.291861e+02
2.620000e-06	-7.137939e-07	-3.313008e-09	-5.408619e+00	-2.271957e+02
2.630000e-06	-6.983160e-07	-3.283285e-09	-5.291338e+00	-2.251834e+02
2.640000e-06	-6.828163e-07	-3.255326e-09	-5.173893e+00	-2.231501e+02
2.650000e-06	-6.673040e-07	-3.223168e-09	-5.056351e+00	-2.210974e+02
2.660000e-06	-6.517592e-07	-3.189982e-09	-4.938564e+00	-2.190264e+02
2.670000e-06	-6.361806e-07	-3.161902e-09	-4.820521e+00	-2.169387e+02
2.680000e-06	-6.205837e-07	-3.137594e-09	-4.702339e+00	-2.148358e+02
2.690000e-06	-6.049495e-07	-3.108435e-09	-4.583874e+00	-2.127192e+02
2.700000e-06	-5.892879e-07	-3.076070e-09	-4.465202e+00	-2.105904e+02
2.710000e-06	-5.736074e-07	-3.043633e-09	-4.346386e+00	-2.084508e+02
2.720000e-06	-5.579208e-07	-3.012768e-09	-4.227524e+00	-2.063021e+02
2.730000e-06	-5.422298e-07	-2.981169e-09	-4.108629e+00	-2.041454e+02
2.740000e-06	-5.265233e-07	-2.946457e-09	-3.989616e+00	-2.019822e+02
2.750000e-06	-5.108136e-07	-2.913504e-09	-3.870580e+00	-1.998134e+02
2.760000e-06	-4.950985e-07	-2.884730e-09	-3.751502e+00	-1.976402e+02
2.770000e-06	-4.793719e-07	-2.856572e-09	-3.632337e+00	-1.954632e+02
2.780000e-06	-4.636411e-07	-2.824376e-09	-3.513140e+00	-1.932831e+02
2.790000e-06	-4.479005e-07	-2.792881e-09	-3.393869e+00	-1.911005e+02
2.800000e-06	-4.321520e-07	-2.764467e-09	-3.274538e+00	-1.889156e+02
2.810000e-06	-4.164003e-07	-2.735312e-09	-3.155183e+00	-1.867285e+02
2.820000e-06	-4.006314e-07	-2.703857e-09	-3.035698e+00	-1.845394e+02
2.830000e-06	-3.848511e-07	-2.668169e-09	-2.916126e+00	-1.823480e+02
2.840000e-06	-3.690687e-07	-2.632972e-09	-2.796538e+00	-1.801542e+02
