# Temperatura_=_20.0
# Concentracion g/m^3_=_10000.0
# C_Vs_to_Am_M_A/Vsm_=_65563218390.804596
# pendiente_HvsI_1/m_=_3716.3
# ordenada_HvsI_A/m_=_1297.0
# frecuencia_Hz_=_81162.51886936458

Tiempo_(s)	Campo_(V.s)	Magnetizacion_(V.s)	Campo_(kA/m)	Magnetizacion_(A/m)
0.000000e+00	-3.109981e-06	-7.056283e-09	-2.355836e+01	-4.546397e+02
1.000000e-08	-3.109971e-06	-7.053260e-09	-2.355828e+01	-4.545787e+02
2.000000e-08	-3.110082e-06	-6.952399e-09	-2.355913e+01	-4.545027e+02
3.000000e-08	-3.110108e-06	-7.016693e-09	-2.355932e+01	-4.544155e+02
4.000000e-08	-3.109963e-06	-7.003472e-09	-2.355822e+01	-4.543201e+02
5.000000e-08	-3.109672e-06	-6.957016e-09	-2.355602e+01	-4.542197e+02
6.000000e-08	-3.109295e-06	-7.025308e-09	-2.355316e+01	-4.541167e+02
7.000000e-08	-3.108795e-06	-6.970917e-09	-2.354938e+01	-4.540132e+02
8.000000e-08	-3.108165e-06	-6.975332e-09	-2.354461e+01	-4.539107e+02
9.000000e-08	-3.107458e-06	-6.953947e-09	-2.353925e+01	-4.538102e+02
1.000000e-07	-3.106707e-06	-6.983003e-09	-2.353356e+01	-4.537121e+02
1.100000e-07	-3.105991e-06	-7.011490e-09	-2.352814e+01	-4.536162e+02
1.200000e-07	-3.105164e-06	-6.944846e-09	-2.352187e+01	-4.535221e+02
1.300000e-07	-3.104250e-06	-6.968691e-09	-2.351494e+01	-4.534289e+02
1.400000e-07	-3.103238e-06	-6.957390e-09	-2.350728e+01	-4.533354e+02
1.500000e-07	-3.102136e-06	-6.983088e-09	-2.349893e+01	-4.532405e+02
1.600000e-07	-3.100939e-06	-6.944084e-09	-2.348987e+01	-4.531427e+02
1.700000e-07	-3.099624e-06	-6.943666e-09	-2.347990e+01	-4.530410e+02
1.800000e-07	-3.098292e-06	-6.989636e-09	-2.346981e+01	-4.529342e+02
1.900000e-07	-3.096860e-06	-6.941165e-09	-2.345897e+01	-4.528217e+02
2.000000e-07	-3.095291e-06	-6.948450e-09	-2.344708e+01	-4.527030e+02
2.100000e-07	-3.093569e-06	-6.911149e-09	-2.343403e+01	-4.525780e+02
2.200000e-07	-3.091781e-06	-6.944745e-09	-2.342049e+01	-4.524473e+02
2.300000e-07	-3.089966e-06	-6.949922e-09	-2.340674e+01	-4.523115e+02
2.400000e-07	-3.088052e-06	-6.931635e-09	-2.339224e+01	-4.521717e+02
2.500000e-07	-3.086065e-06	-6.937069e-09	-2.337719e+01	-4.520294e+02
2.600000e-07	-3.083999e-06	-6.909125e-09	-2.336154e+01	-4.518862e+02
2.700000e-07	-3.081874e-06	-6.945684e-09	-2.334544e+01	-4.517441e+02
2.800000e-07	-3.079664e-06	-6.916383e-09	-2.332871e+01	-4.516047e+02
2.900000e-07	-3.077371e-06	-6.915043e-09	-2.331133e+01	-4.514700e+02
3.000000e-07	-3.075004e-06	-6.903128e-09	-2.329340e+01	-4.513416e+02
3.100000e-07	-3.072561e-06	-6.902553e-09	-2.327490e+01	-4.512209e+02
3.200000e-07	-3.070082e-06	-6.924641e-09	-2.325612e+01	-4.511090e+02
3.300000e-07	-3.067536e-06	-6.893929e-09	-2.323683e+01	-4.510066e+02
3.400000e-07	-3.064928e-06	-6.907809e-09	-2.321708e+01	-4.509138e+02
3.500000e-07	-3.062196e-06	-6.889286e-09	-2.319638e+01	-4.508304e+02
3.600000e-07	-3.059331e-06	-6.902860e-09	-2.317468e+01	-4.507558e+02
3.700000e-07	-3.056398e-06	-6.898884e-09	-2.315247e+01	-4.506886e+02
3.800000e-07	-3.053386e-06	-6.882020e-09	-2.312964e+01	-4.506273e+02
3.900000e-07	-3.050308e-06	-6.890476e-09	-2.310633e+01	-4.505698e+02
4.000000e-07	-3.047132e-06	-6.879065e-09	-2.308227e+01	-4.505140e+02
4.100000e-07	-3.043901e-06	-6.909044e-09	-2.305780e+01	-4.504573e+02
4.200000e-07	-3.040633e-06	-6.887511e-09	-2.303304e+01	-4.503970e+02
4.300000e-07	-3.037297e-06	-6.875594e-09	-2.300777e+01	-4.503307e+02
4.400000e-07	-3.033892e-06	-6.870035e-09	-2.298198e+01	-4.502556e+02
4.500000e-07	-3.030395e-06	-6.866679e-09	-2.295548e+01	-4.501695e+02
4.600000e-07	-3.026786e-06	-6.880895e-09	-2.292815e+01	-4.500700e+02
4.700000e-07	-3.023064e-06	-6.858442e-09	-2.289996e+01	-4.499552e+02
4.800000e-07	-3.019289e-06	-6.873746e-09	-2.287136e+01	-4.498235e+02
4.900000e-07	-3.015444e-06	-6.870188e-09	-2.284223e+01	-4.496737e+02
5.000000e-07	-3.011517e-06	-6.870878e-09	-2.281249e+01	-4.495048e+02
5.100000e-07	-3.007504e-06	-6.852412e-09	-2.278208e+01	-4.493161e+02
5.200000e-07	-3.003411e-06	-6.825417e-09	-2.275108e+01	-4.491074e+02
5.300000e-07	-2.999286e-06	-6.833308e-09	-2.271984e+01	-4.488785e+02
5.400000e-07	-2.995075e-06	-6.822108e-09	-2.268793e+01	-4.486298e+02
5.500000e-07	-2.990748e-06	-6.834141e-09	-2.265516e+01	-4.483614e+02
5.600000e-07	-2.986319e-06	-6.822593e-09	-2.262161e+01	-4.480739e+02
5.700000e-07	-2.981807e-06	-6.824320e-09	-2.258743e+01	-4.477677e+02
5.800000e-07	-2.977242e-06	-6.826387e-09	-2.255285e+01	-4.474434e+02
5.900000e-07	-2.972593e-06	-6.807153e-09	-2.251764e+01	-4.471015e+02
6.000000e-07	-2.967873e-06	-6.798064e-09	-2.248188e+01	-4.467423e+02
6.100000e-07	-2.963074e-06	-6.772841e-09	-2.244553e+01	-4.463662e+02
6.200000e-07	-2.958207e-06	-6.779146e-09	-2.240866e+01	-4.459734e+02
6.300000e-07	-2.953275e-06	-6.771400e-09	-2.237130e+01	-4.455641e+02
6.400000e-07	-2.948255e-06	-6.764648e-09	-2.233327e+01	-4.451384e+02
6.500000e-07	-2.943112e-06	-6.761166e-09	-2.229431e+01	-4.446963e+02
6.600000e-07	-2.937842e-06	-6.749552e-09	-2.225439e+01	-4.442379e+02
6.700000e-07	-2.932506e-06	-6.750787e-09	-2.221397e+01	-4.437633e+02
6.800000e-07	-2.927082e-06	-6.728096e-09	-2.217288e+01	-4.432725e+02
6.900000e-07	-2.921576e-06	-6.719674e-09	-2.213117e+01	-4.427659e+02
7.000000e-07	-2.916009e-06	-6.702211e-09	-2.208901e+01	-4.422437e+02
7.100000e-07	-2.910370e-06	-6.694344e-09	-2.204629e+01	-4.417065e+02
7.200000e-07	-2.904669e-06	-6.691011e-09	-2.200310e+01	-4.411550e+02
7.300000e-07	-2.898896e-06	-6.673158e-09	-2.195937e+01	-4.405901e+02
7.400000e-07	-2.893071e-06	-6.669042e-09	-2.191525e+01	-4.400128e+02
7.500000e-07	-2.887130e-06	-6.651317e-09	-2.187024e+01	-4.394245e+02
7.600000e-07	-2.881063e-06	-6.647667e-09	-2.182429e+01	-4.388264e+02
7.700000e-07	-2.874943e-06	-6.632102e-09	-2.177793e+01	-4.382202e+02
7.800000e-07	-2.868761e-06	-6.620403e-09	-2.173110e+01	-4.376074e+02
7.900000e-07	-2.862519e-06	-6.616674e-09	-2.168381e+01	-4.369896e+02
8.000000e-07	-2.856209e-06	-6.601091e-09	-2.163602e+01	-4.363684e+02
8.100000e-07	-2.849835e-06	-6.593334e-09	-2.158773e+01	-4.357455e+02
8.200000e-07	-2.843378e-06	-6.567572e-09	-2.153882e+01	-4.351224e+02
8.300000e-07	-2.836864e-06	-6.554024e-09	-2.148948e+01	-4.345003e+02
8.400000e-07	-2.830296e-06	-6.543019e-09	-2.143972e+01	-4.338804e+02
8.500000e-07	-2.823626e-06	-6.535041e-09	-2.138920e+01	-4.332639e+02
8.600000e-07	-2.816854e-06	-6.530690e-09	-2.133790e+01	-4.326514e+02
8.700000e-07	-2.809994e-06	-6.517837e-09	-2.128593e+01	-4.320436e+02
8.800000e-07	-2.803086e-06	-6.516584e-09	-2.123360e+01	-4.314411e+02
8.900000e-07	-2.796124e-06	-6.501943e-09	-2.118086e+01	-4.308439e+02
9.000000e-07	-2.789098e-06	-6.491994e-09	-2.112764e+01	-4.302523e+02
9.100000e-07	-2.781995e-06	-6.476622e-09	-2.107384e+01	-4.296662e+02
9.200000e-07	-2.774809e-06	-6.461799e-09	-2.101940e+01	-4.290854e+02
9.300000e-07	-2.767563e-06	-6.456934e-09	-2.096452e+01	-4.285099e+02
9.400000e-07	-2.760255e-06	-6.445740e-09	-2.090916e+01	-4.279393e+02
9.500000e-07	-2.752893e-06	-6.441769e-09	-2.085339e+01	-4.273734e+02
9.600000e-07	-2.745436e-06	-6.429447e-09	-2.079690e+01	-4.268118e+02
9.700000e-07	-2.737871e-06	-6.425179e-09	-2.073959e+01	-4.262544e+02
9.800000e-07	-2.730225e-06	-6.417779e-09	-2.068168e+01	-4.257008e+02
9.900000e-07	-2.722502e-06	-6.405231e-09	-2.062317e+01	-4.251509e+02
1.000000e-06	-2.714711e-06	-6.394300e-09	-2.056415e+01	-4.246042e+02
1.010000e-06	-2.706839e-06	-6.375020e-09	-2.050452e+01	-4.240607e+02
1.020000e-06	-2.698911e-06	-6.364936e-09	-2.044447e+01	-4.235200e+02
1.030000e-06	-2.690900e-06	-6.352463e-09	-2.038378e+01	-4.229816e+02
1.040000e-06	-2.682776e-06	-6.346238e-09	-2.032224e+01	-4.224452e+02
1.050000e-06	-2.674567e-06	-6.341078e-09	-2.026006e+01	-4.219102e+02
1.060000e-06	-2.666297e-06	-6.335637e-09	-2.019742e+01	-4.213759e+02
1.070000e-06	-2.657981e-06	-6.332900e-09	-2.013442e+01	-4.208414e+02
1.080000e-06	-2.649582e-06	-6.321886e-09	-2.007080e+01	-4.203059e+02
1.090000e-06	-2.641117e-06	-6.314554e-09	-2.000668e+01	-4.197681e+02
1.100000e-06	-2.632614e-06	-6.300688e-09	-1.994227e+01	-4.192269e+02
1.110000e-06	-2.624069e-06	-6.288719e-09	-1.987754e+01	-4.186807e+02
1.120000e-06	-2.615462e-06	-6.274835e-09	-1.981233e+01	-4.181281e+02
1.130000e-06	-2.606780e-06	-6.259502e-09	-1.974657e+01	-4.175675e+02
1.140000e-06	-2.598056e-06	-6.249344e-09	-1.968048e+01	-4.169972e+02
1.150000e-06	-2.589250e-06	-6.237787e-09	-1.961378e+01	-4.164158e+02
1.160000e-06	-2.580368e-06	-6.232971e-09	-1.954650e+01	-4.158216e+02
1.170000e-06	-2.571448e-06	-6.223028e-09	-1.947893e+01	-4.152131e+02
1.180000e-06	-2.562488e-06	-6.215870e-09	-1.941106e+01	-4.145890e+02
1.190000e-06	-2.553463e-06	-6.206624e-09	-1.934269e+01	-4.139481e+02
1.200000e-06	-2.544324e-06	-6.192207e-09	-1.927346e+01	-4.132895e+02
1.210000e-06	-2.535081e-06	-6.176182e-09	-1.920345e+01	-4.126124e+02
1.220000e-06	-2.525780e-06	-6.152914e-09	-1.913299e+01	-4.119163e+02
1.230000e-06	-2.516447e-06	-6.137256e-09	-1.906229e+01	-4.112010e+02
1.240000e-06	-2.507064e-06	-6.125753e-09	-1.899122e+01	-4.104662e+02
1.250000e-06	-2.497611e-06	-6.118617e-09	-1.891961e+01	-4.097123e+02
1.260000e-06	-2.488100e-06	-6.109029e-09	-1.884756e+01	-4.089395e+02
1.270000e-06	-2.478511e-06	-6.095617e-09	-1.877492e+01	-4.081483e+02
1.280000e-06	-2.468858e-06	-6.079464e-09	-1.870180e+01	-4.073394e+02
1.290000e-06	-2.459155e-06	-6.055780e-09	-1.862830e+01	-4.065135e+02
1.300000e-06	-2.449403e-06	-6.036332e-09	-1.855442e+01	-4.056713e+02
1.310000e-06	-2.439591e-06	-6.015130e-09	-1.848010e+01	-4.048136e+02
1.320000e-06	-2.429703e-06	-5.998610e-09	-1.840520e+01	-4.039412e+02
1.330000e-06	-2.419715e-06	-5.986423e-09	-1.832954e+01	-4.030548e+02
1.340000e-06	-2.409637e-06	-5.972333e-09	-1.825320e+01	-4.021550e+02
1.350000e-06	-2.399522e-06	-5.961386e-09	-1.817658e+01	-4.012425e+02
1.360000e-06	-2.389362e-06	-5.946467e-09	-1.809961e+01	-4.003177e+02
1.370000e-06	-2.379151e-06	-5.931902e-09	-1.802226e+01	-3.993812e+02
1.380000e-06	-2.368872e-06	-5.911253e-09	-1.794440e+01	-3.984334e+02
1.390000e-06	-2.358526e-06	-5.888955e-09	-1.786603e+01	-3.974747e+02
1.400000e-06	-2.348118e-06	-5.869716e-09	-1.778718e+01	-3.965055e+02
1.410000e-06	-2.337649e-06	-5.851140e-09	-1.770788e+01	-3.955262e+02
1.420000e-06	-2.327148e-06	-5.834186e-09	-1.762834e+01	-3.945372e+02
1.430000e-06	-2.316597e-06	-5.815284e-09	-1.754841e+01	-3.935392e+02
1.440000e-06	-2.305983e-06	-5.804929e-09	-1.746801e+01	-3.925328e+02
1.450000e-06	-2.295270e-06	-5.797363e-09	-1.738686e+01	-3.915188e+02
1.460000e-06	-2.284450e-06	-5.785891e-09	-1.730489e+01	-3.904980e+02
1.470000e-06	-2.273579e-06	-5.770095e-09	-1.722255e+01	-3.894715e+02
1.480000e-06	-2.262674e-06	-5.753369e-09	-1.713994e+01	-3.884403e+02
1.490000e-06	-2.251726e-06	-5.739030e-09	-1.705701e+01	-3.874058e+02
1.500000e-06	-2.240718e-06	-5.719522e-09	-1.697362e+01	-3.863692e+02
1.510000e-06	-2.229652e-06	-5.697220e-09	-1.688979e+01	-3.853318e+02
1.520000e-06	-2.218547e-06	-5.675487e-09	-1.680567e+01	-3.842950e+02
1.530000e-06	-2.207395e-06	-5.661075e-09	-1.672120e+01	-3.832600e+02
1.540000e-06	-2.196177e-06	-5.649221e-09	-1.663622e+01	-3.822281e+02
1.550000e-06	-2.184900e-06	-5.633881e-09	-1.655079e+01	-3.812002e+02
1.560000e-06	-2.173592e-06	-5.620323e-09	-1.646513e+01	-3.801774e+02
1.570000e-06	-2.162244e-06	-5.604242e-09	-1.637918e+01	-3.791603e+02
1.580000e-06	-2.150826e-06	-5.590244e-09	-1.629268e+01	-3.781493e+02
1.590000e-06	-2.139317e-06	-5.571265e-09	-1.620550e+01	-3.771448e+02
1.600000e-06	-2.127735e-06	-5.550577e-09	-1.611777e+01	-3.761466e+02
1.610000e-06	-2.116081e-06	-5.534716e-09	-1.602948e+01	-3.751544e+02
1.620000e-06	-2.104359e-06	-5.517963e-09	-1.594069e+01	-3.741676e+02
1.630000e-06	-2.092599e-06	-5.504083e-09	-1.585161e+01	-3.731856e+02
1.640000e-06	-2.080777e-06	-5.489286e-09	-1.576205e+01	-3.722072e+02
1.650000e-06	-2.068889e-06	-5.478791e-09	-1.567201e+01	-3.712314e+02
1.660000e-06	-2.056957e-06	-5.467795e-09	-1.558162e+01	-3.702567e+02
1.670000e-06	-2.044985e-06	-5.454032e-09	-1.549093e+01	-3.692819e+02
1.680000e-06	-2.032956e-06	-5.439404e-09	-1.539981e+01	-3.683053e+02
1.690000e-06	-2.020870e-06	-5.422955e-09	-1.530826e+01	-3.673256e+02
1.700000e-06	-2.008755e-06	-5.406667e-09	-1.521648e+01	-3.663414e+02
1.710000e-06	-1.996605e-06	-5.385348e-09	-1.512444e+01	-3.653511e+02
1.720000e-06	-1.984402e-06	-5.367700e-09	-1.503201e+01	-3.643535e+02
1.730000e-06	-1.972117e-06	-5.354894e-09	-1.493895e+01	-3.633472e+02
1.740000e-06	-1.959750e-06	-5.343844e-09	-1.484527e+01	-3.623313e+02
1.750000e-06	-1.947323e-06	-5.330642e-09	-1.475113e+01	-3.613046e+02
1.760000e-06	-1.934848e-06	-5.309996e-09	-1.465663e+01	-3.602662e+02
1.770000e-06	-1.922338e-06	-5.289418e-09	-1.456186e+01	-3.592153e+02
1.780000e-06	-1.909784e-06	-5.268827e-09	-1.446677e+01	-3.581509e+02
1.790000e-06	-1.897184e-06	-5.250663e-09	-1.437132e+01	-3.570725e+02
1.800000e-06	-1.884535e-06	-5.233940e-09	-1.427551e+01	-3.559793e+02
1.810000e-06	-1.871839e-06	-5.216143e-09	-1.417933e+01	-3.548705e+02
1.820000e-06	-1.859112e-06	-5.199782e-09	-1.408293e+01	-3.537455e+02
1.830000e-06	-1.846345e-06	-5.183478e-09	-1.398621e+01	-3.526036e+02
1.840000e-06	-1.833531e-06	-5.166802e-09	-1.388915e+01	-3.514439e+02
1.850000e-06	-1.820673e-06	-5.147569e-09	-1.379175e+01	-3.502657e+02
1.860000e-06	-1.807771e-06	-5.130397e-09	-1.369401e+01	-3.490682e+02
1.870000e-06	-1.794836e-06	-5.115494e-09	-1.359603e+01	-3.478505e+02
1.880000e-06	-1.781872e-06	-5.094342e-09	-1.349783e+01	-3.466118e+02
1.890000e-06	-1.768848e-06	-5.069395e-09	-1.339917e+01	-3.453513e+02
1.900000e-06	-1.755751e-06	-5.041932e-09	-1.329996e+01	-3.440683e+02
1.910000e-06	-1.742588e-06	-5.015587e-09	-1.320024e+01	-3.427620e+02
1.920000e-06	-1.729360e-06	-4.991889e-09	-1.310004e+01	-3.414320e+02
1.930000e-06	-1.716088e-06	-4.973046e-09	-1.299950e+01	-3.400778e+02
1.940000e-06	-1.702794e-06	-4.955346e-09	-1.289880e+01	-3.386992e+02
1.950000e-06	-1.689478e-06	-4.933143e-09	-1.279793e+01	-3.372960e+02
1.960000e-06	-1.676122e-06	-4.911424e-09	-1.269676e+01	-3.358686e+02
1.970000e-06	-1.662725e-06	-4.887931e-09	-1.259527e+01	-3.344172e+02
1.980000e-06	-1.649275e-06	-4.860323e-09	-1.249339e+01	-3.329425e+02
1.990000e-06	-1.635780e-06	-4.829056e-09	-1.239117e+01	-3.314453e+02
2.000000e-06	-1.622243e-06	-4.803994e-09	-1.228863e+01	-3.299267e+02
2.010000e-06	-1.608665e-06	-4.782108e-09	-1.218577e+01	-3.283879e+02
2.020000e-06	-1.595042e-06	-4.759228e-09	-1.208257e+01	-3.268304e+02
2.030000e-06	-1.581366e-06	-4.736940e-09	-1.197898e+01	-3.252556e+02
2.040000e-06	-1.567667e-06	-4.712710e-09	-1.187521e+01	-3.236654e+02
2.050000e-06	-1.553953e-06	-4.691191e-09	-1.177132e+01	-3.220614e+02
2.060000e-06	-1.540198e-06	-4.667895e-09	-1.166713e+01	-3.204456e+02
2.070000e-06	-1.526398e-06	-4.641426e-09	-1.156259e+01	-3.188195e+02
2.080000e-06	-1.512552e-06	-4.613400e-09	-1.145771e+01	-3.171852e+02
2.090000e-06	-1.498641e-06	-4.584798e-09	-1.135233e+01	-3.155442e+02
2.100000e-06	-1.484663e-06	-4.561282e-09	-1.124644e+01	-3.138983e+02
2.110000e-06	-1.470637e-06	-4.536718e-09	-1.114019e+01	-3.122491e+02
2.120000e-06	-1.456574e-06	-4.510863e-09	-1.103366e+01	-3.105979e+02
2.130000e-06	-1.442474e-06	-4.485703e-09	-1.092686e+01	-3.089461e+02
2.140000e-06	-1.428342e-06	-4.463458e-09	-1.081981e+01	-3.072949e+02
2.150000e-06	-1.414171e-06	-4.442534e-09	-1.071246e+01	-3.056455e+02
2.160000e-06	-1.399970e-06	-4.416784e-09	-1.060489e+01	-3.039986e+02
2.170000e-06	-1.385731e-06	-4.391034e-09	-1.049703e+01	-3.023553e+02
2.180000e-06	-1.371448e-06	-4.365914e-09	-1.038883e+01	-3.007162e+02
2.190000e-06	-1.357129e-06	-4.343917e-09	-1.028037e+01	-2.990820e+02
2.200000e-06	-1.342767e-06	-4.323305e-09	-1.017157e+01	-2.974531e+02
2.210000e-06	-1.328375e-06	-4.301220e-09	-1.006255e+01	-2.958301e+02
2.220000e-06	-1.313939e-06	-4.277674e-09	-9.953198e+00	-2.942133e+02
2.230000e-06	-1.299444e-06	-4.252762e-09	-9.843396e+00	-2.926030e+02
2.240000e-06	-1.284904e-06	-4.229787e-09	-9.733250e+00	-2.909992e+02
2.250000e-06	-1.270333e-06	-4.208808e-09	-9.622876e+00	-2.894022e+02
2.260000e-06	-1.255738e-06	-4.189129e-09	-9.512316e+00	-2.878119e+02
2.270000e-06	-1.241111e-06	-4.166778e-09	-9.401519e+00	-2.862281e+02
2.280000e-06	-1.226451e-06	-4.144443e-09	-9.290464e+00	-2.846507e+02
2.290000e-06	-1.211764e-06	-4.124043e-09	-9.179211e+00	-2.830792e+02
2.300000e-06	-1.197062e-06	-4.101725e-09	-9.067844e+00	-2.815131e+02
2.310000e-06	-1.182333e-06	-4.079078e-09	-8.956270e+00	-2.799519e+02
2.320000e-06	-1.167561e-06	-4.054785e-09	-8.844373e+00	-2.783947e+02
2.330000e-06	-1.152756e-06	-4.029699e-09	-8.732218e+00	-2.768405e+02
2.340000e-06	-1.137932e-06	-4.010919e-09	-8.619924e+00	-2.752885e+02
2.350000e-06	-1.123087e-06	-3.993581e-09	-8.507479e+00	-2.737373e+02
2.360000e-06	-1.108219e-06	-3.972992e-09	-8.394846e+00	-2.721857e+02
2.370000e-06	-1.093327e-06	-3.950904e-09	-8.282040e+00	-2.706322e+02
2.380000e-06	-1.078413e-06	-3.929387e-09	-8.169070e+00	-2.690754e+02
2.390000e-06	-1.063480e-06	-3.908526e-09	-8.055949e+00	-2.675137e+02
2.400000e-06	-1.048536e-06	-3.885042e-09	-7.942748e+00	-2.659455e+02
2.410000e-06	-1.033569e-06	-3.858184e-09	-7.829369e+00	-2.643691e+02
2.420000e-06	-1.018567e-06	-3.830222e-09	-7.715731e+00	-2.627829e+02
2.430000e-06	-1.003542e-06	-3.805926e-09	-7.601911e+00	-2.611854e+02
2.440000e-06	-9.884907e-07	-3.784813e-09	-7.487897e+00	-2.595748e+02
2.450000e-06	-9.734156e-07	-3.764659e-09	-7.373702e+00	-2.579498e+02
2.460000e-06	-9.583138e-07	-3.743743e-09	-7.259305e+00	-2.563087e+02
2.470000e-06	-9.431869e-07	-3.720071e-09	-7.144717e+00	-2.546503e+02
2.480000e-06	-9.280400e-07	-3.696414e-09	-7.029979e+00	-2.529733e+02
2.490000e-06	-9.128679e-07	-3.672929e-09	-6.915049e+00	-2.512765e+02
2.500000e-06	-8.976732e-07	-3.645498e-09	-6.799948e+00	-2.495588e+02
2.510000e-06	-8.824648e-07	-3.616661e-09	-6.684742e+00	-2.478193e+02
2.520000e-06	-8.672309e-07	-3.589068e-09	-6.569345e+00	-2.460572e+02
2.530000e-06	-8.519665e-07	-3.562633e-09	-6.453715e+00	-2.442717e+02
2.540000e-06	-8.366800e-07	-3.536059e-09	-6.337919e+00	-2.424624e+02
2.550000e-06	-8.213736e-07	-3.510435e-09	-6.221972e+00	-2.406288e+02
2.560000e-06	-8.060538e-07	-3.484815e-09	-6.105923e+00	-2.387707e+02
2.570000e-06	-7.907090e-07	-3.457247e-09	-5.989685e+00	-2.368879e+02
2.580000e-06	-7.753396e-07	-3.429912e-09	-5.873261e+00	-2.349807e+02
2.590000e-06	-7.599599e-07	-3.400325e-09	-5.756758e+00	-2.330492e+02
2.600000e-06	-7.445667e-07	-3.369390e-09	-5.640153e+00	-2.310938e+02
2.610000e-06	-7.291464e-07	-3.339180e-09	-5.523343e+00	-2.291153e+02
2.620000e-06	-7.136959e-07	-3.307768e-09	-5.406304e+00	-2.271145e+02
2.630000e-06	-6.982263e-07	-3.275633e-09	-5.289121e+00	-2.250924e+02
2.640000e-06	-6.827114e-07	-3.246176e-09	-5.171595e+00	-2.230501e+02
2.650000e-06	-6.671556e-07	-3.216952e-09	-5.053758e+00	-2.209892e+02
2.660000e-06	-6.515964e-07	-3.185886e-09	-4.935896e+00	-2.189111e+02
2.670000e-06	-6.360092e-07	-3.156681e-09	-4.817821e+00	-2.168175e+02
2.680000e-06	-6.203889e-07	-3.126142e-09	-4.699496e+00	-2.147102e+02
2.690000e-06	-6.047541e-07	-3.092683e-09	-4.581061e+00	-2.125912e+02
2.700000e-06	-5.891042e-07	-3.058965e-09	-4.462512e+00	-2.104621e+02
2.710000e-06	-5.734367e-07	-3.023817e-09	-4.343829e+00	-2.083250e+02
2.720000e-06	-5.577495e-07	-2.989071e-09	-4.224998e+00	-2.061815e+02
2.730000e-06	-5.420564e-07	-2.956210e-09	-4.106121e+00	-2.040334e+02
2.740000e-06	-5.263553e-07	-2.924235e-09	-3.987185e+00	-2.018822e+02
2.750000e-06	-5.106474e-07	-2.894494e-09	-3.868195e+00	-1.997291e+02
2.760000e-06	-4.949367e-07	-2.866160e-09	-3.749186e+00	-1.975754e+02
2.770000e-06	-4.792168e-07	-2.838533e-09	-3.630106e+00	-1.954217e+02
2.780000e-06	-4.634826e-07	-2.811193e-09	-3.510919e+00	-1.932687e+02
2.790000e-06	-4.477441e-07	-2.785224e-09	-3.391698e+00	-1.911166e+02
2.800000e-06	-4.320025e-07	-2.759248e-09	-3.272454e+00	-1.889654e+02
2.810000e-06	-4.162485e-07	-2.728844e-09	-3.153116e+00	-1.868148e+02
2.820000e-06	-4.004814e-07	-2.695689e-09	-3.033679e+00	-1.846642e+02
2.830000e-06	-3.847084e-07	-2.658893e-09	-2.914197e+00	-1.825131e+02
2.840000e-06	-3.689266e-07	-2.621732e-09	-2.794649e+00	-1.803604e+02
