# Temperatura_=_20.0
# Concentracion g/m^3_=_10000.0
# C_Vs_to_Am_M_A/Vsm_=_65563218390.804596
# pendiente_HvsI_1/m_=_3716.3
# ordenada_HvsI_A/m_=_1297.0
# frecuencia_Hz_=_81163.02561418366

Tiempo_(s)	Campo_(V.s)	Magnetizacion_(V.s)	Campo_(kA/m)	Magnetizacion_(A/m)
0.000000e+00	-3.109208e-06	-6.889698e-09	-2.355989e+01	-4.551780e+02
1.000000e-08	-3.109165e-06	-7.025240e-09	-2.355957e+01	-4.551298e+02
2.000000e-08	-3.109269e-06	-6.968955e-09	-2.356035e+01	-4.550736e+02
3.000000e-08	-3.109322e-06	-6.898110e-09	-2.356075e+01	-4.550119e+02
4.000000e-08	-3.109201e-06	-7.005018e-09	-2.355984e+01	-4.549470e+02
5.000000e-08	-3.108925e-06	-6.953636e-09	-2.355775e+01	-4.548811e+02
6.000000e-08	-3.108551e-06	-6.955855e-09	-2.355491e+01	-4.548160e+02
7.000000e-08	-3.108081e-06	-6.967181e-09	-2.355135e+01	-4.547532e+02
8.000000e-08	-3.107462e-06	-6.906907e-09	-2.354666e+01	-4.546936e+02
9.000000e-08	-3.106766e-06	-6.929222e-09	-2.354139e+01	-4.546380e+02
1.000000e-07	-3.105993e-06	-6.933189e-09	-2.353553e+01	-4.545864e+02
1.100000e-07	-3.105269e-06	-6.990067e-09	-2.353004e+01	-4.545388e+02
1.200000e-07	-3.104461e-06	-6.963231e-09	-2.352392e+01	-4.544944e+02
1.300000e-07	-3.103528e-06	-6.919799e-09	-2.351685e+01	-4.544525e+02
1.400000e-07	-3.102525e-06	-6.918638e-09	-2.350925e+01	-4.544117e+02
1.500000e-07	-3.101423e-06	-6.922509e-09	-2.350090e+01	-4.543709e+02
1.600000e-07	-3.100259e-06	-6.951994e-09	-2.349208e+01	-4.543286e+02
1.700000e-07	-3.098958e-06	-6.882927e-09	-2.348222e+01	-4.542834e+02
1.800000e-07	-3.097618e-06	-6.914067e-09	-2.347207e+01	-4.542339e+02
1.900000e-07	-3.096204e-06	-6.937624e-09	-2.346135e+01	-4.541792e+02
2.000000e-07	-3.094657e-06	-6.938545e-09	-2.344963e+01	-4.541181e+02
2.100000e-07	-3.092954e-06	-6.923954e-09	-2.343673e+01	-4.540501e+02
2.200000e-07	-3.091165e-06	-6.877660e-09	-2.342317e+01	-4.539749e+02
2.300000e-07	-3.089367e-06	-6.916032e-09	-2.340955e+01	-4.538923e+02
2.400000e-07	-3.087463e-06	-6.920669e-09	-2.339512e+01	-4.538028e+02
2.500000e-07	-3.085492e-06	-6.931856e-09	-2.338019e+01	-4.537068e+02
2.600000e-07	-3.083449e-06	-6.886915e-09	-2.336470e+01	-4.536051e+02
2.700000e-07	-3.081325e-06	-6.879681e-09	-2.334861e+01	-4.534988e+02
2.800000e-07	-3.079129e-06	-6.912298e-09	-2.333197e+01	-4.533889e+02
2.900000e-07	-3.076838e-06	-6.895188e-09	-2.331461e+01	-4.532766e+02
3.000000e-07	-3.074490e-06	-6.892907e-09	-2.329682e+01	-4.531630e+02
3.100000e-07	-3.072058e-06	-6.862473e-09	-2.327839e+01	-4.530490e+02
3.200000e-07	-3.069569e-06	-6.892981e-09	-2.325953e+01	-4.529355e+02
3.300000e-07	-3.067013e-06	-6.895761e-09	-2.324016e+01	-4.528228e+02
3.400000e-07	-3.064392e-06	-6.868146e-09	-2.322030e+01	-4.527113e+02
3.500000e-07	-3.061672e-06	-6.852943e-09	-2.319969e+01	-4.526009e+02
3.600000e-07	-3.058806e-06	-6.838993e-09	-2.317797e+01	-4.524909e+02
3.700000e-07	-3.055886e-06	-6.872657e-09	-2.315585e+01	-4.523806e+02
3.800000e-07	-3.052896e-06	-6.864527e-09	-2.313319e+01	-4.522689e+02
3.900000e-07	-3.049835e-06	-6.866235e-09	-2.310999e+01	-4.521542e+02
4.000000e-07	-3.046690e-06	-6.855750e-09	-2.308616e+01	-4.520349e+02
4.100000e-07	-3.043483e-06	-6.856318e-09	-2.306187e+01	-4.519091e+02
4.200000e-07	-3.040219e-06	-6.866236e-09	-2.303713e+01	-4.517748e+02
4.300000e-07	-3.036873e-06	-6.830558e-09	-2.301178e+01	-4.516300e+02
4.400000e-07	-3.033476e-06	-6.818961e-09	-2.298604e+01	-4.514727e+02
4.500000e-07	-3.029974e-06	-6.804380e-09	-2.295950e+01	-4.513012e+02
4.600000e-07	-3.026372e-06	-6.825364e-09	-2.293220e+01	-4.511137e+02
4.700000e-07	-3.022680e-06	-6.823087e-09	-2.290423e+01	-4.509090e+02
4.800000e-07	-3.018902e-06	-6.799965e-09	-2.287561e+01	-4.506859e+02
4.900000e-07	-3.015057e-06	-6.801456e-09	-2.284647e+01	-4.504436e+02
5.000000e-07	-3.011138e-06	-6.798070e-09	-2.281677e+01	-4.501819e+02
5.100000e-07	-3.007155e-06	-6.808390e-09	-2.278659e+01	-4.499005e+02
5.200000e-07	-3.003075e-06	-6.776877e-09	-2.275567e+01	-4.495998e+02
5.300000e-07	-2.998937e-06	-6.764049e-09	-2.272431e+01	-4.492803e+02
5.400000e-07	-2.994745e-06	-6.767590e-09	-2.269255e+01	-4.489429e+02
5.500000e-07	-2.990443e-06	-6.770476e-09	-2.265996e+01	-4.485884e+02
5.600000e-07	-2.986023e-06	-6.772298e-09	-2.262646e+01	-4.482181e+02
5.700000e-07	-2.981515e-06	-6.750957e-09	-2.259230e+01	-4.478331e+02
5.800000e-07	-2.976955e-06	-6.758718e-09	-2.255775e+01	-4.474347e+02
5.900000e-07	-2.972317e-06	-6.751771e-09	-2.252261e+01	-4.470242e+02
6.000000e-07	-2.967603e-06	-6.741669e-09	-2.248689e+01	-4.466027e+02
6.100000e-07	-2.962807e-06	-6.723675e-09	-2.245055e+01	-4.461713e+02
6.200000e-07	-2.957935e-06	-6.710812e-09	-2.241363e+01	-4.457308e+02
6.300000e-07	-2.952999e-06	-6.721172e-09	-2.237622e+01	-4.452820e+02
6.400000e-07	-2.947970e-06	-6.712225e-09	-2.233812e+01	-4.448256e+02
6.500000e-07	-2.942861e-06	-6.706320e-09	-2.229940e+01	-4.443620e+02
6.600000e-07	-2.937630e-06	-6.683696e-09	-2.225976e+01	-4.438915e+02
6.700000e-07	-2.932295e-06	-6.676751e-09	-2.221934e+01	-4.434144e+02
6.800000e-07	-2.926883e-06	-6.675833e-09	-2.217833e+01	-4.429309e+02
6.900000e-07	-2.921380e-06	-6.664709e-09	-2.213663e+01	-4.424411e+02
7.000000e-07	-2.915813e-06	-6.660996e-09	-2.209445e+01	-4.419453e+02
7.100000e-07	-2.910186e-06	-6.650115e-09	-2.205181e+01	-4.414435e+02
7.200000e-07	-2.904519e-06	-6.656138e-09	-2.200887e+01	-4.409361e+02
7.300000e-07	-2.898777e-06	-6.641856e-09	-2.196536e+01	-4.404234e+02
7.400000e-07	-2.892966e-06	-6.621265e-09	-2.192133e+01	-4.399059e+02
7.500000e-07	-2.887053e-06	-6.603605e-09	-2.187653e+01	-4.393843e+02
7.600000e-07	-2.881020e-06	-6.595636e-09	-2.183081e+01	-4.388590e+02
7.700000e-07	-2.874920e-06	-6.599881e-09	-2.178458e+01	-4.383311e+02
7.800000e-07	-2.868745e-06	-6.583841e-09	-2.173779e+01	-4.378013e+02
7.900000e-07	-2.862506e-06	-6.575963e-09	-2.169052e+01	-4.372705e+02
8.000000e-07	-2.856195e-06	-6.566983e-09	-2.164270e+01	-4.367396e+02
8.100000e-07	-2.849828e-06	-6.563306e-09	-2.159445e+01	-4.362095e+02
8.200000e-07	-2.843392e-06	-6.547404e-09	-2.154568e+01	-4.356811e+02
8.300000e-07	-2.836878e-06	-6.521510e-09	-2.149632e+01	-4.351551e+02
8.400000e-07	-2.830316e-06	-6.517072e-09	-2.144660e+01	-4.346319e+02
8.500000e-07	-2.823661e-06	-6.511853e-09	-2.139617e+01	-4.341120e+02
8.600000e-07	-2.816910e-06	-6.511980e-09	-2.134502e+01	-4.335957e+02
8.700000e-07	-2.810066e-06	-6.498893e-09	-2.129315e+01	-4.330828e+02
8.800000e-07	-2.803151e-06	-6.488350e-09	-2.124076e+01	-4.325733e+02
8.900000e-07	-2.796198e-06	-6.486077e-09	-2.118807e+01	-4.320666e+02
9.000000e-07	-2.789184e-06	-6.478252e-09	-2.113492e+01	-4.315622e+02
9.100000e-07	-2.782094e-06	-6.470202e-09	-2.108120e+01	-4.310594e+02
9.200000e-07	-2.774924e-06	-6.453212e-09	-2.102687e+01	-4.305571e+02
9.300000e-07	-2.767697e-06	-6.448086e-09	-2.097211e+01	-4.300545e+02
9.400000e-07	-2.760398e-06	-6.440319e-09	-2.091680e+01	-4.295504e+02
9.500000e-07	-2.753029e-06	-6.427542e-09	-2.086096e+01	-4.290438e+02
9.600000e-07	-2.745584e-06	-6.415148e-09	-2.080455e+01	-4.285335e+02
9.700000e-07	-2.738047e-06	-6.406221e-09	-2.074743e+01	-4.280185e+02
9.800000e-07	-2.730433e-06	-6.407485e-09	-2.068974e+01	-4.274978e+02
9.900000e-07	-2.722729e-06	-6.399678e-09	-2.063136e+01	-4.269705e+02
1.000000e-06	-2.714952e-06	-6.390276e-09	-2.057243e+01	-4.264359e+02
1.010000e-06	-2.707091e-06	-6.376750e-09	-2.051287e+01	-4.258933e+02
1.020000e-06	-2.699153e-06	-6.367823e-09	-2.045272e+01	-4.253421e+02
1.030000e-06	-2.691153e-06	-6.358844e-09	-2.039210e+01	-4.247819e+02
1.040000e-06	-2.683048e-06	-6.339381e-09	-2.033069e+01	-4.242124e+02
1.050000e-06	-2.674840e-06	-6.325106e-09	-2.026849e+01	-4.236334e+02
1.060000e-06	-2.666572e-06	-6.310558e-09	-2.020583e+01	-4.230446e+02
1.070000e-06	-2.658250e-06	-6.302026e-09	-2.014278e+01	-4.224459e+02
1.080000e-06	-2.649851e-06	-6.291659e-09	-2.007913e+01	-4.218372e+02
1.090000e-06	-2.641404e-06	-6.280971e-09	-2.001513e+01	-4.212183e+02
1.100000e-06	-2.632921e-06	-6.273895e-09	-1.995085e+01	-4.205891e+02
1.110000e-06	-2.624380e-06	-6.266749e-09	-1.988613e+01	-4.199493e+02
1.120000e-06	-2.615781e-06	-6.259581e-09	-1.982097e+01	-4.192988e+02
1.130000e-06	-2.607116e-06	-6.240842e-09	-1.975531e+01	-4.186371e+02
1.140000e-06	-2.598385e-06	-6.222611e-09	-1.968915e+01	-4.179640e+02
1.150000e-06	-2.589580e-06	-6.206245e-09	-1.962243e+01	-4.172789e+02
1.160000e-06	-2.580716e-06	-6.194371e-09	-1.955527e+01	-4.165816e+02
1.170000e-06	-2.571801e-06	-6.186541e-09	-1.948772e+01	-4.158714e+02
1.180000e-06	-2.562839e-06	-6.177135e-09	-1.941980e+01	-4.151480e+02
1.190000e-06	-2.553813e-06	-6.173339e-09	-1.935141e+01	-4.144110e+02
1.200000e-06	-2.544687e-06	-6.163764e-09	-1.928226e+01	-4.136599e+02
1.210000e-06	-2.535469e-06	-6.146724e-09	-1.921241e+01	-4.128944e+02
1.220000e-06	-2.526180e-06	-6.122636e-09	-1.914202e+01	-4.121145e+02
1.230000e-06	-2.516835e-06	-6.101111e-09	-1.907121e+01	-4.113199e+02
1.240000e-06	-2.507440e-06	-6.087609e-09	-1.900002e+01	-4.105106e+02
1.250000e-06	-2.497982e-06	-6.075100e-09	-1.892835e+01	-4.096870e+02
1.260000e-06	-2.488453e-06	-6.065759e-09	-1.885615e+01	-4.088492e+02
1.270000e-06	-2.478870e-06	-6.051602e-09	-1.878353e+01	-4.079978e+02
1.280000e-06	-2.469243e-06	-6.036808e-09	-1.871059e+01	-4.071333e+02
1.290000e-06	-2.459556e-06	-6.023793e-09	-1.863718e+01	-4.062564e+02
1.300000e-06	-2.449804e-06	-6.008865e-09	-1.856329e+01	-4.053679e+02
1.310000e-06	-2.439987e-06	-5.992119e-09	-1.848890e+01	-4.044687e+02
1.320000e-06	-2.430080e-06	-5.973546e-09	-1.841383e+01	-4.035598e+02
1.330000e-06	-2.420084e-06	-5.958596e-09	-1.833808e+01	-4.026422e+02
1.340000e-06	-2.410008e-06	-5.943574e-09	-1.826173e+01	-4.017169e+02
1.350000e-06	-2.399884e-06	-5.928177e-09	-1.818502e+01	-4.007851e+02
1.360000e-06	-2.389720e-06	-5.915081e-09	-1.810800e+01	-3.998477e+02
1.370000e-06	-2.379502e-06	-5.901217e-09	-1.803057e+01	-3.989058e+02
1.380000e-06	-2.369233e-06	-5.883519e-09	-1.795276e+01	-3.979605e+02
1.390000e-06	-2.358903e-06	-5.862687e-09	-1.787449e+01	-3.970126e+02
1.400000e-06	-2.348507e-06	-5.842111e-09	-1.779571e+01	-3.960630e+02
1.410000e-06	-2.338057e-06	-5.820366e-09	-1.771653e+01	-3.951125e+02
1.420000e-06	-2.327562e-06	-5.798908e-09	-1.763700e+01	-3.941619e+02
1.430000e-06	-2.317025e-06	-5.780526e-09	-1.755716e+01	-3.932117e+02
1.440000e-06	-2.306423e-06	-5.770901e-09	-1.747682e+01	-3.922626e+02
1.450000e-06	-2.295730e-06	-5.769516e-09	-1.739580e+01	-3.913149e+02
1.460000e-06	-2.284943e-06	-5.761707e-09	-1.731406e+01	-3.903690e+02
1.470000e-06	-2.274081e-06	-5.744676e-09	-1.723175e+01	-3.894251e+02
1.480000e-06	-2.263174e-06	-5.727276e-09	-1.714911e+01	-3.884832e+02
1.490000e-06	-2.252226e-06	-5.713036e-09	-1.706615e+01	-3.875434e+02
1.500000e-06	-2.241226e-06	-5.698412e-09	-1.698279e+01	-3.866053e+02
1.510000e-06	-2.230179e-06	-5.680714e-09	-1.689909e+01	-3.856688e+02
1.520000e-06	-2.219090e-06	-5.666161e-09	-1.681506e+01	-3.847333e+02
1.530000e-06	-2.207940e-06	-5.652687e-09	-1.673057e+01	-3.837981e+02
1.540000e-06	-2.196734e-06	-5.639519e-09	-1.664566e+01	-3.828627e+02
1.550000e-06	-2.185476e-06	-5.626438e-09	-1.656035e+01	-3.819260e+02
1.560000e-06	-2.174174e-06	-5.609043e-09	-1.647471e+01	-3.809871e+02
1.570000e-06	-2.162814e-06	-5.591212e-09	-1.638863e+01	-3.800448e+02
1.580000e-06	-2.151390e-06	-5.575224e-09	-1.630207e+01	-3.790980e+02
1.590000e-06	-2.139904e-06	-5.561797e-09	-1.621503e+01	-3.781454e+02
1.600000e-06	-2.128324e-06	-5.549728e-09	-1.612728e+01	-3.771857e+02
1.610000e-06	-2.116667e-06	-5.541594e-09	-1.603896e+01	-3.762177e+02
1.620000e-06	-2.104955e-06	-5.531438e-09	-1.595021e+01	-3.752401e+02
1.630000e-06	-2.093196e-06	-5.514602e-09	-1.586111e+01	-3.742518e+02
1.640000e-06	-2.081392e-06	-5.497423e-09	-1.577166e+01	-3.732516e+02
1.650000e-06	-2.069525e-06	-5.480301e-09	-1.568174e+01	-3.722387e+02
1.660000e-06	-2.057605e-06	-5.464442e-09	-1.559142e+01	-3.712122e+02
1.670000e-06	-2.045639e-06	-5.446762e-09	-1.550075e+01	-3.701717e+02
1.680000e-06	-2.033618e-06	-5.426027e-09	-1.540965e+01	-3.691165e+02
1.690000e-06	-2.021549e-06	-5.407371e-09	-1.531820e+01	-3.680466e+02
1.700000e-06	-2.009447e-06	-5.389980e-09	-1.522650e+01	-3.669618e+02
1.710000e-06	-1.997295e-06	-5.371921e-09	-1.513442e+01	-3.658623e+02
1.720000e-06	-1.985090e-06	-5.353923e-09	-1.504193e+01	-3.647483e+02
1.730000e-06	-1.972824e-06	-5.339082e-09	-1.494899e+01	-3.636203e+02
1.740000e-06	-1.960493e-06	-5.325500e-09	-1.485555e+01	-3.624787e+02
1.750000e-06	-1.948101e-06	-5.307667e-09	-1.476166e+01	-3.613239e+02
1.760000e-06	-1.935644e-06	-5.282480e-09	-1.466726e+01	-3.601567e+02
1.770000e-06	-1.923137e-06	-5.255163e-09	-1.457249e+01	-3.589774e+02
1.780000e-06	-1.910599e-06	-5.234516e-09	-1.447748e+01	-3.577864e+02
1.790000e-06	-1.898021e-06	-5.219386e-09	-1.438218e+01	-3.565840e+02
1.800000e-06	-1.885393e-06	-5.204248e-09	-1.428648e+01	-3.553705e+02
1.810000e-06	-1.872723e-06	-5.185419e-09	-1.419048e+01	-3.541457e+02
1.820000e-06	-1.860005e-06	-5.167985e-09	-1.409411e+01	-3.529096e+02
1.830000e-06	-1.847231e-06	-5.151036e-09	-1.399731e+01	-3.516617e+02
1.840000e-06	-1.834417e-06	-5.128672e-09	-1.390022e+01	-3.504017e+02
1.850000e-06	-1.821556e-06	-5.105333e-09	-1.380276e+01	-3.491288e+02
1.860000e-06	-1.808652e-06	-5.083780e-09	-1.370499e+01	-3.478424e+02
1.870000e-06	-1.795715e-06	-5.064717e-09	-1.360695e+01	-3.465417e+02
1.880000e-06	-1.782731e-06	-5.043463e-09	-1.350857e+01	-3.452258e+02
1.890000e-06	-1.769701e-06	-5.018367e-09	-1.340983e+01	-3.438940e+02
1.900000e-06	-1.756615e-06	-4.991425e-09	-1.331067e+01	-3.425457e+02
1.910000e-06	-1.743467e-06	-4.967287e-09	-1.321104e+01	-3.411802e+02
1.920000e-06	-1.730252e-06	-4.950903e-09	-1.311091e+01	-3.397972e+02
1.930000e-06	-1.716986e-06	-4.932324e-09	-1.301039e+01	-3.383966e+02
1.940000e-06	-1.703690e-06	-4.910579e-09	-1.290964e+01	-3.369784e+02
1.950000e-06	-1.690367e-06	-4.890368e-09	-1.280869e+01	-3.355430e+02
1.960000e-06	-1.677014e-06	-4.871196e-09	-1.270750e+01	-3.340911e+02
1.970000e-06	-1.663618e-06	-4.848391e-09	-1.260599e+01	-3.326236e+02
1.980000e-06	-1.650180e-06	-4.815372e-09	-1.250417e+01	-3.311415e+02
1.990000e-06	-1.636691e-06	-4.784250e-09	-1.240195e+01	-3.296463e+02
2.000000e-06	-1.623147e-06	-4.760913e-09	-1.229933e+01	-3.281395e+02
2.010000e-06	-1.609558e-06	-4.741544e-09	-1.219635e+01	-3.266226e+02
2.020000e-06	-1.595936e-06	-4.722341e-09	-1.209313e+01	-3.250975e+02
2.030000e-06	-1.582287e-06	-4.702176e-09	-1.198972e+01	-3.235658e+02
2.040000e-06	-1.568610e-06	-4.684823e-09	-1.188607e+01	-3.220291e+02
2.050000e-06	-1.554895e-06	-4.665652e-09	-1.178215e+01	-3.204889e+02
2.060000e-06	-1.541141e-06	-4.639812e-09	-1.167793e+01	-3.189467e+02
2.070000e-06	-1.527355e-06	-4.609025e-09	-1.157347e+01	-3.174036e+02
2.080000e-06	-1.513515e-06	-4.580692e-09	-1.146860e+01	-3.158605e+02
2.090000e-06	-1.499607e-06	-4.559002e-09	-1.136321e+01	-3.143180e+02
2.100000e-06	-1.485645e-06	-4.542727e-09	-1.125741e+01	-3.127766e+02
2.110000e-06	-1.471637e-06	-4.523770e-09	-1.115127e+01	-3.112364e+02
2.120000e-06	-1.457568e-06	-4.500447e-09	-1.104466e+01	-3.096973e+02
2.130000e-06	-1.443448e-06	-4.477617e-09	-1.093767e+01	-3.081591e+02
2.140000e-06	-1.429316e-06	-4.454565e-09	-1.083058e+01	-3.066212e+02
2.150000e-06	-1.415163e-06	-4.428453e-09	-1.072333e+01	-3.050832e+02
2.160000e-06	-1.400980e-06	-4.398078e-09	-1.061587e+01	-3.035444e+02
2.170000e-06	-1.386754e-06	-4.369847e-09	-1.050807e+01	-3.020042e+02
2.180000e-06	-1.372486e-06	-4.347935e-09	-1.039995e+01	-3.004619e+02
2.190000e-06	-1.358182e-06	-4.330895e-09	-1.029156e+01	-2.989170e+02
2.200000e-06	-1.343841e-06	-4.314022e-09	-1.018290e+01	-2.973691e+02
2.210000e-06	-1.329472e-06	-4.293757e-09	-1.007402e+01	-2.958180e+02
2.220000e-06	-1.315048e-06	-4.272225e-09	-9.964724e+00	-2.942633e+02
2.230000e-06	-1.300582e-06	-4.246527e-09	-9.855108e+00	-2.927053e+02
2.240000e-06	-1.286073e-06	-4.219334e-09	-9.745166e+00	-2.911439e+02
2.250000e-06	-1.271518e-06	-4.195130e-09	-9.634875e+00	-2.895795e+02
2.260000e-06	-1.256928e-06	-4.174927e-09	-9.524317e+00	-2.880123e+02
2.270000e-06	-1.242304e-06	-4.156964e-09	-9.413506e+00	-2.864428e+02
2.280000e-06	-1.227661e-06	-4.139247e-09	-9.302546e+00	-2.848712e+02
2.290000e-06	-1.212989e-06	-4.120415e-09	-9.191370e+00	-2.832979e+02
2.300000e-06	-1.198292e-06	-4.095031e-09	-9.080009e+00	-2.817229e+02
2.310000e-06	-1.183578e-06	-4.067863e-09	-8.968510e+00	-2.801463e+02
2.320000e-06	-1.168825e-06	-4.040020e-09	-8.856720e+00	-2.785679e+02
2.330000e-06	-1.154031e-06	-4.014365e-09	-8.744623e+00	-2.769872e+02
2.340000e-06	-1.139211e-06	-3.994969e-09	-8.632323e+00	-2.754036e+02
2.350000e-06	-1.124370e-06	-3.978015e-09	-8.519865e+00	-2.738160e+02
2.360000e-06	-1.109505e-06	-3.959546e-09	-8.407226e+00	-2.722234e+02
2.370000e-06	-1.094611e-06	-3.937823e-09	-8.294368e+00	-2.706244e+02
2.380000e-06	-1.079707e-06	-3.915968e-09	-8.181435e+00	-2.690172e+02
2.390000e-06	-1.064791e-06	-3.891161e-09	-8.068407e+00	-2.674003e+02
2.400000e-06	-1.049849e-06	-3.863430e-09	-7.955184e+00	-2.657717e+02
2.410000e-06	-1.034881e-06	-3.832979e-09	-7.841769e+00	-2.641296e+02
2.420000e-06	-1.019889e-06	-3.807803e-09	-7.728162e+00	-2.624722e+02
2.430000e-06	-1.004871e-06	-3.792124e-09	-7.614369e+00	-2.607978e+02
2.440000e-06	-9.898364e-07	-3.774928e-09	-7.500444e+00	-2.591049e+02
2.450000e-06	-9.747704e-07	-3.751419e-09	-7.386282e+00	-2.573920e+02
2.460000e-06	-9.596622e-07	-3.721478e-09	-7.271800e+00	-2.556582e+02
2.470000e-06	-9.445380e-07	-3.690512e-09	-7.157197e+00	-2.539027e+02
2.480000e-06	-9.294015e-07	-3.658240e-09	-7.042501e+00	-2.521250e+02
2.490000e-06	-9.142435e-07	-3.626518e-09	-6.927641e+00	-2.503249e+02
2.500000e-06	-8.990586e-07	-3.601142e-09	-6.812579e+00	-2.485028e+02
2.510000e-06	-8.838447e-07	-3.581436e-09	-6.697296e+00	-2.466590e+02
2.520000e-06	-8.686094e-07	-3.563433e-09	-6.581851e+00	-2.447942e+02
2.530000e-06	-8.533438e-07	-3.540067e-09	-6.466177e+00	-2.429096e+02
2.540000e-06	-8.380492e-07	-3.511251e-09	-6.350283e+00	-2.410061e+02
2.550000e-06	-8.227449e-07	-3.483607e-09	-6.234315e+00	-2.390850e+02
2.560000e-06	-8.074287e-07	-3.455439e-09	-6.118257e+00	-2.371476e+02
2.570000e-06	-7.920899e-07	-3.423383e-09	-6.002028e+00	-2.351954e+02
2.580000e-06	-7.767330e-07	-3.391540e-09	-5.885661e+00	-2.332294e+02
2.590000e-06	-7.613564e-07	-3.362148e-09	-5.769146e+00	-2.312510e+02
2.600000e-06	-7.459560e-07	-3.333470e-09	-5.652450e+00	-2.292612e+02
2.610000e-06	-7.305409e-07	-3.303065e-09	-5.535643e+00	-2.272609e+02
2.620000e-06	-7.150894e-07	-3.270778e-09	-5.418560e+00	-2.252510e+02
2.630000e-06	-6.996017e-07	-3.241122e-09	-5.301202e+00	-2.232321e+02
2.640000e-06	-6.840968e-07	-3.214176e-09	-5.183715e+00	-2.212047e+02
2.650000e-06	-6.685660e-07	-3.185534e-09	-5.066031e+00	-2.191693e+02
2.660000e-06	-6.530001e-07	-3.154099e-09	-4.948081e+00	-2.171261e+02
2.670000e-06	-6.374005e-07	-3.122231e-09	-4.829875e+00	-2.150754e+02
2.680000e-06	-6.217845e-07	-3.092510e-09	-4.711546e+00	-2.130174e+02
2.690000e-06	-6.061480e-07	-3.063073e-09	-4.593061e+00	-2.109524e+02
2.700000e-06	-5.905040e-07	-3.031781e-09	-4.474519e+00	-2.088807e+02
2.710000e-06	-5.748553e-07	-3.000027e-09	-4.355942e+00	-2.068026e+02
2.720000e-06	-5.591861e-07	-2.970075e-09	-4.237209e+00	-2.047186e+02
2.730000e-06	-5.434975e-07	-2.942243e-09	-4.118329e+00	-2.026291e+02
2.740000e-06	-5.277950e-07	-2.913221e-09	-3.999345e+00	-2.005348e+02
2.750000e-06	-5.120788e-07	-2.881705e-09	-3.880256e+00	-1.984363e+02
2.760000e-06	-4.963604e-07	-2.852576e-09	-3.761150e+00	-1.963344e+02
2.770000e-06	-4.806444e-07	-2.824314e-09	-3.642063e+00	-1.942297e+02
2.780000e-06	-4.649168e-07	-2.792309e-09	-3.522888e+00	-1.921230e+02
2.790000e-06	-4.491806e-07	-2.759864e-09	-3.403647e+00	-1.900149e+02
2.800000e-06	-4.334314e-07	-2.728839e-09	-3.284308e+00	-1.879060e+02
2.810000e-06	-4.176735e-07	-2.699511e-09	-3.164903e+00	-1.857966e+02
2.820000e-06	-4.019108e-07	-2.671403e-09	-3.045462e+00	-1.836871e+02
2.830000e-06	-3.861414e-07	-2.640699e-09	-2.925970e+00	-1.815773e+02
2.840000e-06	-3.703647e-07	-2.607939e-09	-2.806423e+00	-1.794670e+02
