# Temperatura_=_20.0
# Concentracion g/m^3_=_10000.0
# C_Vs_to_Am_M_A/Vsm_=_65563218390.804596
# pendiente_HvsI_1/m_=_3716.3
# ordenada_HvsI_A/m_=_1297.0
# frecuencia_Hz_=_81162.9362669076

Tiempo_(s)	Campo_(V.s)	Magnetizacion_(V.s)	Campo_(kA/m)	Magnetizacion_(A/m)
0.000000e+00	-3.106098e-06	-7.109354e-09	-2.355827e+01	-4.569800e+02
1.000000e-08	-3.106092e-06	-7.095439e-09	-2.355822e+01	-4.570087e+02
2.000000e-08	-3.106209e-06	-6.950515e-09	-2.355911e+01	-4.570129e+02
3.000000e-08	-3.106232e-06	-7.041189e-09	-2.355928e+01	-4.569938e+02
4.000000e-08	-3.106059e-06	-7.047825e-09	-2.355797e+01	-4.569524e+02
5.000000e-08	-3.105743e-06	-6.958804e-09	-2.355557e+01	-4.568900e+02
6.000000e-08	-3.105345e-06	-7.045051e-09	-2.355255e+01	-4.568080e+02
7.000000e-08	-3.104831e-06	-7.017146e-09	-2.354866e+01	-4.567080e+02
8.000000e-08	-3.104204e-06	-7.026099e-09	-2.354390e+01	-4.565914e+02
9.000000e-08	-3.103501e-06	-7.013701e-09	-2.353857e+01	-4.564598e+02
1.000000e-07	-3.102754e-06	-7.011142e-09	-2.353291e+01	-4.563147e+02
1.100000e-07	-3.102021e-06	-7.017972e-09	-2.352734e+01	-4.561576e+02
1.200000e-07	-3.101162e-06	-6.948339e-09	-2.352083e+01	-4.559901e+02
1.300000e-07	-3.100233e-06	-7.000294e-09	-2.351379e+01	-4.558134e+02
1.400000e-07	-3.099231e-06	-7.008060e-09	-2.350618e+01	-4.556291e+02
1.500000e-07	-3.098142e-06	-7.018449e-09	-2.349792e+01	-4.554382e+02
1.600000e-07	-3.096960e-06	-6.967326e-09	-2.348896e+01	-4.552421e+02
1.700000e-07	-3.095649e-06	-6.941192e-09	-2.347902e+01	-4.550420e+02
1.800000e-07	-3.094327e-06	-6.990991e-09	-2.346899e+01	-4.548391e+02
1.900000e-07	-3.092896e-06	-6.935410e-09	-2.345814e+01	-4.546346e+02
2.000000e-07	-3.091308e-06	-6.940340e-09	-2.344609e+01	-4.544295e+02
2.100000e-07	-3.089574e-06	-6.917447e-09	-2.343294e+01	-4.542251e+02
2.200000e-07	-3.087790e-06	-6.962714e-09	-2.341941e+01	-4.540225e+02
2.300000e-07	-3.085982e-06	-6.974694e-09	-2.340570e+01	-4.538229e+02
2.400000e-07	-3.084073e-06	-6.932159e-09	-2.339121e+01	-4.536276e+02
2.500000e-07	-3.082082e-06	-6.926539e-09	-2.337612e+01	-4.534376e+02
2.600000e-07	-3.080019e-06	-6.900265e-09	-2.336047e+01	-4.532540e+02
2.700000e-07	-3.077904e-06	-6.951420e-09	-2.334443e+01	-4.530779e+02
2.800000e-07	-3.075701e-06	-6.925113e-09	-2.332772e+01	-4.529102e+02
2.900000e-07	-3.073408e-06	-6.913258e-09	-2.331033e+01	-4.527518e+02
3.000000e-07	-3.071065e-06	-6.906949e-09	-2.329256e+01	-4.526033e+02
3.100000e-07	-3.068647e-06	-6.905261e-09	-2.327422e+01	-4.524651e+02
3.200000e-07	-3.066164e-06	-6.929503e-09	-2.325539e+01	-4.523376e+02
3.300000e-07	-3.063604e-06	-6.889544e-09	-2.323597e+01	-4.522207e+02
3.400000e-07	-3.060988e-06	-6.894728e-09	-2.321613e+01	-4.521141e+02
3.500000e-07	-3.058255e-06	-6.878213e-09	-2.319540e+01	-4.520174e+02
3.600000e-07	-3.055382e-06	-6.895393e-09	-2.317361e+01	-4.519296e+02
3.700000e-07	-3.052445e-06	-6.894890e-09	-2.315133e+01	-4.518498e+02
3.800000e-07	-3.049446e-06	-6.868700e-09	-2.312859e+01	-4.517765e+02
3.900000e-07	-3.046386e-06	-6.882753e-09	-2.310538e+01	-4.517083e+02
4.000000e-07	-3.043234e-06	-6.878464e-09	-2.308147e+01	-4.516433e+02
4.100000e-07	-3.040024e-06	-6.911639e-09	-2.305713e+01	-4.515796e+02
4.200000e-07	-3.036763e-06	-6.884052e-09	-2.303239e+01	-4.515153e+02
4.300000e-07	-3.033431e-06	-6.862587e-09	-2.300712e+01	-4.514481e+02
4.400000e-07	-3.030025e-06	-6.862675e-09	-2.298129e+01	-4.513761e+02
4.500000e-07	-3.026509e-06	-6.862897e-09	-2.295463e+01	-4.512970e+02
4.600000e-07	-3.022886e-06	-6.880808e-09	-2.292714e+01	-4.512089e+02
4.700000e-07	-3.019169e-06	-6.856205e-09	-2.289896e+01	-4.511098e+02
4.800000e-07	-3.015398e-06	-6.873800e-09	-2.287035e+01	-4.509979e+02
4.900000e-07	-3.011561e-06	-6.871523e-09	-2.284125e+01	-4.508717e+02
5.000000e-07	-3.007652e-06	-6.864115e-09	-2.281160e+01	-4.507298e+02
5.100000e-07	-3.003653e-06	-6.838951e-09	-2.278127e+01	-4.505709e+02
5.200000e-07	-2.999559e-06	-6.807820e-09	-2.275022e+01	-4.503940e+02
5.300000e-07	-2.995427e-06	-6.826878e-09	-2.271888e+01	-4.501984e+02
5.400000e-07	-2.991221e-06	-6.823974e-09	-2.268698e+01	-4.499834e+02
5.500000e-07	-2.986898e-06	-6.835129e-09	-2.265420e+01	-4.497486e+02
5.600000e-07	-2.982463e-06	-6.822119e-09	-2.262055e+01	-4.494937e+02
5.700000e-07	-2.977956e-06	-6.823933e-09	-2.258637e+01	-4.492187e+02
5.800000e-07	-2.973405e-06	-6.830213e-09	-2.255186e+01	-4.489233e+02
5.900000e-07	-2.968773e-06	-6.805728e-09	-2.251672e+01	-4.486079e+02
6.000000e-07	-2.964060e-06	-6.794242e-09	-2.248097e+01	-4.482723e+02
6.100000e-07	-2.959264e-06	-6.772152e-09	-2.244460e+01	-4.479169e+02
6.200000e-07	-2.954402e-06	-6.784370e-09	-2.240773e+01	-4.475419e+02
6.300000e-07	-2.949465e-06	-6.778489e-09	-2.237028e+01	-4.471475e+02
6.400000e-07	-2.944427e-06	-6.766603e-09	-2.233207e+01	-4.467341e+02
6.500000e-07	-2.939273e-06	-6.761319e-09	-2.229298e+01	-4.463020e+02
6.600000e-07	-2.934004e-06	-6.749914e-09	-2.225302e+01	-4.458515e+02
6.700000e-07	-2.928668e-06	-6.756124e-09	-2.221254e+01	-4.453831e+02
6.800000e-07	-2.923249e-06	-6.731765e-09	-2.217144e+01	-4.448974e+02
6.900000e-07	-2.917751e-06	-6.721306e-09	-2.212975e+01	-4.443950e+02
7.000000e-07	-2.912189e-06	-6.708211e-09	-2.208756e+01	-4.438765e+02
7.100000e-07	-2.906555e-06	-6.703882e-09	-2.204483e+01	-4.433429e+02
7.200000e-07	-2.900864e-06	-6.701927e-09	-2.200166e+01	-4.427951e+02
7.300000e-07	-2.895112e-06	-6.681293e-09	-2.195804e+01	-4.422341e+02
7.400000e-07	-2.889280e-06	-6.681046e-09	-2.191381e+01	-4.416613e+02
7.500000e-07	-2.883320e-06	-6.667839e-09	-2.186860e+01	-4.410780e+02
7.600000e-07	-2.877270e-06	-6.665538e-09	-2.182272e+01	-4.404858e+02
7.700000e-07	-2.871163e-06	-6.646425e-09	-2.177640e+01	-4.398862e+02
7.800000e-07	-2.864976e-06	-6.626505e-09	-2.172947e+01	-4.392811e+02
7.900000e-07	-2.858727e-06	-6.620550e-09	-2.168208e+01	-4.386720e+02
8.000000e-07	-2.852419e-06	-6.605387e-09	-2.163423e+01	-4.380610e+02
8.100000e-07	-2.846058e-06	-6.600673e-09	-2.158599e+01	-4.374497e+02
8.200000e-07	-2.839615e-06	-6.577953e-09	-2.153712e+01	-4.368399e+02
8.300000e-07	-2.833103e-06	-6.570305e-09	-2.148773e+01	-4.362334e+02
8.400000e-07	-2.826544e-06	-6.566174e-09	-2.143798e+01	-4.356316e+02
8.500000e-07	-2.819890e-06	-6.558567e-09	-2.138752e+01	-4.350360e+02
8.600000e-07	-2.813130e-06	-6.551620e-09	-2.133625e+01	-4.344478e+02
8.700000e-07	-2.806274e-06	-6.535067e-09	-2.128425e+01	-4.338681e+02
8.800000e-07	-2.799363e-06	-6.532590e-09	-2.123183e+01	-4.332978e+02
8.900000e-07	-2.792406e-06	-6.519435e-09	-2.117906e+01	-4.327373e+02
9.000000e-07	-2.785376e-06	-6.508917e-09	-2.112574e+01	-4.321871e+02
9.100000e-07	-2.778273e-06	-6.492772e-09	-2.107187e+01	-4.316473e+02
9.200000e-07	-2.771108e-06	-6.482103e-09	-2.101753e+01	-4.311177e+02
9.300000e-07	-2.763880e-06	-6.483209e-09	-2.096271e+01	-4.305980e+02
9.400000e-07	-2.756584e-06	-6.471537e-09	-2.090737e+01	-4.300877e+02
9.500000e-07	-2.749230e-06	-6.462850e-09	-2.085160e+01	-4.295861e+02
9.600000e-07	-2.741770e-06	-6.446562e-09	-2.079502e+01	-4.290922e+02
9.700000e-07	-2.734213e-06	-6.443446e-09	-2.073769e+01	-4.286050e+02
9.800000e-07	-2.726588e-06	-6.438025e-09	-2.067986e+01	-4.281235e+02
9.900000e-07	-2.718873e-06	-6.422055e-09	-2.062135e+01	-4.276463e+02
1.000000e-06	-2.711095e-06	-6.410784e-09	-2.056236e+01	-4.271723e+02
1.010000e-06	-2.703241e-06	-6.397859e-09	-2.050279e+01	-4.266999e+02
1.020000e-06	-2.695312e-06	-6.397843e-09	-2.044265e+01	-4.262281e+02
1.030000e-06	-2.687307e-06	-6.388213e-09	-2.038194e+01	-4.257552e+02
1.040000e-06	-2.679212e-06	-6.378279e-09	-2.032054e+01	-4.252800e+02
1.050000e-06	-2.671018e-06	-6.371243e-09	-2.025839e+01	-4.248012e+02
1.060000e-06	-2.662747e-06	-6.364505e-09	-2.019566e+01	-4.243174e+02
1.070000e-06	-2.654441e-06	-6.359825e-09	-2.013266e+01	-4.238273e+02
1.080000e-06	-2.646054e-06	-6.346314e-09	-2.006905e+01	-4.233296e+02
1.090000e-06	-2.637589e-06	-6.341433e-09	-2.000485e+01	-4.228231e+02
1.100000e-06	-2.629086e-06	-6.334369e-09	-1.994036e+01	-4.223066e+02
1.110000e-06	-2.620546e-06	-6.327933e-09	-1.987558e+01	-4.217789e+02
1.120000e-06	-2.611950e-06	-6.315102e-09	-1.981039e+01	-4.212388e+02
1.130000e-06	-2.603282e-06	-6.298977e-09	-1.974465e+01	-4.206853e+02
1.140000e-06	-2.594555e-06	-6.290146e-09	-1.967846e+01	-4.201174e+02
1.150000e-06	-2.585750e-06	-6.278843e-09	-1.961168e+01	-4.195339e+02
1.160000e-06	-2.576881e-06	-6.272405e-09	-1.954441e+01	-4.189340e+02
1.170000e-06	-2.567965e-06	-6.259839e-09	-1.947678e+01	-4.183167e+02
1.180000e-06	-2.558991e-06	-6.250687e-09	-1.940873e+01	-4.176812e+02
1.190000e-06	-2.549971e-06	-6.242735e-09	-1.934031e+01	-4.170269e+02
1.200000e-06	-2.540857e-06	-6.228872e-09	-1.927119e+01	-4.163528e+02
1.210000e-06	-2.531628e-06	-6.213843e-09	-1.920119e+01	-4.156586e+02
1.220000e-06	-2.522331e-06	-6.195112e-09	-1.913068e+01	-4.149437e+02
1.230000e-06	-2.513005e-06	-6.187261e-09	-1.905994e+01	-4.142077e+02
1.240000e-06	-2.503630e-06	-6.178792e-09	-1.898884e+01	-4.134502e+02
1.250000e-06	-2.494181e-06	-6.166680e-09	-1.891717e+01	-4.126712e+02
1.260000e-06	-2.484653e-06	-6.152112e-09	-1.884491e+01	-4.118706e+02
1.270000e-06	-2.475064e-06	-6.133720e-09	-1.877218e+01	-4.110482e+02
1.280000e-06	-2.465429e-06	-6.114551e-09	-1.869910e+01	-4.102044e+02
1.290000e-06	-2.455743e-06	-6.091243e-09	-1.862564e+01	-4.093394e+02
1.300000e-06	-2.446009e-06	-6.073839e-09	-1.855181e+01	-4.084534e+02
1.310000e-06	-2.436220e-06	-6.056948e-09	-1.847756e+01	-4.075469e+02
1.320000e-06	-2.426340e-06	-6.042994e-09	-1.840263e+01	-4.066205e+02
1.330000e-06	-2.416354e-06	-6.029842e-09	-1.832689e+01	-4.056748e+02
1.340000e-06	-2.406289e-06	-6.014508e-09	-1.825055e+01	-4.047106e+02
1.350000e-06	-2.396175e-06	-6.001556e-09	-1.817384e+01	-4.037287e+02
1.360000e-06	-2.386023e-06	-5.983224e-09	-1.809684e+01	-4.027299e+02
1.370000e-06	-2.375820e-06	-5.964913e-09	-1.801946e+01	-4.017153e+02
1.380000e-06	-2.365555e-06	-5.943659e-09	-1.794160e+01	-4.006860e+02
1.390000e-06	-2.355228e-06	-5.922575e-09	-1.786328e+01	-3.996431e+02
1.400000e-06	-2.344839e-06	-5.904612e-09	-1.778448e+01	-3.985879e+02
1.410000e-06	-2.334385e-06	-5.884975e-09	-1.770519e+01	-3.975217e+02
1.420000e-06	-2.323886e-06	-5.869426e-09	-1.762556e+01	-3.964459e+02
1.430000e-06	-2.313349e-06	-5.854232e-09	-1.754564e+01	-3.953619e+02
1.440000e-06	-2.302751e-06	-5.844525e-09	-1.746526e+01	-3.942711e+02
1.450000e-06	-2.292080e-06	-5.834805e-09	-1.738433e+01	-3.931752e+02
1.460000e-06	-2.281322e-06	-5.818685e-09	-1.730274e+01	-3.920756e+02
1.470000e-06	-2.270473e-06	-5.798455e-09	-1.722045e+01	-3.909739e+02
1.480000e-06	-2.259563e-06	-5.777588e-09	-1.713770e+01	-3.898715e+02
1.490000e-06	-2.248610e-06	-5.760439e-09	-1.705463e+01	-3.887699e+02
1.500000e-06	-2.237624e-06	-5.737919e-09	-1.697130e+01	-3.876705e+02
1.510000e-06	-2.226587e-06	-5.716855e-09	-1.688760e+01	-3.865745e+02
1.520000e-06	-2.215487e-06	-5.698468e-09	-1.680341e+01	-3.854832e+02
1.530000e-06	-2.204337e-06	-5.681833e-09	-1.671884e+01	-3.843974e+02
1.540000e-06	-2.193132e-06	-5.668986e-09	-1.663385e+01	-3.833181e+02
1.550000e-06	-2.181867e-06	-5.652361e-09	-1.654842e+01	-3.822459e+02
1.560000e-06	-2.170559e-06	-5.635271e-09	-1.646265e+01	-3.811813e+02
1.570000e-06	-2.159214e-06	-5.617250e-09	-1.637661e+01	-3.801245e+02
1.580000e-06	-2.147817e-06	-5.600485e-09	-1.629016e+01	-3.790756e+02
1.590000e-06	-2.136325e-06	-5.581810e-09	-1.620301e+01	-3.780344e+02
1.600000e-06	-2.124740e-06	-5.564028e-09	-1.611513e+01	-3.770004e+02
1.610000e-06	-2.113092e-06	-5.550296e-09	-1.602679e+01	-3.759733e+02
1.620000e-06	-2.101379e-06	-5.533370e-09	-1.593796e+01	-3.749521e+02
1.630000e-06	-2.089603e-06	-5.518889e-09	-1.584864e+01	-3.739361e+02
1.640000e-06	-2.077786e-06	-5.505730e-09	-1.575901e+01	-3.729241e+02
1.650000e-06	-2.065928e-06	-5.492706e-09	-1.566907e+01	-3.719150e+02
1.660000e-06	-2.054014e-06	-5.477185e-09	-1.557872e+01	-3.709075e+02
1.670000e-06	-2.042052e-06	-5.461403e-09	-1.548799e+01	-3.699003e+02
1.680000e-06	-2.030045e-06	-5.445717e-09	-1.539692e+01	-3.688920e+02
1.690000e-06	-2.017981e-06	-5.425094e-09	-1.530542e+01	-3.678814e+02
1.700000e-06	-2.005872e-06	-5.404845e-09	-1.521358e+01	-3.668669e+02
1.710000e-06	-1.993729e-06	-5.383554e-09	-1.512148e+01	-3.658472e+02
1.720000e-06	-1.981541e-06	-5.368074e-09	-1.502904e+01	-3.648209e+02
1.730000e-06	-1.969279e-06	-5.358315e-09	-1.493604e+01	-3.637869e+02
1.740000e-06	-1.956928e-06	-5.346237e-09	-1.484237e+01	-3.627437e+02
1.750000e-06	-1.944506e-06	-5.331717e-09	-1.474815e+01	-3.616902e+02
1.760000e-06	-1.932028e-06	-5.310704e-09	-1.465351e+01	-3.606252e+02
1.770000e-06	-1.919513e-06	-5.291633e-09	-1.455859e+01	-3.595475e+02
1.780000e-06	-1.906977e-06	-5.271262e-09	-1.446351e+01	-3.584560e+02
1.790000e-06	-1.894401e-06	-5.247619e-09	-1.436812e+01	-3.573497e+02
1.800000e-06	-1.881776e-06	-5.227538e-09	-1.427237e+01	-3.562274e+02
1.810000e-06	-1.869111e-06	-5.211485e-09	-1.417631e+01	-3.550882e+02
1.820000e-06	-1.856398e-06	-5.200681e-09	-1.407989e+01	-3.539310e+02
1.830000e-06	-1.843644e-06	-5.185709e-09	-1.398316e+01	-3.527549e+02
1.840000e-06	-1.830839e-06	-5.164433e-09	-1.388604e+01	-3.515590e+02
1.850000e-06	-1.817983e-06	-5.143297e-09	-1.378853e+01	-3.503424e+02
1.860000e-06	-1.805078e-06	-5.124575e-09	-1.369066e+01	-3.491044e+02
1.870000e-06	-1.792141e-06	-5.104800e-09	-1.359253e+01	-3.478442e+02
1.880000e-06	-1.779173e-06	-5.079114e-09	-1.349417e+01	-3.465613e+02
1.890000e-06	-1.766153e-06	-5.053160e-09	-1.339543e+01	-3.452551e+02
1.900000e-06	-1.753069e-06	-5.027552e-09	-1.329619e+01	-3.439255e+02
1.910000e-06	-1.739908e-06	-5.004421e-09	-1.319637e+01	-3.425723e+02
1.920000e-06	-1.726679e-06	-4.983118e-09	-1.309604e+01	-3.411954e+02
1.930000e-06	-1.713416e-06	-4.964487e-09	-1.299544e+01	-3.397953e+02
1.940000e-06	-1.700128e-06	-4.946850e-09	-1.289466e+01	-3.383723e+02
1.950000e-06	-1.686809e-06	-4.925099e-09	-1.279364e+01	-3.369270e+02
1.960000e-06	-1.673458e-06	-4.901939e-09	-1.269238e+01	-3.354604e+02
1.970000e-06	-1.660059e-06	-4.875307e-09	-1.259075e+01	-3.339734e+02
1.980000e-06	-1.646618e-06	-4.847355e-09	-1.248881e+01	-3.324673e+02
1.990000e-06	-1.633149e-06	-4.817002e-09	-1.238665e+01	-3.309434e+02
2.000000e-06	-1.619625e-06	-4.789767e-09	-1.228408e+01	-3.294032e+02
2.010000e-06	-1.606050e-06	-4.765395e-09	-1.218112e+01	-3.278483e+02
2.020000e-06	-1.592436e-06	-4.741781e-09	-1.207786e+01	-3.262801e+02
2.030000e-06	-1.578782e-06	-4.722182e-09	-1.197431e+01	-3.247004e+02
2.040000e-06	-1.565106e-06	-4.701291e-09	-1.187058e+01	-3.231107e+02
2.050000e-06	-1.551403e-06	-4.680605e-09	-1.176665e+01	-3.215126e+02
2.060000e-06	-1.537671e-06	-4.657756e-09	-1.166250e+01	-3.199076e+02
2.070000e-06	-1.523903e-06	-4.630682e-09	-1.155808e+01	-3.182970e+02
2.080000e-06	-1.510080e-06	-4.600212e-09	-1.145323e+01	-3.166820e+02
2.090000e-06	-1.496211e-06	-4.570088e-09	-1.134804e+01	-3.150638e+02
2.100000e-06	-1.482297e-06	-4.547387e-09	-1.124251e+01	-3.134434e+02
2.110000e-06	-1.468303e-06	-4.525620e-09	-1.113637e+01	-3.118216e+02
2.120000e-06	-1.454240e-06	-4.505837e-09	-1.102972e+01	-3.101992e+02
2.130000e-06	-1.440148e-06	-4.488719e-09	-1.092283e+01	-3.085769e+02
2.140000e-06	-1.426034e-06	-4.470209e-09	-1.081579e+01	-3.069552e+02
2.150000e-06	-1.411892e-06	-4.448826e-09	-1.070852e+01	-3.053346e+02
2.160000e-06	-1.397709e-06	-4.420607e-09	-1.060095e+01	-3.037157e+02
2.170000e-06	-1.383487e-06	-4.389121e-09	-1.049309e+01	-3.020989e+02
2.180000e-06	-1.369233e-06	-4.359056e-09	-1.038498e+01	-3.004848e+02
2.190000e-06	-1.354949e-06	-4.334394e-09	-1.027664e+01	-2.988738e+02
2.200000e-06	-1.340636e-06	-4.313851e-09	-1.016808e+01	-2.972665e+02
2.210000e-06	-1.326285e-06	-4.294338e-09	-1.005924e+01	-2.956634e+02
2.220000e-06	-1.311897e-06	-4.273883e-09	-9.950108e+00	-2.940653e+02
2.230000e-06	-1.297452e-06	-4.251922e-09	-9.840555e+00	-2.924727e+02
2.240000e-06	-1.282930e-06	-4.230812e-09	-9.730409e+00	-2.908862e+02
2.250000e-06	-1.268365e-06	-4.210483e-09	-9.619944e+00	-2.893065e+02
2.260000e-06	-1.253781e-06	-4.189150e-09	-9.509328e+00	-2.877339e+02
2.270000e-06	-1.239162e-06	-4.164107e-09	-9.398451e+00	-2.861690e+02
2.280000e-06	-1.224520e-06	-4.141423e-09	-9.287401e+00	-2.846120e+02
2.290000e-06	-1.209863e-06	-4.123493e-09	-9.176233e+00	-2.830630e+02
2.300000e-06	-1.195182e-06	-4.102113e-09	-9.064885e+00	-2.815218e+02
2.310000e-06	-1.180471e-06	-4.078059e-09	-8.953305e+00	-2.799879e+02
2.320000e-06	-1.165727e-06	-4.053493e-09	-8.841481e+00	-2.784608e+02
2.330000e-06	-1.150955e-06	-4.031125e-09	-8.729443e+00	-2.769394e+02
2.340000e-06	-1.136148e-06	-4.011437e-09	-8.617137e+00	-2.754225e+02
2.350000e-06	-1.121319e-06	-3.989753e-09	-8.504670e+00	-2.739084e+02
2.360000e-06	-1.106464e-06	-3.966725e-09	-8.392000e+00	-2.723953e+02
2.370000e-06	-1.091572e-06	-3.944112e-09	-8.279052e+00	-2.708811e+02
2.380000e-06	-1.076662e-06	-3.924449e-09	-8.165967e+00	-2.693636e+02
2.390000e-06	-1.061740e-06	-3.903297e-09	-8.052790e+00	-2.678401e+02
2.400000e-06	-1.046803e-06	-3.878292e-09	-7.939500e+00	-2.663083e+02
2.410000e-06	-1.031847e-06	-3.851109e-09	-7.826066e+00	-2.647653e+02
2.420000e-06	-1.016863e-06	-3.827285e-09	-7.712421e+00	-2.632088e+02
2.430000e-06	-1.001860e-06	-3.807102e-09	-7.598631e+00	-2.616362e+02
2.440000e-06	-9.868286e-07	-3.785135e-09	-7.484623e+00	-2.600451e+02
2.450000e-06	-9.717648e-07	-3.764053e-09	-7.370371e+00	-2.584334e+02
2.460000e-06	-9.566891e-07	-3.743589e-09	-7.256029e+00	-2.567994e+02
2.470000e-06	-9.415926e-07	-3.723596e-09	-7.141529e+00	-2.551415e+02
2.480000e-06	-9.264689e-07	-3.697950e-09	-7.026823e+00	-2.534584e+02
2.490000e-06	-9.113179e-07	-3.666505e-09	-6.911910e+00	-2.517494e+02
2.500000e-06	-8.961469e-07	-3.636743e-09	-6.796846e+00	-2.500139e+02
2.510000e-06	-8.809532e-07	-3.607219e-09	-6.681608e+00	-2.482518e+02
2.520000e-06	-8.657372e-07	-3.581511e-09	-6.566203e+00	-2.464635e+02
2.530000e-06	-8.504916e-07	-3.557451e-09	-6.450572e+00	-2.446492e+02
2.540000e-06	-8.352210e-07	-3.534684e-09	-6.334752e+00	-2.428100e+02
2.550000e-06	-8.199373e-07	-3.513838e-09	-6.218832e+00	-2.409467e+02
2.560000e-06	-8.046312e-07	-3.489569e-09	-6.102743e+00	-2.390604e+02
2.570000e-06	-7.893014e-07	-3.461661e-09	-5.986473e+00	-2.371526e+02
2.580000e-06	-7.739529e-07	-3.428051e-09	-5.870062e+00	-2.352245e+02
2.590000e-06	-7.585864e-07	-3.393668e-09	-5.753515e+00	-2.332775e+02
2.600000e-06	-7.432072e-07	-3.359211e-09	-5.636871e+00	-2.313128e+02
2.610000e-06	-7.278131e-07	-3.325384e-09	-5.520114e+00	-2.293317e+02
2.620000e-06	-7.123794e-07	-3.293767e-09	-5.403057e+00	-2.273354e+02
2.630000e-06	-6.969088e-07	-3.265480e-09	-5.285720e+00	-2.253249e+02
2.640000e-06	-6.814161e-07	-3.241469e-09	-5.168215e+00	-2.233011e+02
2.650000e-06	-6.659044e-07	-3.215059e-09	-5.050566e+00	-2.212646e+02
2.660000e-06	-6.503576e-07	-3.184626e-09	-4.932651e+00	-2.192162e+02
2.670000e-06	-6.347842e-07	-3.152144e-09	-4.814534e+00	-2.171564e+02
2.680000e-06	-6.191922e-07	-3.118499e-09	-4.696277e+00	-2.150856e+02
2.690000e-06	-6.035640e-07	-3.082921e-09	-4.577744e+00	-2.130042e+02
2.700000e-06	-5.879168e-07	-3.048130e-09	-4.459068e+00	-2.109125e+02
2.710000e-06	-5.722648e-07	-3.020423e-09	-4.340355e+00	-2.088109e+02
2.720000e-06	-5.565939e-07	-2.994744e-09	-4.221498e+00	-2.066998e+02
2.730000e-06	-5.409146e-07	-2.967665e-09	-4.102578e+00	-2.045796e+02
2.740000e-06	-5.252241e-07	-2.938954e-09	-3.983574e+00	-2.024508e+02
2.750000e-06	-5.095226e-07	-2.907003e-09	-3.864485e+00	-2.003140e+02
2.760000e-06	-4.938155e-07	-2.875968e-09	-3.745354e+00	-1.981697e+02
2.770000e-06	-4.781001e-07	-2.843739e-09	-3.626161e+00	-1.960188e+02
2.780000e-06	-4.623819e-07	-2.809725e-09	-3.506945e+00	-1.938621e+02
2.790000e-06	-4.466591e-07	-2.777206e-09	-3.387695e+00	-1.917003e+02
2.800000e-06	-4.309279e-07	-2.745940e-09	-3.268382e+00	-1.895345e+02
2.810000e-06	-4.151811e-07	-2.715340e-09	-3.148950e+00	-1.873654e+02
2.820000e-06	-3.994258e-07	-2.685337e-09	-3.029454e+00	-1.851941e+02
2.830000e-06	-3.836704e-07	-2.655542e-09	-2.909956e+00	-1.830212e+02
2.840000e-06	-3.679070e-07	-2.626207e-09	-2.790398e+00	-1.808476e+02
2.850000e-06	-3.521383e-07	-2.598081e-09	-2.670801e+00	-1.786739e+02
