# Temperatura_=_20.0
# Concentracion g/m^3_=_10000.0
# C_Vs_to_Am_M_A/Vsm_=_65563218390.804596
# pendiente_HvsI_1/m_=_3716.3
# ordenada_HvsI_A/m_=_1297.0
# frecuencia_Hz_=_81162.4243078578

Tiempo_(s)	Campo_(V.s)	Magnetizacion_(V.s)	Campo_(kA/m)	Magnetizacion_(A/m)
0.000000e+00	-3.113589e-06	-7.149087e-09	-2.355947e+01	-4.582873e+02
1.000000e-08	-3.113599e-06	-7.138306e-09	-2.355955e+01	-4.582586e+02
2.000000e-08	-3.113726e-06	-6.988839e-09	-2.356051e+01	-4.582088e+02
3.000000e-08	-3.113745e-06	-7.084236e-09	-2.356065e+01	-4.581405e+02
4.000000e-08	-3.113584e-06	-7.078387e-09	-2.355944e+01	-4.580563e+02
5.000000e-08	-3.113271e-06	-6.995221e-09	-2.355707e+01	-4.579586e+02
6.000000e-08	-3.112858e-06	-7.088996e-09	-2.355394e+01	-4.578498e+02
7.000000e-08	-3.112327e-06	-7.043284e-09	-2.354993e+01	-4.577318e+02
8.000000e-08	-3.111685e-06	-7.066766e-09	-2.354507e+01	-4.576063e+02
9.000000e-08	-3.110964e-06	-7.055206e-09	-2.353962e+01	-4.574746e+02
1.000000e-07	-3.110191e-06	-7.043634e-09	-2.353376e+01	-4.573376e+02
1.100000e-07	-3.109455e-06	-7.056703e-09	-2.352820e+01	-4.571960e+02
1.200000e-07	-3.108622e-06	-7.001254e-09	-2.352190e+01	-4.570497e+02
1.300000e-07	-3.107710e-06	-7.051121e-09	-2.351499e+01	-4.568989e+02
1.400000e-07	-3.106702e-06	-7.040607e-09	-2.350736e+01	-4.567432e+02
1.500000e-07	-3.105599e-06	-7.062594e-09	-2.349902e+01	-4.565820e+02
1.600000e-07	-3.104394e-06	-7.010269e-09	-2.348990e+01	-4.564150e+02
1.700000e-07	-3.103090e-06	-6.995643e-09	-2.348003e+01	-4.562416e+02
1.800000e-07	-3.101779e-06	-7.054381e-09	-2.347012e+01	-4.560615e+02
1.900000e-07	-3.100345e-06	-6.995208e-09	-2.345926e+01	-4.558744e+02
2.000000e-07	-3.098754e-06	-7.006663e-09	-2.344723e+01	-4.556805e+02
2.100000e-07	-3.097008e-06	-6.981396e-09	-2.343402e+01	-4.554802e+02
2.200000e-07	-3.095218e-06	-7.032737e-09	-2.342047e+01	-4.552742e+02
2.300000e-07	-3.093414e-06	-7.038980e-09	-2.340682e+01	-4.550635e+02
2.400000e-07	-3.091511e-06	-6.997309e-09	-2.339242e+01	-4.548496e+02
2.500000e-07	-3.089539e-06	-6.985656e-09	-2.337750e+01	-4.546340e+02
2.600000e-07	-3.087491e-06	-6.948166e-09	-2.336200e+01	-4.544186e+02
2.700000e-07	-3.085368e-06	-6.998284e-09	-2.334594e+01	-4.542055e+02
2.800000e-07	-3.083152e-06	-6.965574e-09	-2.332917e+01	-4.539967e+02
2.900000e-07	-3.080857e-06	-6.960490e-09	-2.331180e+01	-4.537944e+02
3.000000e-07	-3.078494e-06	-6.958132e-09	-2.329392e+01	-4.536003e+02
3.100000e-07	-3.076054e-06	-6.966506e-09	-2.327546e+01	-4.534162e+02
3.200000e-07	-3.073568e-06	-6.995301e-09	-2.325665e+01	-4.532435e+02
3.300000e-07	-3.071002e-06	-6.948763e-09	-2.323723e+01	-4.530832e+02
3.400000e-07	-3.068370e-06	-6.956610e-09	-2.321732e+01	-4.529358e+02
3.500000e-07	-3.065620e-06	-6.937276e-09	-2.319651e+01	-4.528015e+02
3.600000e-07	-3.062741e-06	-6.949522e-09	-2.317473e+01	-4.526798e+02
3.700000e-07	-3.059800e-06	-6.938536e-09	-2.315247e+01	-4.525698e+02
3.800000e-07	-3.056795e-06	-6.914052e-09	-2.312974e+01	-4.524701e+02
3.900000e-07	-3.053724e-06	-6.934120e-09	-2.310650e+01	-4.523789e+02
4.000000e-07	-3.050556e-06	-6.926926e-09	-2.308253e+01	-4.522940e+02
4.100000e-07	-3.047333e-06	-6.961491e-09	-2.305814e+01	-4.522131e+02
4.200000e-07	-3.044057e-06	-6.932393e-09	-2.303335e+01	-4.521334e+02
4.300000e-07	-3.040708e-06	-6.915164e-09	-2.300801e+01	-4.520521e+02
4.400000e-07	-3.037269e-06	-6.911460e-09	-2.298199e+01	-4.519666e+02
4.500000e-07	-3.033726e-06	-6.905972e-09	-2.295518e+01	-4.518741e+02
4.600000e-07	-3.030108e-06	-6.920828e-09	-2.292781e+01	-4.517720e+02
4.700000e-07	-3.026393e-06	-6.889976e-09	-2.289969e+01	-4.516581e+02
4.800000e-07	-3.022612e-06	-6.910494e-09	-2.287108e+01	-4.515302e+02
4.900000e-07	-3.018764e-06	-6.911685e-09	-2.284197e+01	-4.513868e+02
5.000000e-07	-3.014818e-06	-6.914002e-09	-2.281211e+01	-4.512262e+02
5.100000e-07	-3.010785e-06	-6.897100e-09	-2.278159e+01	-4.510476e+02
5.200000e-07	-3.006684e-06	-6.870235e-09	-2.275056e+01	-4.508502e+02
5.300000e-07	-3.002552e-06	-6.885070e-09	-2.271930e+01	-4.506335e+02
5.400000e-07	-2.998335e-06	-6.868371e-09	-2.268739e+01	-4.503975e+02
5.500000e-07	-2.993992e-06	-6.872183e-09	-2.265453e+01	-4.501422e+02
5.600000e-07	-2.989542e-06	-6.852688e-09	-2.262085e+01	-4.498678e+02
5.700000e-07	-2.985030e-06	-6.854136e-09	-2.258671e+01	-4.495747e+02
5.800000e-07	-2.980466e-06	-6.858762e-09	-2.255218e+01	-4.492634e+02
5.900000e-07	-2.975802e-06	-6.840229e-09	-2.251689e+01	-4.489341e+02
6.000000e-07	-2.971058e-06	-6.842084e-09	-2.248100e+01	-4.485875e+02
6.100000e-07	-2.966244e-06	-6.823601e-09	-2.244457e+01	-4.482238e+02
6.200000e-07	-2.961370e-06	-6.834651e-09	-2.240768e+01	-4.478433e+02
6.300000e-07	-2.956420e-06	-6.819226e-09	-2.237023e+01	-4.474462e+02
6.400000e-07	-2.951360e-06	-6.801578e-09	-2.233195e+01	-4.470327e+02
6.500000e-07	-2.946188e-06	-6.793191e-09	-2.229281e+01	-4.466029e+02
6.600000e-07	-2.940912e-06	-6.777665e-09	-2.225289e+01	-4.461569e+02
6.700000e-07	-2.935566e-06	-6.783237e-09	-2.221244e+01	-4.456946e+02
6.800000e-07	-2.930126e-06	-6.764516e-09	-2.217127e+01	-4.452163e+02
6.900000e-07	-2.924602e-06	-6.765537e-09	-2.212947e+01	-4.447221e+02
7.000000e-07	-2.919001e-06	-6.755823e-09	-2.208710e+01	-4.442123e+02
7.100000e-07	-2.913330e-06	-6.749238e-09	-2.204419e+01	-4.436873e+02
7.200000e-07	-2.907606e-06	-6.740489e-09	-2.200088e+01	-4.431477e+02
7.300000e-07	-2.901810e-06	-6.713327e-09	-2.195702e+01	-4.425942e+02
7.400000e-07	-2.895951e-06	-6.706437e-09	-2.191268e+01	-4.420277e+02
7.500000e-07	-2.889990e-06	-6.685741e-09	-2.186758e+01	-4.414495e+02
7.600000e-07	-2.883924e-06	-6.682143e-09	-2.182168e+01	-4.408606e+02
7.700000e-07	-2.877789e-06	-6.666726e-09	-2.177525e+01	-4.402626e+02
7.800000e-07	-2.871592e-06	-6.655017e-09	-2.172837e+01	-4.396568e+02
7.900000e-07	-2.865327e-06	-6.649989e-09	-2.168096e+01	-4.390450e+02
8.000000e-07	-2.858990e-06	-6.634699e-09	-2.163301e+01	-4.384286e+02
8.100000e-07	-2.852599e-06	-6.632836e-09	-2.158465e+01	-4.378092e+02
8.200000e-07	-2.846137e-06	-6.610421e-09	-2.153576e+01	-4.371885e+02
8.300000e-07	-2.839612e-06	-6.599572e-09	-2.148639e+01	-4.365677e+02
8.400000e-07	-2.833022e-06	-6.581882e-09	-2.143652e+01	-4.359482e+02
8.500000e-07	-2.826352e-06	-6.565325e-09	-2.138605e+01	-4.353313e+02
8.600000e-07	-2.819585e-06	-6.557299e-09	-2.133485e+01	-4.347179e+02
8.700000e-07	-2.812718e-06	-6.543909e-09	-2.128289e+01	-4.341088e+02
8.800000e-07	-2.805805e-06	-6.547351e-09	-2.123058e+01	-4.335049e+02
8.900000e-07	-2.798816e-06	-6.538815e-09	-2.117770e+01	-4.329065e+02
9.000000e-07	-2.791749e-06	-6.534570e-09	-2.112423e+01	-4.323143e+02
9.100000e-07	-2.784618e-06	-6.522910e-09	-2.107027e+01	-4.317284e+02
9.200000e-07	-2.777418e-06	-6.511619e-09	-2.101578e+01	-4.311491e+02
9.300000e-07	-2.770166e-06	-6.502599e-09	-2.096091e+01	-4.305764e+02
9.400000e-07	-2.762860e-06	-6.481031e-09	-2.090563e+01	-4.300106e+02
9.500000e-07	-2.755489e-06	-6.469294e-09	-2.084985e+01	-4.294517e+02
9.600000e-07	-2.747999e-06	-6.450761e-09	-2.079318e+01	-4.288996e+02
9.700000e-07	-2.740417e-06	-6.447855e-09	-2.073581e+01	-4.283544e+02
9.800000e-07	-2.732769e-06	-6.445714e-09	-2.067794e+01	-4.278162e+02
9.900000e-07	-2.725038e-06	-6.440142e-09	-2.061944e+01	-4.272848e+02
1.000000e-06	-2.717231e-06	-6.439498e-09	-2.056037e+01	-4.267602e+02
1.010000e-06	-2.709336e-06	-6.428647e-09	-2.050063e+01	-4.262422e+02
1.020000e-06	-2.701374e-06	-6.423134e-09	-2.044038e+01	-4.257305e+02
1.030000e-06	-2.693332e-06	-6.405186e-09	-2.037954e+01	-4.252247e+02
1.040000e-06	-2.685206e-06	-6.389928e-09	-2.031805e+01	-4.247243e+02
1.050000e-06	-2.676996e-06	-6.375434e-09	-2.025592e+01	-4.242284e+02
1.060000e-06	-2.668711e-06	-6.359999e-09	-2.019323e+01	-4.237361e+02
1.070000e-06	-2.660375e-06	-6.355687e-09	-2.013016e+01	-4.232463e+02
1.080000e-06	-2.651966e-06	-6.352031e-09	-2.006653e+01	-4.227574e+02
1.090000e-06	-2.643491e-06	-6.357824e-09	-2.000240e+01	-4.222679e+02
1.100000e-06	-2.634968e-06	-6.354843e-09	-1.993791e+01	-4.217759e+02
1.110000e-06	-2.626391e-06	-6.347204e-09	-1.987302e+01	-4.212793e+02
1.120000e-06	-2.617759e-06	-6.332544e-09	-1.980770e+01	-4.207761e+02
1.130000e-06	-2.609056e-06	-6.312536e-09	-1.974184e+01	-4.202639e+02
1.140000e-06	-2.600303e-06	-6.297396e-09	-1.967562e+01	-4.197407e+02
1.150000e-06	-2.591499e-06	-6.280441e-09	-1.960900e+01	-4.192040e+02
1.160000e-06	-2.582624e-06	-6.274414e-09	-1.954185e+01	-4.186520e+02
1.170000e-06	-2.573692e-06	-6.271281e-09	-1.947426e+01	-4.180825e+02
1.180000e-06	-2.564707e-06	-6.273713e-09	-1.940628e+01	-4.174940e+02
1.190000e-06	-2.555637e-06	-6.269606e-09	-1.933764e+01	-4.168850e+02
1.200000e-06	-2.546456e-06	-6.253326e-09	-1.926818e+01	-4.162543e+02
1.210000e-06	-2.537198e-06	-6.236289e-09	-1.919812e+01	-4.156011e+02
1.220000e-06	-2.527871e-06	-6.213852e-09	-1.912755e+01	-4.149251e+02
1.230000e-06	-2.518496e-06	-6.197459e-09	-1.905661e+01	-4.142261e+02
1.240000e-06	-2.509086e-06	-6.182895e-09	-1.898541e+01	-4.135043e+02
1.250000e-06	-2.499616e-06	-6.173411e-09	-1.891375e+01	-4.127602e+02
1.260000e-06	-2.490079e-06	-6.164656e-09	-1.884158e+01	-4.119946e+02
1.270000e-06	-2.480469e-06	-6.151821e-09	-1.876887e+01	-4.112084e+02
1.280000e-06	-2.470810e-06	-6.137586e-09	-1.869578e+01	-4.104027e+02
1.290000e-06	-2.461101e-06	-6.119698e-09	-1.862232e+01	-4.095786e+02
1.300000e-06	-2.451334e-06	-6.108285e-09	-1.854842e+01	-4.087372e+02
1.310000e-06	-2.441493e-06	-6.091336e-09	-1.847395e+01	-4.078796e+02
1.320000e-06	-2.431558e-06	-6.072852e-09	-1.839878e+01	-4.070068e+02
1.330000e-06	-2.421537e-06	-6.057330e-09	-1.832296e+01	-4.061196e+02
1.340000e-06	-2.411455e-06	-6.042698e-09	-1.824667e+01	-4.052186e+02
1.350000e-06	-2.401331e-06	-6.032098e-09	-1.817006e+01	-4.043044e+02
1.360000e-06	-2.391141e-06	-6.015076e-09	-1.809296e+01	-4.033772e+02
1.370000e-06	-2.380897e-06	-6.000183e-09	-1.801544e+01	-4.024373e+02
1.380000e-06	-2.370583e-06	-5.988007e-09	-1.793740e+01	-4.014846e+02
1.390000e-06	-2.360205e-06	-5.975564e-09	-1.785888e+01	-4.005191e+02
1.400000e-06	-2.349793e-06	-5.957056e-09	-1.778009e+01	-3.995407e+02
1.410000e-06	-2.339323e-06	-5.934700e-09	-1.770087e+01	-3.985494e+02
1.420000e-06	-2.328807e-06	-5.919289e-09	-1.762130e+01	-3.975453e+02
1.430000e-06	-2.318246e-06	-5.903379e-09	-1.754139e+01	-3.965286e+02
1.440000e-06	-2.307611e-06	-5.889959e-09	-1.746091e+01	-3.954996e+02
1.450000e-06	-2.296881e-06	-5.873958e-09	-1.737972e+01	-3.944591e+02
1.460000e-06	-2.286051e-06	-5.855201e-09	-1.729777e+01	-3.934078e+02
1.470000e-06	-2.275162e-06	-5.841017e-09	-1.721538e+01	-3.923471e+02
1.480000e-06	-2.264237e-06	-5.830088e-09	-1.713271e+01	-3.912783e+02
1.490000e-06	-2.253268e-06	-5.819638e-09	-1.704972e+01	-3.902031e+02
1.500000e-06	-2.242253e-06	-5.800497e-09	-1.696637e+01	-3.891233e+02
1.510000e-06	-2.231177e-06	-5.781398e-09	-1.688257e+01	-3.880409e+02
1.520000e-06	-2.220053e-06	-5.762179e-09	-1.679839e+01	-3.869579e+02
1.530000e-06	-2.208871e-06	-5.741633e-09	-1.671379e+01	-3.858764e+02
1.540000e-06	-2.197632e-06	-5.721088e-09	-1.662874e+01	-3.847982e+02
1.550000e-06	-2.186347e-06	-5.700634e-09	-1.654335e+01	-3.837251e+02
1.560000e-06	-2.175030e-06	-5.688631e-09	-1.645772e+01	-3.826585e+02
1.570000e-06	-2.163663e-06	-5.676526e-09	-1.637170e+01	-3.815996e+02
1.580000e-06	-2.152216e-06	-5.665400e-09	-1.628509e+01	-3.805492e+02
1.590000e-06	-2.140687e-06	-5.650741e-09	-1.619786e+01	-3.795075e+02
1.600000e-06	-2.129064e-06	-5.636830e-09	-1.610991e+01	-3.784743e+02
1.610000e-06	-2.117368e-06	-5.626719e-09	-1.602141e+01	-3.774492e+02
1.620000e-06	-2.105616e-06	-5.609150e-09	-1.593248e+01	-3.764311e+02
1.630000e-06	-2.093813e-06	-5.587900e-09	-1.584317e+01	-3.754186e+02
1.640000e-06	-2.081965e-06	-5.567264e-09	-1.575353e+01	-3.744099e+02
1.650000e-06	-2.070076e-06	-5.552326e-09	-1.566356e+01	-3.734031e+02
1.660000e-06	-2.058139e-06	-5.538110e-09	-1.557324e+01	-3.723960e+02
1.670000e-06	-2.046144e-06	-5.523700e-09	-1.548248e+01	-3.713864e+02
1.680000e-06	-2.034100e-06	-5.510211e-09	-1.539135e+01	-3.703721e+02
1.690000e-06	-2.022016e-06	-5.497397e-09	-1.529991e+01	-3.693509e+02
1.700000e-06	-2.009895e-06	-5.483684e-09	-1.520819e+01	-3.683210e+02
1.710000e-06	-1.997722e-06	-5.462498e-09	-1.511609e+01	-3.672806e+02
1.720000e-06	-1.985479e-06	-5.440296e-09	-1.502345e+01	-3.662285e+02
1.730000e-06	-1.973167e-06	-5.423482e-09	-1.493029e+01	-3.651637e+02
1.740000e-06	-1.960781e-06	-5.411821e-09	-1.483657e+01	-3.640854e+02
1.750000e-06	-1.948336e-06	-5.397084e-09	-1.474240e+01	-3.629935e+02
1.760000e-06	-1.935850e-06	-5.377499e-09	-1.464793e+01	-3.618880e+02
1.770000e-06	-1.923317e-06	-5.359067e-09	-1.455309e+01	-3.607691e+02
1.780000e-06	-1.910745e-06	-5.340363e-09	-1.445796e+01	-3.596375e+02
1.790000e-06	-1.898137e-06	-5.320528e-09	-1.436256e+01	-3.584937e+02
1.800000e-06	-1.885471e-06	-5.300123e-09	-1.426673e+01	-3.573385e+02
1.810000e-06	-1.872749e-06	-5.282093e-09	-1.417046e+01	-3.561726e+02
1.820000e-06	-1.859990e-06	-5.267547e-09	-1.407392e+01	-3.549964e+02
1.830000e-06	-1.847200e-06	-5.252907e-09	-1.397714e+01	-3.538102e+02
1.840000e-06	-1.834364e-06	-5.234136e-09	-1.388002e+01	-3.526143e+02
1.850000e-06	-1.821472e-06	-5.211925e-09	-1.378246e+01	-3.514082e+02
1.860000e-06	-1.808550e-06	-5.190645e-09	-1.368469e+01	-3.501914e+02
1.870000e-06	-1.795602e-06	-5.170050e-09	-1.358672e+01	-3.489630e+02
1.880000e-06	-1.782595e-06	-5.148224e-09	-1.348829e+01	-3.477217e+02
1.890000e-06	-1.769516e-06	-5.125805e-09	-1.338933e+01	-3.464659e+02
1.900000e-06	-1.756370e-06	-5.101795e-09	-1.328986e+01	-3.451939e+02
1.910000e-06	-1.743153e-06	-5.081237e-09	-1.318985e+01	-3.439036e+02
1.920000e-06	-1.729891e-06	-5.061006e-09	-1.308950e+01	-3.425931e+02
1.930000e-06	-1.716603e-06	-5.039047e-09	-1.298896e+01	-3.412603e+02
1.940000e-06	-1.703285e-06	-5.013658e-09	-1.288818e+01	-3.399034e+02
1.950000e-06	-1.689941e-06	-4.985619e-09	-1.278721e+01	-3.385208e+02
1.960000e-06	-1.676556e-06	-4.961667e-09	-1.268594e+01	-3.371112e+02
1.970000e-06	-1.663125e-06	-4.938050e-09	-1.258430e+01	-3.356736e+02
1.980000e-06	-1.649646e-06	-4.912763e-09	-1.248232e+01	-3.342077e+02
1.990000e-06	-1.636120e-06	-4.885875e-09	-1.237997e+01	-3.327136e+02
2.000000e-06	-1.622545e-06	-4.864306e-09	-1.227725e+01	-3.311918e+02
2.010000e-06	-1.608931e-06	-4.842761e-09	-1.217424e+01	-3.296435e+02
2.020000e-06	-1.595281e-06	-4.817980e-09	-1.207095e+01	-3.280705e+02
2.030000e-06	-1.581599e-06	-4.791774e-09	-1.196743e+01	-3.264747e+02
2.040000e-06	-1.567893e-06	-4.764491e-09	-1.186372e+01	-3.248586e+02
2.050000e-06	-1.554161e-06	-4.742037e-09	-1.175981e+01	-3.232251e+02
2.060000e-06	-1.540392e-06	-4.719369e-09	-1.165562e+01	-3.215771e+02
2.070000e-06	-1.526561e-06	-4.692851e-09	-1.155097e+01	-3.199176e+02
2.080000e-06	-1.512662e-06	-4.665525e-09	-1.144580e+01	-3.182498e+02
2.090000e-06	-1.498714e-06	-4.642775e-09	-1.134026e+01	-3.165764e+02
2.100000e-06	-1.484731e-06	-4.622956e-09	-1.123446e+01	-3.149003e+02
2.110000e-06	-1.470696e-06	-4.597093e-09	-1.112826e+01	-3.132239e+02
2.120000e-06	-1.456617e-06	-4.568569e-09	-1.102173e+01	-3.115491e+02
2.130000e-06	-1.442506e-06	-4.543317e-09	-1.091496e+01	-3.098777e+02
2.140000e-06	-1.428354e-06	-4.520855e-09	-1.080787e+01	-3.082108e+02
2.150000e-06	-1.414158e-06	-4.497994e-09	-1.070046e+01	-3.065494e+02
2.160000e-06	-1.399931e-06	-4.472909e-09	-1.059281e+01	-3.048937e+02
2.170000e-06	-1.385661e-06	-4.447617e-09	-1.048483e+01	-3.032439e+02
2.180000e-06	-1.371354e-06	-4.423407e-09	-1.037657e+01	-3.015996e+02
2.190000e-06	-1.357023e-06	-4.402169e-09	-1.026813e+01	-2.999604e+02
2.200000e-06	-1.342644e-06	-4.381174e-09	-1.015933e+01	-2.983256e+02
2.210000e-06	-1.328225e-06	-4.359867e-09	-1.005023e+01	-2.966946e+02
2.220000e-06	-1.313782e-06	-4.339430e-09	-9.940946e+00	-2.950665e+02
2.230000e-06	-1.299277e-06	-4.317003e-09	-9.831192e+00	-2.934408e+02
2.240000e-06	-1.284720e-06	-4.292492e-09	-9.721041e+00	-2.918169e+02
2.250000e-06	-1.270144e-06	-4.266903e-09	-9.610755e+00	-2.901944e+02
2.260000e-06	-1.255540e-06	-4.242106e-09	-9.500251e+00	-2.885733e+02
2.270000e-06	-1.240905e-06	-4.218483e-09	-9.389506e+00	-2.869537e+02
2.280000e-06	-1.226231e-06	-4.196962e-09	-9.278476e+00	-2.853357e+02
2.290000e-06	-1.211523e-06	-4.176551e-09	-9.167188e+00	-2.837200e+02
2.300000e-06	-1.196791e-06	-4.155456e-09	-9.055717e+00	-2.821070e+02
2.310000e-06	-1.182032e-06	-4.135324e-09	-8.944037e+00	-2.804976e+02
2.320000e-06	-1.167247e-06	-4.113379e-09	-8.832165e+00	-2.788924e+02
2.330000e-06	-1.152441e-06	-4.088323e-09	-8.720131e+00	-2.772921e+02
2.340000e-06	-1.137607e-06	-4.063407e-09	-8.607889e+00	-2.756972e+02
2.350000e-06	-1.122739e-06	-4.040601e-09	-8.495388e+00	-2.741080e+02
2.360000e-06	-1.107844e-06	-4.020643e-09	-8.382683e+00	-2.725246e+02
2.370000e-06	-1.092929e-06	-4.000705e-09	-8.269828e+00	-2.709465e+02
2.380000e-06	-1.077993e-06	-3.979820e-09	-8.156806e+00	-2.693731e+02
2.390000e-06	-1.063037e-06	-3.958449e-09	-8.043642e+00	-2.678034e+02
2.400000e-06	-1.048075e-06	-3.936136e-09	-7.930433e+00	-2.662359e+02
2.410000e-06	-1.033093e-06	-3.911894e-09	-7.817068e+00	-2.646686e+02
2.420000e-06	-1.018067e-06	-3.886662e-09	-7.703371e+00	-2.630994e+02
2.430000e-06	-1.003017e-06	-3.863749e-09	-7.589490e+00	-2.615257e+02
2.440000e-06	-9.879527e-07	-3.841959e-09	-7.475504e+00	-2.599448e+02
2.450000e-06	-9.728636e-07	-3.816904e-09	-7.361330e+00	-2.583538e+02
2.460000e-06	-9.577495e-07	-3.787835e-09	-7.246967e+00	-2.567497e+02
2.470000e-06	-9.426132e-07	-3.759721e-09	-7.132436e+00	-2.551295e+02
2.480000e-06	-9.274536e-07	-3.734679e-09	-7.017729e+00	-2.534904e+02
2.490000e-06	-9.122705e-07	-3.712208e-09	-6.902843e+00	-2.518298e+02
2.500000e-06	-8.970626e-07	-3.692025e-09	-6.787770e+00	-2.501453e+02
2.510000e-06	-8.818245e-07	-3.673115e-09	-6.672468e+00	-2.484350e+02
2.520000e-06	-8.665673e-07	-3.651877e-09	-6.557022e+00	-2.466973e+02
2.530000e-06	-8.512863e-07	-3.624661e-09	-6.441396e+00	-2.449310e+02
2.540000e-06	-8.359802e-07	-3.594747e-09	-6.325580e+00	-2.431355e+02
2.550000e-06	-8.206584e-07	-3.565802e-09	-6.209645e+00	-2.413105e+02
2.560000e-06	-8.053151e-07	-3.536635e-09	-6.093547e+00	-2.394563e+02
2.570000e-06	-7.899503e-07	-3.507299e-09	-5.977287e+00	-2.375736e+02
2.580000e-06	-7.745679e-07	-3.478344e-09	-5.860894e+00	-2.356633e+02
2.590000e-06	-7.591691e-07	-3.449995e-09	-5.744377e+00	-2.337267e+02
2.600000e-06	-7.437398e-07	-3.421092e-09	-5.627628e+00	-2.317655e+02
2.610000e-06	-7.282830e-07	-3.389683e-09	-5.510671e+00	-2.297813e+02
2.620000e-06	-7.128099e-07	-3.356893e-09	-5.393592e+00	-2.277760e+02
2.630000e-06	-6.973209e-07	-3.325820e-09	-5.276392e+00	-2.257514e+02
2.640000e-06	-6.817956e-07	-3.295904e-09	-5.158917e+00	-2.237095e+02
2.650000e-06	-6.662204e-07	-3.262763e-09	-5.041065e+00	-2.216519e+02
2.660000e-06	-6.506196e-07	-3.229620e-09	-4.923019e+00	-2.195804e+02
2.670000e-06	-6.350052e-07	-3.201204e-09	-4.804870e+00	-2.174964e+02
2.680000e-06	-6.193709e-07	-3.173922e-09	-4.686570e+00	-2.154012e+02
2.690000e-06	-6.037259e-07	-3.144258e-09	-4.568190e+00	-2.132959e+02
2.700000e-06	-5.880722e-07	-3.112982e-09	-4.449744e+00	-2.111816e+02
2.710000e-06	-5.724038e-07	-3.082441e-09	-4.331186e+00	-2.090591e+02
2.720000e-06	-5.567161e-07	-3.052317e-09	-4.212483e+00	-2.069288e+02
2.730000e-06	-5.410111e-07	-3.017729e-09	-4.093648e+00	-2.047915e+02
2.740000e-06	-5.252971e-07	-2.979880e-09	-3.974746e+00	-2.026475e+02
2.750000e-06	-5.095803e-07	-2.942656e-09	-3.855822e+00	-2.004973e+02
2.760000e-06	-4.938527e-07	-2.910335e-09	-3.736817e+00	-1.983411e+02
2.770000e-06	-4.781079e-07	-2.881915e-09	-3.617681e+00	-1.961795e+02
2.780000e-06	-4.623569e-07	-2.852630e-09	-3.498499e+00	-1.940128e+02
2.790000e-06	-4.465942e-07	-2.823007e-09	-3.379227e+00	-1.918414e+02
2.800000e-06	-4.308239e-07	-2.793572e-09	-3.259899e+00	-1.896659e+02
2.810000e-06	-4.150465e-07	-2.764064e-09	-3.140517e+00	-1.874869e+02
2.820000e-06	-3.992571e-07	-2.731820e-09	-3.021044e+00	-1.853049e+02
2.830000e-06	-3.834673e-07	-2.697525e-09	-2.901567e+00	-1.831206e+02
2.840000e-06	-3.676800e-07	-2.664477e-09	-2.782111e+00	-1.809348e+02
2.850000e-06	-3.518773e-07	-2.635058e-09	-2.662537e+00	-1.787480e+02
