# Temperatura_=_20.0
# Concentracion g/m^3_=_10000.0
# C_Vs_to_Am_M_A/Vsm_=_65563218390.804596
# pendiente_HvsI_1/m_=_3716.3
# ordenada_HvsI_A/m_=_1297.0
# frecuencia_Hz_=_81161.3164700942

Tiempo_(s)	Campo_(V.s)	Magnetizacion_(V.s)	Campo_(kA/m)	Magnetizacion_(A/m)
0.000000e+00	-3.111246e-06	-7.142407e-09	-2.356009e+01	-4.595929e+02
1.000000e-08	-3.111234e-06	-7.204256e-09	-2.356000e+01	-4.595874e+02
2.000000e-08	-3.111361e-06	-7.036694e-09	-2.356096e+01	-4.595833e+02
3.000000e-08	-3.111400e-06	-7.072626e-09	-2.356126e+01	-4.595814e+02
4.000000e-08	-3.111264e-06	-7.151005e-09	-2.356022e+01	-4.595820e+02
5.000000e-08	-3.110961e-06	-7.047299e-09	-2.355793e+01	-4.595850e+02
6.000000e-08	-3.110575e-06	-7.104926e-09	-2.355500e+01	-4.595901e+02
7.000000e-08	-3.110097e-06	-7.065882e-09	-2.355139e+01	-4.595965e+02
8.000000e-08	-3.109469e-06	-7.067936e-09	-2.354663e+01	-4.596031e+02
9.000000e-08	-3.108768e-06	-7.102541e-09	-2.354132e+01	-4.596086e+02
1.000000e-07	-3.108009e-06	-7.093010e-09	-2.353557e+01	-4.596115e+02
1.100000e-07	-3.107296e-06	-7.124624e-09	-2.353018e+01	-4.596103e+02
1.200000e-07	-3.106477e-06	-7.048193e-09	-2.352397e+01	-4.596034e+02
1.300000e-07	-3.105556e-06	-7.066627e-09	-2.351700e+01	-4.595894e+02
1.400000e-07	-3.104537e-06	-7.079793e-09	-2.350928e+01	-4.595667e+02
1.500000e-07	-3.103433e-06	-7.098508e-09	-2.350092e+01	-4.595344e+02
1.600000e-07	-3.102256e-06	-7.082040e-09	-2.349201e+01	-4.594916e+02
1.700000e-07	-3.100943e-06	-7.033530e-09	-2.348207e+01	-4.594377e+02
1.800000e-07	-3.099618e-06	-7.106152e-09	-2.347203e+01	-4.593726e+02
1.900000e-07	-3.098193e-06	-7.054130e-09	-2.346124e+01	-4.592965e+02
2.000000e-07	-3.096633e-06	-7.053836e-09	-2.344943e+01	-4.592099e+02
2.100000e-07	-3.094911e-06	-7.023427e-09	-2.343639e+01	-4.591136e+02
2.200000e-07	-3.093129e-06	-7.043228e-09	-2.342290e+01	-4.590088e+02
2.300000e-07	-3.091340e-06	-7.092732e-09	-2.340935e+01	-4.588968e+02
2.400000e-07	-3.089435e-06	-7.058581e-09	-2.339492e+01	-4.587790e+02
2.500000e-07	-3.087460e-06	-7.061015e-09	-2.337997e+01	-4.586569e+02
2.600000e-07	-3.085407e-06	-7.011534e-09	-2.336442e+01	-4.585321e+02
2.700000e-07	-3.083285e-06	-7.056641e-09	-2.334835e+01	-4.584059e+02
2.800000e-07	-3.081069e-06	-7.046706e-09	-2.333157e+01	-4.582794e+02
2.900000e-07	-3.078761e-06	-7.020885e-09	-2.331409e+01	-4.581537e+02
3.000000e-07	-3.076420e-06	-7.024819e-09	-2.329637e+01	-4.580292e+02
3.100000e-07	-3.073996e-06	-7.014957e-09	-2.327801e+01	-4.579064e+02
3.200000e-07	-3.071515e-06	-7.054427e-09	-2.325922e+01	-4.577850e+02
3.300000e-07	-3.068959e-06	-7.010512e-09	-2.323987e+01	-4.576646e+02
3.400000e-07	-3.066329e-06	-7.007738e-09	-2.321995e+01	-4.575444e+02
3.500000e-07	-3.063576e-06	-6.998015e-09	-2.319910e+01	-4.574233e+02
3.600000e-07	-3.060695e-06	-7.002670e-09	-2.317729e+01	-4.572998e+02
3.700000e-07	-3.057775e-06	-7.016875e-09	-2.315517e+01	-4.571724e+02
3.800000e-07	-3.054785e-06	-6.982695e-09	-2.313253e+01	-4.570393e+02
3.900000e-07	-3.051720e-06	-6.995524e-09	-2.310932e+01	-4.568986e+02
4.000000e-07	-3.048551e-06	-6.975668e-09	-2.308533e+01	-4.567487e+02
4.100000e-07	-3.045329e-06	-6.996591e-09	-2.306093e+01	-4.565879e+02
4.200000e-07	-3.042067e-06	-6.980900e-09	-2.303623e+01	-4.564146e+02
4.300000e-07	-3.038734e-06	-6.953988e-09	-2.301099e+01	-4.562276e+02
4.400000e-07	-3.035334e-06	-6.964571e-09	-2.298524e+01	-4.560259e+02
4.500000e-07	-3.031827e-06	-6.955366e-09	-2.295868e+01	-4.558089e+02
4.600000e-07	-3.028214e-06	-6.975202e-09	-2.293132e+01	-4.555760e+02
4.700000e-07	-3.024499e-06	-6.939178e-09	-2.290319e+01	-4.553274e+02
4.800000e-07	-3.020731e-06	-6.935365e-09	-2.287466e+01	-4.550632e+02
4.900000e-07	-3.016901e-06	-6.937058e-09	-2.284566e+01	-4.547840e+02
5.000000e-07	-3.012981e-06	-6.932243e-09	-2.281597e+01	-4.544904e+02
5.100000e-07	-3.008978e-06	-6.929071e-09	-2.278565e+01	-4.541835e+02
5.200000e-07	-3.004890e-06	-6.892676e-09	-2.275470e+01	-4.538641e+02
5.300000e-07	-3.000760e-06	-6.908954e-09	-2.272343e+01	-4.535335e+02
5.400000e-07	-2.996555e-06	-6.905932e-09	-2.269159e+01	-4.531925e+02
5.500000e-07	-2.992239e-06	-6.912682e-09	-2.265890e+01	-4.528423e+02
5.600000e-07	-2.987807e-06	-6.901107e-09	-2.262534e+01	-4.524836e+02
5.700000e-07	-2.983289e-06	-6.888620e-09	-2.259112e+01	-4.521173e+02
5.800000e-07	-2.978729e-06	-6.901263e-09	-2.255659e+01	-4.517438e+02
5.900000e-07	-2.974081e-06	-6.875311e-09	-2.252139e+01	-4.513636e+02
6.000000e-07	-2.969357e-06	-6.864386e-09	-2.248562e+01	-4.509768e+02
6.100000e-07	-2.964566e-06	-6.838208e-09	-2.244935e+01	-4.505836e+02
6.200000e-07	-2.959699e-06	-6.845753e-09	-2.241249e+01	-4.501838e+02
6.300000e-07	-2.954765e-06	-6.854014e-09	-2.237513e+01	-4.497773e+02
6.400000e-07	-2.949734e-06	-6.842155e-09	-2.233703e+01	-4.493640e+02
6.500000e-07	-2.944606e-06	-6.841704e-09	-2.229820e+01	-4.489436e+02
6.600000e-07	-2.939363e-06	-6.822569e-09	-2.225849e+01	-4.485160e+02
6.700000e-07	-2.934029e-06	-6.825493e-09	-2.221810e+01	-4.480812e+02
6.800000e-07	-2.928603e-06	-6.802941e-09	-2.217702e+01	-4.476393e+02
6.900000e-07	-2.923082e-06	-6.787292e-09	-2.213520e+01	-4.471905e+02
7.000000e-07	-2.917487e-06	-6.776526e-09	-2.209284e+01	-4.467353e+02
7.100000e-07	-2.911839e-06	-6.769687e-09	-2.205006e+01	-4.462744e+02
7.200000e-07	-2.906161e-06	-6.780462e-09	-2.200707e+01	-4.458085e+02
7.300000e-07	-2.900399e-06	-6.759926e-09	-2.196344e+01	-4.453386e+02
7.400000e-07	-2.894555e-06	-6.753348e-09	-2.191918e+01	-4.448658e+02
7.500000e-07	-2.888613e-06	-6.739686e-09	-2.187418e+01	-4.443912e+02
7.600000e-07	-2.882567e-06	-6.740006e-09	-2.182840e+01	-4.439160e+02
7.700000e-07	-2.876449e-06	-6.732144e-09	-2.178207e+01	-4.434412e+02
7.800000e-07	-2.870264e-06	-6.709634e-09	-2.173523e+01	-4.429681e+02
7.900000e-07	-2.864022e-06	-6.706075e-09	-2.168797e+01	-4.424973e+02
8.000000e-07	-2.857705e-06	-6.690458e-09	-2.164013e+01	-4.420297e+02
8.100000e-07	-2.851325e-06	-6.687111e-09	-2.159182e+01	-4.415656e+02
8.200000e-07	-2.844874e-06	-6.664871e-09	-2.154297e+01	-4.411053e+02
8.300000e-07	-2.838348e-06	-6.652275e-09	-2.149355e+01	-4.406487e+02
8.400000e-07	-2.831765e-06	-6.654621e-09	-2.144370e+01	-4.401953e+02
8.500000e-07	-2.825093e-06	-6.649870e-09	-2.139318e+01	-4.397445e+02
8.600000e-07	-2.818317e-06	-6.648191e-09	-2.134186e+01	-4.392953e+02
8.700000e-07	-2.811453e-06	-6.627599e-09	-2.128989e+01	-4.388465e+02
8.800000e-07	-2.804542e-06	-6.621460e-09	-2.123755e+01	-4.383969e+02
8.900000e-07	-2.797567e-06	-6.611894e-09	-2.118473e+01	-4.379449e+02
9.000000e-07	-2.790526e-06	-6.601620e-09	-2.113141e+01	-4.374890e+02
9.100000e-07	-2.783425e-06	-6.589622e-09	-2.107764e+01	-4.370278e+02
9.200000e-07	-2.776236e-06	-6.575582e-09	-2.102320e+01	-4.365598e+02
9.300000e-07	-2.768993e-06	-6.579170e-09	-2.096835e+01	-4.360835e+02
9.400000e-07	-2.761701e-06	-6.570691e-09	-2.091314e+01	-4.355980e+02
9.500000e-07	-2.754343e-06	-6.564729e-09	-2.085742e+01	-4.351021e+02
9.600000e-07	-2.746884e-06	-6.553833e-09	-2.080094e+01	-4.345951e+02
9.700000e-07	-2.739328e-06	-6.550099e-09	-2.074372e+01	-4.340766e+02
9.800000e-07	-2.731700e-06	-6.544903e-09	-2.068596e+01	-4.335463e+02
9.900000e-07	-2.723979e-06	-6.524785e-09	-2.062749e+01	-4.330040e+02
1.000000e-06	-2.716195e-06	-6.510655e-09	-2.056854e+01	-4.324500e+02
1.010000e-06	-2.708342e-06	-6.493389e-09	-2.050908e+01	-4.318846e+02
1.020000e-06	-2.700430e-06	-6.490755e-09	-2.044916e+01	-4.313081e+02
1.030000e-06	-2.692426e-06	-6.481836e-09	-2.038855e+01	-4.307211e+02
1.040000e-06	-2.684298e-06	-6.470006e-09	-2.032700e+01	-4.301240e+02
1.050000e-06	-2.676086e-06	-6.461924e-09	-2.026481e+01	-4.295172e+02
1.060000e-06	-2.667811e-06	-6.449198e-09	-2.020215e+01	-4.289013e+02
1.070000e-06	-2.659502e-06	-6.440061e-09	-2.013923e+01	-4.282763e+02
1.080000e-06	-2.651127e-06	-6.419654e-09	-2.007581e+01	-4.276424e+02
1.090000e-06	-2.642668e-06	-6.405789e-09	-2.001176e+01	-4.269996e+02
1.100000e-06	-2.634158e-06	-6.392365e-09	-1.994731e+01	-4.263476e+02
1.110000e-06	-2.625605e-06	-6.383217e-09	-1.988254e+01	-4.256860e+02
1.120000e-06	-2.617002e-06	-6.376012e-09	-1.981739e+01	-4.250143e+02
1.130000e-06	-2.608327e-06	-6.360952e-09	-1.975171e+01	-4.243319e+02
1.140000e-06	-2.599592e-06	-6.352834e-09	-1.968556e+01	-4.236381e+02
1.150000e-06	-2.590801e-06	-6.341053e-09	-1.961899e+01	-4.229320e+02
1.160000e-06	-2.581945e-06	-6.332610e-09	-1.955193e+01	-4.222131e+02
1.170000e-06	-2.573029e-06	-6.317767e-09	-1.948441e+01	-4.214805e+02
1.180000e-06	-2.564057e-06	-6.302669e-09	-1.941647e+01	-4.207340e+02
1.190000e-06	-2.555023e-06	-6.294258e-09	-1.934805e+01	-4.199729e+02
1.200000e-06	-2.545877e-06	-6.279514e-09	-1.927880e+01	-4.191973e+02
1.210000e-06	-2.536639e-06	-6.262925e-09	-1.920884e+01	-4.184070e+02
1.220000e-06	-2.527344e-06	-6.241899e-09	-1.913846e+01	-4.176025e+02
1.230000e-06	-2.517992e-06	-6.229781e-09	-1.906763e+01	-4.167843e+02
1.240000e-06	-2.508589e-06	-6.220361e-09	-1.899644e+01	-4.159530e+02
1.250000e-06	-2.499129e-06	-6.211419e-09	-1.892479e+01	-4.151097e+02
1.260000e-06	-2.489602e-06	-6.199275e-09	-1.885266e+01	-4.142554e+02
1.270000e-06	-2.480012e-06	-6.177426e-09	-1.878003e+01	-4.133914e+02
1.280000e-06	-2.470364e-06	-6.156969e-09	-1.870697e+01	-4.125190e+02
1.290000e-06	-2.460657e-06	-6.136548e-09	-1.863346e+01	-4.116398e+02
1.300000e-06	-2.450904e-06	-6.125251e-09	-1.855961e+01	-4.107549e+02
1.310000e-06	-2.441081e-06	-6.114728e-09	-1.848523e+01	-4.098657e+02
1.320000e-06	-2.431151e-06	-6.104137e-09	-1.841003e+01	-4.089734e+02
1.330000e-06	-2.421132e-06	-6.093226e-09	-1.833416e+01	-4.080790e+02
1.340000e-06	-2.411042e-06	-6.077342e-09	-1.825775e+01	-4.071835e+02
1.350000e-06	-2.400913e-06	-6.064279e-09	-1.818105e+01	-4.062874e+02
1.360000e-06	-2.390738e-06	-6.045646e-09	-1.810400e+01	-4.053912e+02
1.370000e-06	-2.380510e-06	-6.028571e-09	-1.802655e+01	-4.044953e+02
1.380000e-06	-2.370228e-06	-6.013240e-09	-1.794869e+01	-4.035995e+02
1.390000e-06	-2.359878e-06	-5.999451e-09	-1.787031e+01	-4.027037e+02
1.400000e-06	-2.349472e-06	-5.986163e-09	-1.779151e+01	-4.018077e+02
1.410000e-06	-2.339013e-06	-5.967637e-09	-1.771231e+01	-4.009110e+02
1.420000e-06	-2.328509e-06	-5.952607e-09	-1.763277e+01	-4.000131e+02
1.430000e-06	-2.317960e-06	-5.937874e-09	-1.755288e+01	-3.991133e+02
1.440000e-06	-2.307347e-06	-5.927547e-09	-1.747252e+01	-3.982109e+02
1.450000e-06	-2.296647e-06	-5.917784e-09	-1.739149e+01	-3.973054e+02
1.460000e-06	-2.285844e-06	-5.906249e-09	-1.730969e+01	-3.963960e+02
1.470000e-06	-2.274974e-06	-5.895915e-09	-1.722737e+01	-3.954822e+02
1.480000e-06	-2.264060e-06	-5.884606e-09	-1.714472e+01	-3.945635e+02
1.490000e-06	-2.253096e-06	-5.873514e-09	-1.706170e+01	-3.936392e+02
1.500000e-06	-2.242076e-06	-5.854586e-09	-1.697825e+01	-3.927089e+02
1.510000e-06	-2.231009e-06	-5.835508e-09	-1.689444e+01	-3.917723e+02
1.520000e-06	-2.219895e-06	-5.814318e-09	-1.681028e+01	-3.908288e+02
1.530000e-06	-2.208721e-06	-5.792284e-09	-1.672566e+01	-3.898782e+02
1.540000e-06	-2.197493e-06	-5.777455e-09	-1.664064e+01	-3.889201e+02
1.550000e-06	-2.186216e-06	-5.764566e-09	-1.655524e+01	-3.879539e+02
1.560000e-06	-2.174896e-06	-5.754261e-09	-1.646952e+01	-3.869793e+02
1.570000e-06	-2.163532e-06	-5.739858e-09	-1.638347e+01	-3.859958e+02
1.580000e-06	-2.152107e-06	-5.723543e-09	-1.629695e+01	-3.850027e+02
1.590000e-06	-2.140593e-06	-5.706132e-09	-1.620976e+01	-3.839995e+02
1.600000e-06	-2.128989e-06	-5.688282e-09	-1.612189e+01	-3.829854e+02
1.610000e-06	-2.117325e-06	-5.673606e-09	-1.603357e+01	-3.819597e+02
1.620000e-06	-2.105604e-06	-5.654367e-09	-1.594481e+01	-3.809216e+02
1.630000e-06	-2.093833e-06	-5.638561e-09	-1.585567e+01	-3.798704e+02
1.640000e-06	-2.082008e-06	-5.626372e-09	-1.576612e+01	-3.788054e+02
1.650000e-06	-2.070125e-06	-5.610886e-09	-1.567614e+01	-3.777258e+02
1.660000e-06	-2.058196e-06	-5.592764e-09	-1.558580e+01	-3.766310e+02
1.670000e-06	-2.046213e-06	-5.574699e-09	-1.549506e+01	-3.755205e+02
1.680000e-06	-2.034178e-06	-5.558659e-09	-1.540393e+01	-3.743939e+02
1.690000e-06	-2.022101e-06	-5.538262e-09	-1.531247e+01	-3.732511e+02
1.700000e-06	-2.009990e-06	-5.515205e-09	-1.522077e+01	-3.720919e+02
1.710000e-06	-1.997849e-06	-5.487732e-09	-1.512882e+01	-3.709164e+02
1.720000e-06	-1.985659e-06	-5.465345e-09	-1.503652e+01	-3.697250e+02
1.730000e-06	-1.973392e-06	-5.454877e-09	-1.494362e+01	-3.685181e+02
1.740000e-06	-1.961029e-06	-5.441194e-09	-1.485001e+01	-3.672961e+02
1.750000e-06	-1.948598e-06	-5.421084e-09	-1.475587e+01	-3.660598e+02
1.760000e-06	-1.936120e-06	-5.396993e-09	-1.466138e+01	-3.648099e+02
1.770000e-06	-1.923597e-06	-5.377457e-09	-1.456655e+01	-3.635471e+02
1.780000e-06	-1.911029e-06	-5.360765e-09	-1.447138e+01	-3.622722e+02
1.790000e-06	-1.898424e-06	-5.341228e-09	-1.437593e+01	-3.609859e+02
1.800000e-06	-1.885787e-06	-5.319468e-09	-1.428023e+01	-3.596888e+02
1.810000e-06	-1.873103e-06	-5.293739e-09	-1.418418e+01	-3.583816e+02
1.820000e-06	-1.860372e-06	-5.275382e-09	-1.408777e+01	-3.570645e+02
1.830000e-06	-1.847599e-06	-5.256211e-09	-1.399105e+01	-3.557380e+02
1.840000e-06	-1.834780e-06	-5.230359e-09	-1.389398e+01	-3.544019e+02
1.850000e-06	-1.821914e-06	-5.206362e-09	-1.379654e+01	-3.530565e+02
1.860000e-06	-1.809001e-06	-5.188387e-09	-1.369876e+01	-3.517015e+02
1.870000e-06	-1.796044e-06	-5.174054e-09	-1.360065e+01	-3.503366e+02
1.880000e-06	-1.783041e-06	-5.152880e-09	-1.350218e+01	-3.489615e+02
1.890000e-06	-1.769997e-06	-5.129646e-09	-1.340340e+01	-3.475760e+02
1.900000e-06	-1.756889e-06	-5.102063e-09	-1.330414e+01	-3.461796e+02
1.910000e-06	-1.743723e-06	-5.073759e-09	-1.320444e+01	-3.447720e+02
1.920000e-06	-1.730509e-06	-5.047646e-09	-1.310438e+01	-3.433531e+02
1.930000e-06	-1.717240e-06	-5.024319e-09	-1.300390e+01	-3.419228e+02
1.940000e-06	-1.703934e-06	-5.005174e-09	-1.290314e+01	-3.404811e+02
1.950000e-06	-1.690593e-06	-4.985670e-09	-1.280211e+01	-3.390284e+02
1.960000e-06	-1.677217e-06	-4.967060e-09	-1.270082e+01	-3.375652e+02
1.970000e-06	-1.663804e-06	-4.945204e-09	-1.259925e+01	-3.360921e+02
1.980000e-06	-1.650339e-06	-4.918497e-09	-1.249728e+01	-3.346100e+02
1.990000e-06	-1.636827e-06	-4.889971e-09	-1.239497e+01	-3.331201e+02
2.000000e-06	-1.623284e-06	-4.862640e-09	-1.229241e+01	-3.316233e+02
2.010000e-06	-1.609705e-06	-4.834263e-09	-1.218958e+01	-3.301212e+02
2.020000e-06	-1.596081e-06	-4.807663e-09	-1.208641e+01	-3.286151e+02
2.030000e-06	-1.582413e-06	-4.786359e-09	-1.198291e+01	-3.271063e+02
2.040000e-06	-1.568714e-06	-4.765060e-09	-1.187917e+01	-3.255961e+02
2.050000e-06	-1.554990e-06	-4.745029e-09	-1.177525e+01	-3.240858e+02
2.060000e-06	-1.541217e-06	-4.727319e-09	-1.167095e+01	-3.225763e+02
2.070000e-06	-1.527396e-06	-4.709571e-09	-1.156629e+01	-3.210687e+02
2.080000e-06	-1.513528e-06	-4.688528e-09	-1.146128e+01	-3.195634e+02
2.090000e-06	-1.499606e-06	-4.663126e-09	-1.135585e+01	-3.180609e+02
2.100000e-06	-1.485641e-06	-4.639513e-09	-1.125010e+01	-3.165613e+02
2.110000e-06	-1.471625e-06	-4.613375e-09	-1.114397e+01	-3.150642e+02
2.120000e-06	-1.457569e-06	-4.586147e-09	-1.103752e+01	-3.135694e+02
2.130000e-06	-1.443478e-06	-4.562811e-09	-1.093082e+01	-3.120760e+02
2.140000e-06	-1.429344e-06	-4.542266e-09	-1.082379e+01	-3.105832e+02
2.150000e-06	-1.415171e-06	-4.521886e-09	-1.071646e+01	-3.090900e+02
2.160000e-06	-1.400970e-06	-4.498645e-09	-1.060893e+01	-3.075950e+02
2.170000e-06	-1.386722e-06	-4.477046e-09	-1.050103e+01	-3.060972e+02
2.180000e-06	-1.372422e-06	-4.455249e-09	-1.039275e+01	-3.045951e+02
2.190000e-06	-1.358072e-06	-4.431237e-09	-1.028408e+01	-3.030877e+02
2.200000e-06	-1.343697e-06	-4.405665e-09	-1.017522e+01	-3.015737e+02
2.210000e-06	-1.329310e-06	-4.381718e-09	-1.006627e+01	-3.000524e+02
2.220000e-06	-1.314860e-06	-4.362255e-09	-9.956852e+00	-2.985228e+02
2.230000e-06	-1.300356e-06	-4.342962e-09	-9.847022e+00	-2.969843e+02
2.240000e-06	-1.285836e-06	-4.322089e-09	-9.737066e+00	-2.954367e+02
2.250000e-06	-1.271285e-06	-4.302657e-09	-9.626880e+00	-2.938797e+02
2.260000e-06	-1.256684e-06	-4.284654e-09	-9.516313e+00	-2.923134e+02
2.270000e-06	-1.242050e-06	-4.263496e-09	-9.405495e+00	-2.907380e+02
2.280000e-06	-1.227395e-06	-4.236880e-09	-9.294519e+00	-2.891539e+02
2.290000e-06	-1.212712e-06	-4.210084e-09	-9.183332e+00	-2.875615e+02
2.300000e-06	-1.198003e-06	-4.186725e-09	-9.071944e+00	-2.859614e+02
2.310000e-06	-1.183261e-06	-4.163742e-09	-8.960311e+00	-2.843542e+02
2.320000e-06	-1.168479e-06	-4.136760e-09	-8.848370e+00	-2.827404e+02
2.330000e-06	-1.153667e-06	-4.108280e-09	-8.736205e+00	-2.811203e+02
2.340000e-06	-1.138844e-06	-4.086563e-09	-8.623964e+00	-2.794944e+02
2.350000e-06	-1.124002e-06	-4.067013e-09	-8.511572e+00	-2.778628e+02
2.360000e-06	-1.109120e-06	-4.045774e-09	-8.398873e+00	-2.762256e+02
2.370000e-06	-1.094212e-06	-4.024182e-09	-8.285982e+00	-2.745824e+02
2.380000e-06	-1.079298e-06	-4.002621e-09	-8.173043e+00	-2.729328e+02
2.390000e-06	-1.064369e-06	-3.982567e-09	-8.059997e+00	-2.712764e+02
2.400000e-06	-1.049412e-06	-3.957943e-09	-7.946732e+00	-2.696121e+02
2.410000e-06	-1.034430e-06	-3.926271e-09	-7.833280e+00	-2.679392e+02
2.420000e-06	-1.019437e-06	-3.895047e-09	-7.719742e+00	-2.662563e+02
2.430000e-06	-1.004418e-06	-3.870746e-09	-7.606013e+00	-2.645625e+02
2.440000e-06	-9.893721e-07	-3.850431e-09	-7.492077e+00	-2.628563e+02
2.450000e-06	-9.742986e-07	-3.829507e-09	-7.377932e+00	-2.611364e+02
2.460000e-06	-9.591940e-07	-3.807238e-09	-7.263551e+00	-2.594017e+02
2.470000e-06	-9.440713e-07	-3.783013e-09	-7.149034e+00	-2.576510e+02
2.480000e-06	-9.289271e-07	-3.757244e-09	-7.034353e+00	-2.558831e+02
2.490000e-06	-9.137619e-07	-3.729353e-09	-6.919514e+00	-2.540972e+02
2.500000e-06	-8.985757e-07	-3.699702e-09	-6.804515e+00	-2.522924e+02
2.510000e-06	-8.833608e-07	-3.671717e-09	-6.689300e+00	-2.504683e+02
2.520000e-06	-8.681203e-07	-3.646822e-09	-6.573891e+00	-2.486245e+02
2.530000e-06	-8.528521e-07	-3.619952e-09	-6.458271e+00	-2.467608e+02
2.540000e-06	-8.375650e-07	-3.593805e-09	-6.342509e+00	-2.448774e+02
2.550000e-06	-8.222516e-07	-3.573034e-09	-6.226547e+00	-2.429746e+02
2.560000e-06	-8.069012e-07	-3.551828e-09	-6.110305e+00	-2.410527e+02
2.570000e-06	-7.915491e-07	-3.523758e-09	-5.994051e+00	-2.391126e+02
2.580000e-06	-7.761924e-07	-3.491886e-09	-5.877761e+00	-2.371550e+02
2.590000e-06	-7.608089e-07	-3.460118e-09	-5.761269e+00	-2.351809e+02
2.600000e-06	-7.454057e-07	-3.428580e-09	-5.644627e+00	-2.331914e+02
2.610000e-06	-7.299783e-07	-3.394376e-09	-5.527802e+00	-2.311876e+02
2.620000e-06	-7.145232e-07	-3.358582e-09	-5.410768e+00	-2.291708e+02
2.630000e-06	-6.990322e-07	-3.326645e-09	-5.293461e+00	-2.271421e+02
2.640000e-06	-6.835071e-07	-3.299889e-09	-5.175896e+00	-2.251029e+02
2.650000e-06	-6.679576e-07	-3.276809e-09	-5.058147e+00	-2.230543e+02
2.660000e-06	-6.523783e-07	-3.253152e-09	-4.940172e+00	-2.209977e+02
2.670000e-06	-6.367741e-07	-3.228256e-09	-4.822008e+00	-2.189340e+02
2.680000e-06	-6.211601e-07	-3.200803e-09	-4.703770e+00	-2.168646e+02
2.690000e-06	-6.055415e-07	-3.168159e-09	-4.585498e+00	-2.147902e+02
2.700000e-06	-5.898934e-07	-3.132804e-09	-4.467002e+00	-2.127119e+02
2.710000e-06	-5.742179e-07	-3.094330e-09	-4.348298e+00	-2.106305e+02
2.720000e-06	-5.585287e-07	-3.056502e-09	-4.229490e+00	-2.085466e+02
2.730000e-06	-5.428346e-07	-3.021380e-09	-4.110646e+00	-2.064608e+02
2.740000e-06	-5.271388e-07	-2.990617e-09	-3.991789e+00	-2.043736e+02
2.750000e-06	-5.114229e-07	-2.967680e-09	-3.872779e+00	-2.022852e+02
2.760000e-06	-4.956952e-07	-2.948481e-09	-3.753680e+00	-2.001958e+02
2.770000e-06	-4.799643e-07	-2.928211e-09	-3.634557e+00	-1.981054e+02
2.780000e-06	-4.642218e-07	-2.898772e-09	-3.515346e+00	-1.960137e+02
2.790000e-06	-4.484703e-07	-2.862668e-09	-3.396067e+00	-1.939205e+02
2.800000e-06	-4.327166e-07	-2.823223e-09	-3.276771e+00	-1.918252e+02
2.810000e-06	-4.169555e-07	-2.782625e-09	-3.157419e+00	-1.897273e+02
2.820000e-06	-4.011914e-07	-2.748113e-09	-3.038044e+00	-1.876259e+02
2.830000e-06	-3.854224e-07	-2.720749e-09	-2.918633e+00	-1.855203e+02
2.840000e-06	-3.696361e-07	-2.704382e-09	-2.799090e+00	-1.834095e+02
2.850000e-06	-3.538372e-07	-2.690401e-09	-2.679452e+00	-1.812923e+02
