# Temperatura_=_20.0
# Concentracion g/m^3_=_10000.0
# C_Vs_to_Am_M_A/Vsm_=_65563218390.804596
# pendiente_HvsI_1/m_=_3716.3
# ordenada_HvsI_A/m_=_1297.0
# frecuencia_Hz_=_81162.83104842046

Tiempo_(s)	Campo_(V.s)	Magnetizacion_(V.s)	Campo_(kA/m)	Magnetizacion_(A/m)
0.000000e+00	-3.106199e-06	-7.069950e-09	-2.356047e+01	-4.525194e+02
1.000000e-08	-3.106192e-06	-7.311072e-09	-2.356042e+01	-4.524676e+02
2.000000e-08	-3.106283e-06	-7.063016e-09	-2.356111e+01	-4.524087e+02
3.000000e-08	-3.106273e-06	-7.110660e-09	-2.356103e+01	-4.523455e+02
4.000000e-08	-3.106099e-06	-7.233280e-09	-2.355971e+01	-4.522806e+02
5.000000e-08	-3.105768e-06	-7.088875e-09	-2.355720e+01	-4.522161e+02
6.000000e-08	-3.105353e-06	-7.188606e-09	-2.355405e+01	-4.521538e+02
7.000000e-08	-3.104813e-06	-7.080657e-09	-2.354996e+01	-4.520948e+02
8.000000e-08	-3.104161e-06	-7.047218e-09	-2.354502e+01	-4.520399e+02
9.000000e-08	-3.103427e-06	-7.067065e-09	-2.353945e+01	-4.519892e+02
1.000000e-07	-3.102643e-06	-7.112108e-09	-2.353350e+01	-4.519423e+02
1.100000e-07	-3.101895e-06	-7.219002e-09	-2.352783e+01	-4.518986e+02
1.200000e-07	-3.101035e-06	-7.094430e-09	-2.352130e+01	-4.518569e+02
1.300000e-07	-3.100089e-06	-7.087121e-09	-2.351413e+01	-4.518157e+02
1.400000e-07	-3.099037e-06	-7.067888e-09	-2.350615e+01	-4.517734e+02
1.500000e-07	-3.097910e-06	-7.153260e-09	-2.349760e+01	-4.517284e+02
1.600000e-07	-3.096687e-06	-7.114780e-09	-2.348832e+01	-4.516789e+02
1.700000e-07	-3.095345e-06	-7.014358e-09	-2.347815e+01	-4.516233e+02
1.800000e-07	-3.093974e-06	-7.139484e-09	-2.346775e+01	-4.515604e+02
1.900000e-07	-3.092498e-06	-7.114593e-09	-2.345655e+01	-4.514891e+02
2.000000e-07	-3.090919e-06	-7.141209e-09	-2.344457e+01	-4.514087e+02
2.100000e-07	-3.089186e-06	-7.031159e-09	-2.343143e+01	-4.513187e+02
2.200000e-07	-3.087386e-06	-7.027700e-09	-2.341778e+01	-4.512194e+02
2.300000e-07	-3.085545e-06	-7.101594e-09	-2.340381e+01	-4.511111e+02
2.400000e-07	-3.083600e-06	-7.106149e-09	-2.338906e+01	-4.509945e+02
2.500000e-07	-3.081584e-06	-7.122074e-09	-2.337377e+01	-4.508708e+02
2.600000e-07	-3.079488e-06	-7.013452e-09	-2.335787e+01	-4.507412e+02
2.700000e-07	-3.077336e-06	-7.078633e-09	-2.334154e+01	-4.506070e+02
2.800000e-07	-3.075091e-06	-7.074180e-09	-2.332452e+01	-4.504697e+02
2.900000e-07	-3.072766e-06	-7.061099e-09	-2.330688e+01	-4.503306e+02
3.000000e-07	-3.070390e-06	-7.035265e-09	-2.328886e+01	-4.501910e+02
3.100000e-07	-3.067939e-06	-7.005256e-09	-2.327027e+01	-4.500517e+02
3.200000e-07	-3.065431e-06	-7.087213e-09	-2.325125e+01	-4.499134e+02
3.300000e-07	-3.062851e-06	-7.044556e-09	-2.323168e+01	-4.497764e+02
3.400000e-07	-3.060209e-06	-7.046899e-09	-2.321164e+01	-4.496406e+02
3.500000e-07	-3.057436e-06	-7.002185e-09	-2.319060e+01	-4.495054e+02
3.600000e-07	-3.054531e-06	-7.019615e-09	-2.316857e+01	-4.493699e+02
3.700000e-07	-3.051576e-06	-7.060396e-09	-2.314616e+01	-4.492329e+02
3.800000e-07	-3.048558e-06	-7.023680e-09	-2.312327e+01	-4.490927e+02
3.900000e-07	-3.045474e-06	-7.028501e-09	-2.309988e+01	-4.489476e+02
4.000000e-07	-3.042294e-06	-6.975989e-09	-2.307576e+01	-4.487955e+02
4.100000e-07	-3.039066e-06	-7.027339e-09	-2.305127e+01	-4.486345e+02
4.200000e-07	-3.035785e-06	-7.022364e-09	-2.302638e+01	-4.484626e+02
4.300000e-07	-3.032420e-06	-6.991701e-09	-2.300086e+01	-4.482779e+02
4.400000e-07	-3.028980e-06	-6.985703e-09	-2.297477e+01	-4.480787e+02
4.500000e-07	-3.025453e-06	-6.974148e-09	-2.294801e+01	-4.478638e+02
4.600000e-07	-3.021826e-06	-7.028224e-09	-2.292050e+01	-4.476320e+02
4.700000e-07	-3.018086e-06	-6.976647e-09	-2.289214e+01	-4.473828e+02
4.800000e-07	-3.014297e-06	-6.959768e-09	-2.286340e+01	-4.471159e+02
4.900000e-07	-3.010440e-06	-6.941920e-09	-2.283414e+01	-4.468316e+02
5.000000e-07	-3.006494e-06	-6.954666e-09	-2.280421e+01	-4.465303e+02
5.100000e-07	-3.002475e-06	-6.961008e-09	-2.277372e+01	-4.462132e+02
5.200000e-07	-2.998374e-06	-6.895149e-09	-2.274262e+01	-4.458812e+02
5.300000e-07	-2.994225e-06	-6.908958e-09	-2.271115e+01	-4.455360e+02
5.400000e-07	-2.989982e-06	-6.910347e-09	-2.267897e+01	-4.451790e+02
5.500000e-07	-2.985624e-06	-6.943605e-09	-2.264591e+01	-4.448120e+02
5.600000e-07	-2.981156e-06	-6.922365e-09	-2.261203e+01	-4.444364e+02
5.700000e-07	-2.976616e-06	-6.901042e-09	-2.257758e+01	-4.440539e+02
5.800000e-07	-2.972032e-06	-6.920483e-09	-2.254281e+01	-4.436657e+02
5.900000e-07	-2.967359e-06	-6.894384e-09	-2.250738e+01	-4.432731e+02
6.000000e-07	-2.962606e-06	-6.883788e-09	-2.247132e+01	-4.428767e+02
6.100000e-07	-2.957773e-06	-6.829755e-09	-2.243466e+01	-4.424772e+02
6.200000e-07	-2.952889e-06	-6.839803e-09	-2.239762e+01	-4.420749e+02
6.300000e-07	-2.947936e-06	-6.856673e-09	-2.236005e+01	-4.416697e+02
6.400000e-07	-2.942872e-06	-6.857873e-09	-2.232164e+01	-4.412613e+02
6.500000e-07	-2.937700e-06	-6.858788e-09	-2.228241e+01	-4.408493e+02
6.600000e-07	-2.932416e-06	-6.822626e-09	-2.224233e+01	-4.404330e+02
6.700000e-07	-2.927057e-06	-6.837641e-09	-2.220168e+01	-4.400117e+02
6.800000e-07	-2.921609e-06	-6.816812e-09	-2.216036e+01	-4.395844e+02
6.900000e-07	-2.916079e-06	-6.798912e-09	-2.211842e+01	-4.391507e+02
7.000000e-07	-2.910486e-06	-6.770422e-09	-2.207599e+01	-4.387096e+02
7.100000e-07	-2.904833e-06	-6.760002e-09	-2.203311e+01	-4.382608e+02
7.200000e-07	-2.899127e-06	-6.785158e-09	-2.198984e+01	-4.378040e+02
7.300000e-07	-2.893341e-06	-6.765283e-09	-2.194595e+01	-4.373390e+02
7.400000e-07	-2.887485e-06	-6.758861e-09	-2.190153e+01	-4.368660e+02
7.500000e-07	-2.881503e-06	-6.735213e-09	-2.185615e+01	-4.363854e+02
7.600000e-07	-2.875417e-06	-6.742183e-09	-2.181000e+01	-4.358978e+02
7.700000e-07	-2.869280e-06	-6.736193e-09	-2.176345e+01	-4.354040e+02
7.800000e-07	-2.863073e-06	-6.705902e-09	-2.171636e+01	-4.349050e+02
7.900000e-07	-2.856806e-06	-6.694541e-09	-2.166883e+01	-4.344018e+02
8.000000e-07	-2.850467e-06	-6.675186e-09	-2.162075e+01	-4.338958e+02
8.100000e-07	-2.844067e-06	-6.684959e-09	-2.157220e+01	-4.333879e+02
8.200000e-07	-2.837589e-06	-6.657748e-09	-2.152307e+01	-4.328794e+02
8.300000e-07	-2.831047e-06	-6.641017e-09	-2.147345e+01	-4.323711e+02
8.400000e-07	-2.824447e-06	-6.643274e-09	-2.142339e+01	-4.318641e+02
8.500000e-07	-2.817770e-06	-6.646564e-09	-2.137275e+01	-4.313589e+02
8.600000e-07	-2.811000e-06	-6.653084e-09	-2.132140e+01	-4.308559e+02
8.700000e-07	-2.804127e-06	-6.620912e-09	-2.126926e+01	-4.303555e+02
8.800000e-07	-2.797200e-06	-6.612825e-09	-2.121672e+01	-4.298576e+02
8.900000e-07	-2.790219e-06	-6.598995e-09	-2.116377e+01	-4.293620e+02
9.000000e-07	-2.783188e-06	-6.587546e-09	-2.111044e+01	-4.288682e+02
9.100000e-07	-2.776079e-06	-6.570883e-09	-2.105652e+01	-4.283756e+02
9.200000e-07	-2.768869e-06	-6.551339e-09	-2.100183e+01	-4.278835e+02
9.300000e-07	-2.761610e-06	-6.558589e-09	-2.094677e+01	-4.273909e+02
9.400000e-07	-2.754286e-06	-6.551382e-09	-2.089122e+01	-4.268969e+02
9.500000e-07	-2.746902e-06	-6.549209e-09	-2.083521e+01	-4.264006e+02
9.600000e-07	-2.739421e-06	-6.528109e-09	-2.077846e+01	-4.259009e+02
9.700000e-07	-2.731847e-06	-6.518623e-09	-2.072102e+01	-4.253970e+02
9.800000e-07	-2.724197e-06	-6.518648e-09	-2.066299e+01	-4.248881e+02
9.900000e-07	-2.716457e-06	-6.499820e-09	-2.060429e+01	-4.243732e+02
1.000000e-06	-2.708668e-06	-6.483470e-09	-2.054521e+01	-4.238518e+02
1.010000e-06	-2.700797e-06	-6.462775e-09	-2.048551e+01	-4.233232e+02
1.020000e-06	-2.692849e-06	-6.466884e-09	-2.042522e+01	-4.227869e+02
1.030000e-06	-2.684817e-06	-6.460012e-09	-2.036430e+01	-4.222424e+02
1.040000e-06	-2.676690e-06	-6.447508e-09	-2.030265e+01	-4.216893e+02
1.050000e-06	-2.668472e-06	-6.440851e-09	-2.024032e+01	-4.211273e+02
1.060000e-06	-2.660185e-06	-6.431924e-09	-2.017746e+01	-4.205560e+02
1.070000e-06	-2.651849e-06	-6.430754e-09	-2.011424e+01	-4.199750e+02
1.080000e-06	-2.643433e-06	-6.409914e-09	-2.005040e+01	-4.193839e+02
1.090000e-06	-2.634949e-06	-6.393376e-09	-1.998605e+01	-4.187824e+02
1.100000e-06	-2.626426e-06	-6.375707e-09	-1.992140e+01	-4.181699e+02
1.110000e-06	-2.617861e-06	-6.364810e-09	-1.985644e+01	-4.175461e+02
1.120000e-06	-2.609236e-06	-6.355248e-09	-1.979101e+01	-4.169104e+02
1.130000e-06	-2.600551e-06	-6.333455e-09	-1.972514e+01	-4.162623e+02
1.140000e-06	-2.591815e-06	-6.322880e-09	-1.965888e+01	-4.156015e+02
1.150000e-06	-2.583007e-06	-6.312646e-09	-1.959207e+01	-4.149273e+02
1.160000e-06	-2.574141e-06	-6.311901e-09	-1.952482e+01	-4.142396e+02
1.170000e-06	-2.565209e-06	-6.300117e-09	-1.945707e+01	-4.135379e+02
1.180000e-06	-2.556217e-06	-6.285370e-09	-1.938886e+01	-4.128222e+02
1.190000e-06	-2.547166e-06	-6.274218e-09	-1.932021e+01	-4.120924e+02
1.200000e-06	-2.538013e-06	-6.253788e-09	-1.925079e+01	-4.113486e+02
1.210000e-06	-2.528761e-06	-6.236263e-09	-1.918061e+01	-4.105911e+02
1.220000e-06	-2.519453e-06	-6.212419e-09	-1.911001e+01	-4.098204e+02
1.230000e-06	-2.510111e-06	-6.203131e-09	-1.903915e+01	-4.090370e+02
1.240000e-06	-2.500711e-06	-6.196616e-09	-1.896785e+01	-4.082416e+02
1.250000e-06	-2.491244e-06	-6.188401e-09	-1.889605e+01	-4.074350e+02
1.260000e-06	-2.481713e-06	-6.177931e-09	-1.882375e+01	-4.066181e+02
1.270000e-06	-2.472110e-06	-6.156185e-09	-1.875092e+01	-4.057918e+02
1.280000e-06	-2.462454e-06	-6.137210e-09	-1.867768e+01	-4.049571e+02
1.290000e-06	-2.452754e-06	-6.112621e-09	-1.860410e+01	-4.041147e+02
1.300000e-06	-2.442994e-06	-6.091407e-09	-1.853008e+01	-4.032656e+02
1.310000e-06	-2.433156e-06	-6.071080e-09	-1.845545e+01	-4.024105e+02
1.320000e-06	-2.423226e-06	-6.060641e-09	-1.838013e+01	-4.015500e+02
1.330000e-06	-2.413212e-06	-6.059039e-09	-1.830418e+01	-4.006844e+02
1.340000e-06	-2.403135e-06	-6.049041e-09	-1.822774e+01	-3.998143e+02
1.350000e-06	-2.393011e-06	-6.038803e-09	-1.815095e+01	-3.989396e+02
1.360000e-06	-2.382837e-06	-6.024236e-09	-1.807378e+01	-3.980606e+02
1.370000e-06	-2.372604e-06	-6.012037e-09	-1.799616e+01	-3.971771e+02
1.380000e-06	-2.362308e-06	-5.993021e-09	-1.791807e+01	-3.962890e+02
1.390000e-06	-2.351951e-06	-5.968456e-09	-1.783951e+01	-3.953962e+02
1.400000e-06	-2.341542e-06	-5.947406e-09	-1.776056e+01	-3.944984e+02
1.410000e-06	-2.331074e-06	-5.928105e-09	-1.768116e+01	-3.935954e+02
1.420000e-06	-2.320554e-06	-5.917140e-09	-1.760136e+01	-3.926872e+02
1.430000e-06	-2.309986e-06	-5.905024e-09	-1.752121e+01	-3.917736e+02
1.440000e-06	-2.299356e-06	-5.898420e-09	-1.744058e+01	-3.908548e+02
1.450000e-06	-2.288647e-06	-5.894019e-09	-1.735935e+01	-3.899308e+02
1.460000e-06	-2.277843e-06	-5.885083e-09	-1.727741e+01	-3.890020e+02
1.470000e-06	-2.266972e-06	-5.870738e-09	-1.719495e+01	-3.880688e+02
1.480000e-06	-2.256055e-06	-5.847544e-09	-1.711215e+01	-3.871315e+02
1.490000e-06	-2.245096e-06	-5.827129e-09	-1.702902e+01	-3.861907e+02
1.500000e-06	-2.234086e-06	-5.804699e-09	-1.694551e+01	-3.852470e+02
1.510000e-06	-2.223026e-06	-5.788308e-09	-1.686162e+01	-3.843009e+02
1.520000e-06	-2.211918e-06	-5.772137e-09	-1.677736e+01	-3.833528e+02
1.530000e-06	-2.200753e-06	-5.757799e-09	-1.669268e+01	-3.824030e+02
1.540000e-06	-2.189534e-06	-5.752757e-09	-1.660758e+01	-3.814518e+02
1.550000e-06	-2.178262e-06	-5.741301e-09	-1.652208e+01	-3.804991e+02
1.560000e-06	-2.166939e-06	-5.730023e-09	-1.643620e+01	-3.795447e+02
1.570000e-06	-2.155566e-06	-5.712876e-09	-1.634993e+01	-3.785880e+02
1.580000e-06	-2.144145e-06	-5.697036e-09	-1.626330e+01	-3.776285e+02
1.590000e-06	-2.132644e-06	-5.680849e-09	-1.617608e+01	-3.766650e+02
1.600000e-06	-2.121031e-06	-5.659540e-09	-1.608798e+01	-3.756965e+02
1.610000e-06	-2.109343e-06	-5.643724e-09	-1.599934e+01	-3.747214e+02
1.620000e-06	-2.097609e-06	-5.626810e-09	-1.591034e+01	-3.737384e+02
1.630000e-06	-2.085838e-06	-5.615086e-09	-1.582105e+01	-3.727458e+02
1.640000e-06	-2.074024e-06	-5.601363e-09	-1.573144e+01	-3.717419e+02
1.650000e-06	-2.062149e-06	-5.586975e-09	-1.564137e+01	-3.707253e+02
1.660000e-06	-2.050217e-06	-5.572502e-09	-1.555087e+01	-3.696944e+02
1.670000e-06	-2.038232e-06	-5.552895e-09	-1.545996e+01	-3.686480e+02
1.680000e-06	-2.026194e-06	-5.534987e-09	-1.536865e+01	-3.675850e+02
1.690000e-06	-2.014102e-06	-5.510142e-09	-1.527693e+01	-3.665047e+02
1.700000e-06	-2.001978e-06	-5.485999e-09	-1.518497e+01	-3.654066e+02
1.710000e-06	-1.989825e-06	-5.464331e-09	-1.509280e+01	-3.642905e+02
1.720000e-06	-1.977617e-06	-5.447254e-09	-1.500020e+01	-3.631567e+02
1.730000e-06	-1.965326e-06	-5.434285e-09	-1.490697e+01	-3.620057e+02
1.740000e-06	-1.952954e-06	-5.417689e-09	-1.481313e+01	-3.608383e+02
1.750000e-06	-1.940525e-06	-5.402579e-09	-1.471885e+01	-3.596556e+02
1.760000e-06	-1.928058e-06	-5.383338e-09	-1.462429e+01	-3.584586e+02
1.770000e-06	-1.915548e-06	-5.362814e-09	-1.452940e+01	-3.572488e+02
1.780000e-06	-1.902990e-06	-5.339374e-09	-1.443415e+01	-3.560275e+02
1.790000e-06	-1.890396e-06	-5.317678e-09	-1.433862e+01	-3.547959e+02
1.800000e-06	-1.877761e-06	-5.301844e-09	-1.424279e+01	-3.535553e+02
1.810000e-06	-1.865072e-06	-5.283275e-09	-1.414654e+01	-3.523066e+02
1.820000e-06	-1.852334e-06	-5.266265e-09	-1.404992e+01	-3.510507e+02
1.830000e-06	-1.839556e-06	-5.244559e-09	-1.395301e+01	-3.497880e+02
1.840000e-06	-1.826736e-06	-5.224708e-09	-1.385576e+01	-3.485187e+02
1.850000e-06	-1.813864e-06	-5.212305e-09	-1.375813e+01	-3.472427e+02
1.860000e-06	-1.800959e-06	-5.200452e-09	-1.366024e+01	-3.459596e+02
1.870000e-06	-1.788018e-06	-5.184646e-09	-1.356209e+01	-3.446688e+02
1.880000e-06	-1.775027e-06	-5.158707e-09	-1.346355e+01	-3.433694e+02
1.890000e-06	-1.761994e-06	-5.132297e-09	-1.336470e+01	-3.420603e+02
1.900000e-06	-1.748911e-06	-5.102981e-09	-1.326546e+01	-3.407404e+02
1.910000e-06	-1.735755e-06	-5.077482e-09	-1.316567e+01	-3.394086e+02
1.920000e-06	-1.722528e-06	-5.055556e-09	-1.306535e+01	-3.380638e+02
1.930000e-06	-1.709253e-06	-5.034844e-09	-1.296466e+01	-3.367049e+02
1.940000e-06	-1.695940e-06	-5.017812e-09	-1.286368e+01	-3.353313e+02
1.950000e-06	-1.682600e-06	-4.996545e-09	-1.276250e+01	-3.339423e+02
1.960000e-06	-1.669233e-06	-4.974145e-09	-1.266110e+01	-3.325379e+02
1.970000e-06	-1.655831e-06	-4.948210e-09	-1.255945e+01	-3.311179e+02
1.980000e-06	-1.642378e-06	-4.922862e-09	-1.245741e+01	-3.296830e+02
1.990000e-06	-1.628867e-06	-4.899145e-09	-1.235493e+01	-3.282337e+02
2.000000e-06	-1.615315e-06	-4.878547e-09	-1.225214e+01	-3.267711e+02
2.010000e-06	-1.601742e-06	-4.858897e-09	-1.214919e+01	-3.252965e+02
2.020000e-06	-1.588130e-06	-4.836701e-09	-1.204594e+01	-3.238112e+02
2.030000e-06	-1.574472e-06	-4.812819e-09	-1.194235e+01	-3.223168e+02
2.040000e-06	-1.560780e-06	-4.786631e-09	-1.183849e+01	-3.208149e+02
2.050000e-06	-1.547066e-06	-4.762755e-09	-1.173447e+01	-3.193070e+02
2.060000e-06	-1.533322e-06	-4.740283e-09	-1.163022e+01	-3.177947e+02
2.070000e-06	-1.519526e-06	-4.719651e-09	-1.152558e+01	-3.162791e+02
2.080000e-06	-1.505675e-06	-4.701856e-09	-1.142052e+01	-3.147614e+02
2.090000e-06	-1.491748e-06	-4.685735e-09	-1.131488e+01	-3.132423e+02
2.100000e-06	-1.477761e-06	-4.668935e-09	-1.120880e+01	-3.117223e+02
2.110000e-06	-1.463734e-06	-4.642540e-09	-1.110240e+01	-3.102017e+02
2.120000e-06	-1.449669e-06	-4.609820e-09	-1.099572e+01	-3.086803e+02
2.130000e-06	-1.435579e-06	-4.578902e-09	-1.088885e+01	-3.071577e+02
2.140000e-06	-1.421458e-06	-4.553065e-09	-1.078174e+01	-3.056335e+02
2.150000e-06	-1.407303e-06	-4.532874e-09	-1.067437e+01	-3.041067e+02
2.160000e-06	-1.393102e-06	-4.515787e-09	-1.056666e+01	-3.025767e+02
2.170000e-06	-1.378858e-06	-4.503365e-09	-1.045861e+01	-3.010424e+02
2.180000e-06	-1.364577e-06	-4.489961e-09	-1.035029e+01	-2.995030e+02
2.190000e-06	-1.350280e-06	-4.471918e-09	-1.024185e+01	-2.979577e+02
2.200000e-06	-1.335957e-06	-4.444764e-09	-1.013321e+01	-2.964059e+02
2.210000e-06	-1.321584e-06	-4.410263e-09	-1.002419e+01	-2.948471e+02
2.220000e-06	-1.307168e-06	-4.376737e-09	-9.914848e+00	-2.932812e+02
2.230000e-06	-1.292698e-06	-4.347775e-09	-9.805091e+00	-2.917083e+02
2.240000e-06	-1.278173e-06	-4.327344e-09	-9.694926e+00	-2.901286e+02
2.250000e-06	-1.263635e-06	-4.309567e-09	-9.584649e+00	-2.885427e+02
2.260000e-06	-1.249057e-06	-4.293264e-09	-9.474077e+00	-2.869514e+02
2.270000e-06	-1.234435e-06	-4.280917e-09	-9.363173e+00	-2.853555e+02
2.280000e-06	-1.219796e-06	-4.267275e-09	-9.252131e+00	-2.837561e+02
2.290000e-06	-1.205138e-06	-4.244460e-09	-9.140951e+00	-2.821541e+02
2.300000e-06	-1.190449e-06	-4.213187e-09	-9.029537e+00	-2.805506e+02
2.310000e-06	-1.175725e-06	-4.180545e-09	-8.917854e+00	-2.789463e+02
2.320000e-06	-1.160977e-06	-4.147441e-09	-8.805996e+00	-2.773420e+02
2.330000e-06	-1.146191e-06	-4.119718e-09	-8.693841e+00	-2.757380e+02
2.340000e-06	-1.131373e-06	-4.098777e-09	-8.581445e+00	-2.741345e+02
2.350000e-06	-1.116532e-06	-4.080737e-09	-8.468876e+00	-2.725312e+02
2.360000e-06	-1.101663e-06	-4.068493e-09	-8.356095e+00	-2.709277e+02
2.370000e-06	-1.086766e-06	-4.054866e-09	-8.243104e+00	-2.693229e+02
2.380000e-06	-1.071851e-06	-4.032817e-09	-8.129972e+00	-2.677157e+02
2.390000e-06	-1.056930e-06	-4.002402e-09	-8.016796e+00	-2.661046e+02
2.400000e-06	-1.041996e-06	-3.969192e-09	-7.903522e+00	-2.644878e+02
2.410000e-06	-1.027040e-06	-3.937080e-09	-7.790080e+00	-2.628635e+02
2.420000e-06	-1.012055e-06	-3.906909e-09	-7.676419e+00	-2.612296e+02
2.430000e-06	-9.970399e-07	-3.880345e-09	-7.562532e+00	-2.595840e+02
2.440000e-06	-9.819980e-07	-3.859284e-09	-7.448440e+00	-2.579250e+02
2.450000e-06	-9.669372e-07	-3.844869e-09	-7.334204e+00	-2.562506e+02
2.460000e-06	-9.518531e-07	-3.829648e-09	-7.219791e+00	-2.545592e+02
2.470000e-06	-9.367386e-07	-3.806985e-09	-7.105148e+00	-2.528495e+02
2.480000e-06	-9.215972e-07	-3.777764e-09	-6.990301e+00	-2.511204e+02
2.490000e-06	-9.064301e-07	-3.745057e-09	-6.875258e+00	-2.493712e+02
2.500000e-06	-8.912360e-07	-3.712207e-09	-6.760011e+00	-2.476016e+02
2.510000e-06	-8.760215e-07	-3.680335e-09	-6.644610e+00	-2.458116e+02
2.520000e-06	-8.607966e-07	-3.650402e-09	-6.529129e+00	-2.440013e+02
2.530000e-06	-8.455434e-07	-3.624543e-09	-6.413434e+00	-2.421715e+02
2.540000e-06	-8.302563e-07	-3.604071e-09	-6.297482e+00	-2.403228e+02
2.550000e-06	-8.149586e-07	-3.586969e-09	-6.181448e+00	-2.384564e+02
2.560000e-06	-7.996547e-07	-3.566443e-09	-6.065369e+00	-2.365732e+02
2.570000e-06	-7.843274e-07	-3.540185e-09	-5.949112e+00	-2.346745e+02
2.580000e-06	-7.689830e-07	-3.508075e-09	-5.832725e+00	-2.327614e+02
2.590000e-06	-7.536305e-07	-3.471353e-09	-5.716276e+00	-2.308350e+02
2.600000e-06	-7.382445e-07	-3.432442e-09	-5.599574e+00	-2.288963e+02
2.610000e-06	-7.228200e-07	-3.394639e-09	-5.482579e+00	-2.269461e+02
2.620000e-06	-7.073653e-07	-3.361571e-09	-5.365355e+00	-2.249850e+02
2.630000e-06	-6.918827e-07	-3.333636e-09	-5.247920e+00	-2.230137e+02
2.640000e-06	-6.763674e-07	-3.310455e-09	-5.130237e+00	-2.210325e+02
2.650000e-06	-6.608323e-07	-3.287938e-09	-5.012403e+00	-2.190414e+02
2.660000e-06	-6.452964e-07	-3.262376e-09	-4.894563e+00	-2.170407e+02
2.670000e-06	-6.297377e-07	-3.232935e-09	-4.776551e+00	-2.150302e+02
2.680000e-06	-6.141453e-07	-3.201573e-09	-4.658283e+00	-2.130100e+02
2.690000e-06	-5.985241e-07	-3.167891e-09	-4.539796e+00	-2.109798e+02
2.700000e-06	-5.828835e-07	-3.129801e-09	-4.421163e+00	-2.089396e+02
2.710000e-06	-5.672237e-07	-3.093008e-09	-4.302384e+00	-2.068895e+02
2.720000e-06	-5.515398e-07	-3.062336e-09	-4.183421e+00	-2.048296e+02
2.730000e-06	-5.358443e-07	-3.034366e-09	-4.064371e+00	-2.027600e+02
2.740000e-06	-5.201500e-07	-3.004447e-09	-3.945330e+00	-2.006812e+02
2.750000e-06	-5.044507e-07	-2.974736e-09	-3.826251e+00	-1.985935e+02
2.760000e-06	-4.887314e-07	-2.948777e-09	-3.707020e+00	-1.964977e+02
2.770000e-06	-4.729998e-07	-2.922017e-09	-3.587696e+00	-1.943945e+02
2.780000e-06	-4.572662e-07	-2.890483e-09	-3.468357e+00	-1.922845e+02
2.790000e-06	-4.415390e-07	-2.854936e-09	-3.349067e+00	-1.901686e+02
2.800000e-06	-4.258019e-07	-2.818689e-09	-3.229701e+00	-1.880475e+02
2.810000e-06	-4.100472e-07	-2.787459e-09	-3.110202e+00	-1.859219e+02
2.820000e-06	-3.942955e-07	-2.756447e-09	-2.990725e+00	-1.837925e+02
2.830000e-06	-3.785354e-07	-2.722675e-09	-2.871186e+00	-1.816596e+02
2.840000e-06	-3.627633e-07	-2.691428e-09	-2.751554e+00	-1.795236e+02
