# Temperatura_=_20.0
# Concentracion g/m^3_=_10000.0
# C_Vs_to_Am_M_A/Vsm_=_65563218390.804596
# pendiente_HvsI_1/m_=_3716.3
# ordenada_HvsI_A/m_=_1297.0
# frecuencia_Hz_=_81162.13974207314

Tiempo_(s)	Campo_(V.s)	Magnetizacion_(V.s)	Campo_(kA/m)	Magnetizacion_(A/m)
0.000000e+00	-3.104889e-06	-7.100070e-09	-2.355982e+01	-4.574625e+02
1.000000e-08	-3.104880e-06	-7.189120e-09	-2.355974e+01	-4.573044e+02
2.000000e-08	-3.104977e-06	-7.074638e-09	-2.356049e+01	-4.571153e+02
3.000000e-08	-3.104980e-06	-7.104670e-09	-2.356050e+01	-4.568983e+02
4.000000e-08	-3.104797e-06	-7.160032e-09	-2.355912e+01	-4.566572e+02
5.000000e-08	-3.104484e-06	-7.068369e-09	-2.355674e+01	-4.563959e+02
6.000000e-08	-3.104088e-06	-7.101250e-09	-2.355374e+01	-4.561184e+02
7.000000e-08	-3.103581e-06	-7.062583e-09	-2.354989e+01	-4.558292e+02
8.000000e-08	-3.102954e-06	-7.021034e-09	-2.354513e+01	-4.555324e+02
9.000000e-08	-3.102242e-06	-7.042286e-09	-2.353973e+01	-4.552321e+02
1.000000e-07	-3.101473e-06	-7.069736e-09	-2.353390e+01	-4.549323e+02
1.100000e-07	-3.100716e-06	-7.109511e-09	-2.352815e+01	-4.546364e+02
1.200000e-07	-3.099855e-06	-7.028768e-09	-2.352162e+01	-4.543476e+02
1.300000e-07	-3.098895e-06	-7.002261e-09	-2.351433e+01	-4.540687e+02
1.400000e-07	-3.097871e-06	-7.025346e-09	-2.350657e+01	-4.538019e+02
1.500000e-07	-3.096767e-06	-7.057023e-09	-2.349819e+01	-4.535489e+02
1.600000e-07	-3.095560e-06	-7.026703e-09	-2.348903e+01	-4.533111e+02
1.700000e-07	-3.094233e-06	-6.972654e-09	-2.347896e+01	-4.530893e+02
1.800000e-07	-3.092877e-06	-7.051581e-09	-2.346867e+01	-4.528840e+02
1.900000e-07	-3.091426e-06	-7.052547e-09	-2.345766e+01	-4.526951e+02
2.000000e-07	-3.089834e-06	-7.026128e-09	-2.344558e+01	-4.525226e+02
2.100000e-07	-3.088106e-06	-6.964861e-09	-2.343247e+01	-4.523660e+02
2.200000e-07	-3.086326e-06	-6.959737e-09	-2.341896e+01	-4.522247e+02
2.300000e-07	-3.084516e-06	-7.025922e-09	-2.340523e+01	-4.520982e+02
2.400000e-07	-3.082596e-06	-7.033920e-09	-2.339066e+01	-4.519856e+02
2.500000e-07	-3.080589e-06	-7.020488e-09	-2.337543e+01	-4.518864e+02
2.600000e-07	-3.078504e-06	-6.963746e-09	-2.335961e+01	-4.517999e+02
2.700000e-07	-3.076367e-06	-6.994994e-09	-2.334339e+01	-4.517255e+02
2.800000e-07	-3.074158e-06	-7.009591e-09	-2.332663e+01	-4.516626e+02
2.900000e-07	-3.071867e-06	-6.986510e-09	-2.330924e+01	-4.516107e+02
3.000000e-07	-3.069500e-06	-6.975688e-09	-2.329129e+01	-4.515693e+02
3.100000e-07	-3.067047e-06	-6.974217e-09	-2.327267e+01	-4.515379e+02
3.200000e-07	-3.064540e-06	-7.021822e-09	-2.325365e+01	-4.515159e+02
3.300000e-07	-3.061969e-06	-6.995211e-09	-2.323414e+01	-4.515024e+02
3.400000e-07	-3.059327e-06	-6.969960e-09	-2.321409e+01	-4.514967e+02
3.500000e-07	-3.056565e-06	-6.958552e-09	-2.319313e+01	-4.514976e+02
3.600000e-07	-3.053682e-06	-6.974528e-09	-2.317126e+01	-4.515037e+02
3.700000e-07	-3.050737e-06	-7.004433e-09	-2.314891e+01	-4.515134e+02
3.800000e-07	-3.047724e-06	-6.982957e-09	-2.312605e+01	-4.515248e+02
3.900000e-07	-3.044637e-06	-6.975870e-09	-2.310263e+01	-4.515359e+02
4.000000e-07	-3.041465e-06	-6.960776e-09	-2.307855e+01	-4.515441e+02
4.100000e-07	-3.038231e-06	-6.984807e-09	-2.305402e+01	-4.515470e+02
4.200000e-07	-3.034930e-06	-6.984119e-09	-2.302897e+01	-4.515417e+02
4.300000e-07	-3.031565e-06	-6.953207e-09	-2.300343e+01	-4.515255e+02
4.400000e-07	-3.028140e-06	-6.951140e-09	-2.297745e+01	-4.514956e+02
4.500000e-07	-3.024607e-06	-6.957039e-09	-2.295064e+01	-4.514491e+02
4.600000e-07	-3.020977e-06	-6.982429e-09	-2.292309e+01	-4.513833e+02
4.700000e-07	-3.017253e-06	-6.956194e-09	-2.289484e+01	-4.512960e+02
4.800000e-07	-3.013460e-06	-6.940307e-09	-2.286605e+01	-4.511849e+02
4.900000e-07	-3.009601e-06	-6.946717e-09	-2.283678e+01	-4.510481e+02
5.000000e-07	-3.005665e-06	-6.953670e-09	-2.280691e+01	-4.508844e+02
5.100000e-07	-3.001646e-06	-6.945947e-09	-2.277641e+01	-4.506926e+02
5.200000e-07	-2.997541e-06	-6.901967e-09	-2.274526e+01	-4.504720e+02
5.300000e-07	-2.993394e-06	-6.902496e-09	-2.271379e+01	-4.502227e+02
5.400000e-07	-2.989179e-06	-6.910015e-09	-2.268181e+01	-4.499446e+02
5.500000e-07	-2.984859e-06	-6.915725e-09	-2.264903e+01	-4.496385e+02
5.600000e-07	-2.980428e-06	-6.901737e-09	-2.261541e+01	-4.493050e+02
5.700000e-07	-2.975909e-06	-6.886827e-09	-2.258112e+01	-4.489454e+02
5.800000e-07	-2.971337e-06	-6.899341e-09	-2.254643e+01	-4.485610e+02
5.900000e-07	-2.966698e-06	-6.883634e-09	-2.251123e+01	-4.481530e+02
6.000000e-07	-2.961981e-06	-6.861462e-09	-2.247544e+01	-4.477230e+02
6.100000e-07	-2.957177e-06	-6.832767e-09	-2.243898e+01	-4.472725e+02
6.200000e-07	-2.952301e-06	-6.835037e-09	-2.240198e+01	-4.468027e+02
6.300000e-07	-2.947349e-06	-6.845186e-09	-2.236441e+01	-4.463150e+02
6.400000e-07	-2.942315e-06	-6.833528e-09	-2.232621e+01	-4.458106e+02
6.500000e-07	-2.937187e-06	-6.821079e-09	-2.228729e+01	-4.452903e+02
6.600000e-07	-2.931939e-06	-6.799827e-09	-2.224748e+01	-4.447551e+02
6.700000e-07	-2.926607e-06	-6.803182e-09	-2.220701e+01	-4.442058e+02
6.800000e-07	-2.921188e-06	-6.792066e-09	-2.216590e+01	-4.436430e+02
6.900000e-07	-2.915689e-06	-6.772871e-09	-2.212418e+01	-4.430674e+02
7.000000e-07	-2.910121e-06	-6.761710e-09	-2.208192e+01	-4.424796e+02
7.100000e-07	-2.904471e-06	-6.759608e-09	-2.203905e+01	-4.418803e+02
7.200000e-07	-2.898755e-06	-6.766649e-09	-2.199568e+01	-4.412703e+02
7.300000e-07	-2.892971e-06	-6.741614e-09	-2.195179e+01	-4.406506e+02
7.400000e-07	-2.887119e-06	-6.718963e-09	-2.190738e+01	-4.400224e+02
7.500000e-07	-2.881171e-06	-6.705961e-09	-2.186225e+01	-4.393872e+02
7.600000e-07	-2.875119e-06	-6.708814e-09	-2.181633e+01	-4.387466e+02
7.700000e-07	-2.868998e-06	-6.703928e-09	-2.176988e+01	-4.381026e+02
7.800000e-07	-2.862801e-06	-6.681268e-09	-2.172286e+01	-4.374574e+02
7.900000e-07	-2.856542e-06	-6.673655e-09	-2.167537e+01	-4.368135e+02
8.000000e-07	-2.850235e-06	-6.666154e-09	-2.162751e+01	-4.361733e+02
8.100000e-07	-2.843866e-06	-6.660205e-09	-2.157918e+01	-4.355396e+02
8.200000e-07	-2.837405e-06	-6.632245e-09	-2.153016e+01	-4.349152e+02
8.300000e-07	-2.830873e-06	-6.606526e-09	-2.148059e+01	-4.343027e+02
8.400000e-07	-2.824285e-06	-6.602770e-09	-2.143060e+01	-4.337047e+02
8.500000e-07	-2.817597e-06	-6.601423e-09	-2.137985e+01	-4.331236e+02
8.600000e-07	-2.810818e-06	-6.597925e-09	-2.132841e+01	-4.325614e+02
8.700000e-07	-2.803968e-06	-6.578923e-09	-2.127644e+01	-4.320198e+02
8.800000e-07	-2.797054e-06	-6.573782e-09	-2.122397e+01	-4.315000e+02
8.900000e-07	-2.790078e-06	-6.572410e-09	-2.117104e+01	-4.310028e+02
9.000000e-07	-2.783037e-06	-6.561546e-09	-2.111761e+01	-4.305285e+02
9.100000e-07	-2.775923e-06	-6.544585e-09	-2.106363e+01	-4.300768e+02
9.200000e-07	-2.768737e-06	-6.532134e-09	-2.100910e+01	-4.296469e+02
9.300000e-07	-2.761485e-06	-6.538999e-09	-2.095408e+01	-4.292374e+02
9.400000e-07	-2.754169e-06	-6.533655e-09	-2.089856e+01	-4.288465e+02
9.500000e-07	-2.746801e-06	-6.520568e-09	-2.084266e+01	-4.284721e+02
9.600000e-07	-2.739352e-06	-6.507237e-09	-2.078613e+01	-4.281116e+02
9.700000e-07	-2.731805e-06	-6.506921e-09	-2.072886e+01	-4.277621e+02
9.800000e-07	-2.724164e-06	-6.513805e-09	-2.067089e+01	-4.274207e+02
9.900000e-07	-2.716434e-06	-6.504276e-09	-2.061223e+01	-4.270841e+02
1.000000e-06	-2.708630e-06	-6.492174e-09	-2.055302e+01	-4.267492e+02
1.010000e-06	-2.700744e-06	-6.482172e-09	-2.049317e+01	-4.264130e+02
1.020000e-06	-2.692804e-06	-6.481429e-09	-2.043292e+01	-4.260723e+02
1.030000e-06	-2.684792e-06	-6.473061e-09	-2.037213e+01	-4.257243e+02
1.040000e-06	-2.676678e-06	-6.459883e-09	-2.031056e+01	-4.253665e+02
1.050000e-06	-2.668476e-06	-6.453764e-09	-2.024833e+01	-4.249963e+02
1.060000e-06	-2.660195e-06	-6.450919e-09	-2.018549e+01	-4.246118e+02
1.070000e-06	-2.651859e-06	-6.451905e-09	-2.012224e+01	-4.242109e+02
1.080000e-06	-2.643459e-06	-6.441294e-09	-2.005850e+01	-4.237921e+02
1.090000e-06	-2.635003e-06	-6.430405e-09	-1.999434e+01	-4.233540e+02
1.100000e-06	-2.626496e-06	-6.421798e-09	-1.992978e+01	-4.228955e+02
1.110000e-06	-2.617935e-06	-6.412153e-09	-1.986482e+01	-4.224154e+02
1.120000e-06	-2.609329e-06	-6.400792e-09	-1.979952e+01	-4.219130e+02
1.130000e-06	-2.600654e-06	-6.382603e-09	-1.973370e+01	-4.213874e+02
1.140000e-06	-2.591919e-06	-6.369947e-09	-1.966741e+01	-4.208380e+02
1.150000e-06	-2.583120e-06	-6.359828e-09	-1.960065e+01	-4.202640e+02
1.160000e-06	-2.574248e-06	-6.353065e-09	-1.953332e+01	-4.196650e+02
1.170000e-06	-2.565314e-06	-6.342855e-09	-1.946553e+01	-4.190402e+02
1.180000e-06	-2.556341e-06	-6.332521e-09	-1.939745e+01	-4.183891e+02
1.190000e-06	-2.547301e-06	-6.326500e-09	-1.932885e+01	-4.177110e+02
1.200000e-06	-2.538164e-06	-6.311258e-09	-1.925952e+01	-4.170055e+02
1.210000e-06	-2.528947e-06	-6.291343e-09	-1.918958e+01	-4.162720e+02
1.220000e-06	-2.519655e-06	-6.267298e-09	-1.911907e+01	-4.155101e+02
1.230000e-06	-2.510312e-06	-6.248667e-09	-1.904819e+01	-4.147196e+02
1.240000e-06	-2.500918e-06	-6.238426e-09	-1.897690e+01	-4.139004e+02
1.250000e-06	-2.491451e-06	-6.228351e-09	-1.890506e+01	-4.130524e+02
1.260000e-06	-2.481919e-06	-6.216034e-09	-1.883274e+01	-4.121760e+02
1.270000e-06	-2.472348e-06	-6.201616e-09	-1.876011e+01	-4.112718e+02
1.280000e-06	-2.462733e-06	-6.187501e-09	-1.868715e+01	-4.103405e+02
1.290000e-06	-2.453053e-06	-6.167409e-09	-1.861370e+01	-4.093832e+02
1.300000e-06	-2.443307e-06	-6.143185e-09	-1.853975e+01	-4.084013e+02
1.310000e-06	-2.433491e-06	-6.116615e-09	-1.846526e+01	-4.073964e+02
1.320000e-06	-2.423595e-06	-6.095093e-09	-1.839017e+01	-4.063704e+02
1.330000e-06	-2.413605e-06	-6.081264e-09	-1.831437e+01	-4.053254e+02
1.340000e-06	-2.403537e-06	-6.066699e-09	-1.823797e+01	-4.042636e+02
1.350000e-06	-2.393419e-06	-6.053652e-09	-1.816120e+01	-4.031876e+02
1.360000e-06	-2.383261e-06	-6.039992e-09	-1.808412e+01	-4.020999e+02
1.370000e-06	-2.373052e-06	-6.025912e-09	-1.800665e+01	-4.010029e+02
1.380000e-06	-2.362764e-06	-6.006278e-09	-1.792860e+01	-3.998993e+02
1.390000e-06	-2.352407e-06	-5.981941e-09	-1.785000e+01	-3.987916e+02
1.400000e-06	-2.342003e-06	-5.956756e-09	-1.777106e+01	-3.976821e+02
1.410000e-06	-2.331559e-06	-5.931022e-09	-1.769181e+01	-3.965732e+02
1.420000e-06	-2.321071e-06	-5.913162e-09	-1.761223e+01	-3.954669e+02
1.430000e-06	-2.310519e-06	-5.900237e-09	-1.753216e+01	-3.943650e+02
1.440000e-06	-2.299905e-06	-5.891312e-09	-1.745162e+01	-3.932693e+02
1.450000e-06	-2.289218e-06	-5.882159e-09	-1.737053e+01	-3.921810e+02
1.460000e-06	-2.278443e-06	-5.868621e-09	-1.728876e+01	-3.911014e+02
1.470000e-06	-2.267589e-06	-5.851621e-09	-1.720641e+01	-3.900313e+02
1.480000e-06	-2.256680e-06	-5.829405e-09	-1.712363e+01	-3.889715e+02
1.490000e-06	-2.245734e-06	-5.808076e-09	-1.704057e+01	-3.879223e+02
1.500000e-06	-2.234747e-06	-5.787849e-09	-1.695720e+01	-3.868841e+02
1.510000e-06	-2.223698e-06	-5.771592e-09	-1.687336e+01	-3.858569e+02
1.520000e-06	-2.212579e-06	-5.757077e-09	-1.678900e+01	-3.848408e+02
1.530000e-06	-2.201412e-06	-5.742053e-09	-1.670425e+01	-3.838354e+02
1.540000e-06	-2.190196e-06	-5.730198e-09	-1.661915e+01	-3.828406e+02
1.550000e-06	-2.178927e-06	-5.717090e-09	-1.653364e+01	-3.818559e+02
1.560000e-06	-2.167604e-06	-5.702966e-09	-1.644772e+01	-3.808809e+02
1.570000e-06	-2.156242e-06	-5.684348e-09	-1.636151e+01	-3.799150e+02
1.580000e-06	-2.144839e-06	-5.666096e-09	-1.627499e+01	-3.789577e+02
1.590000e-06	-2.133353e-06	-5.652229e-09	-1.618782e+01	-3.780083e+02
1.600000e-06	-2.121747e-06	-5.640319e-09	-1.609976e+01	-3.770659e+02
1.610000e-06	-2.110058e-06	-5.631270e-09	-1.601106e+01	-3.761299e+02
1.620000e-06	-2.098337e-06	-5.618016e-09	-1.592213e+01	-3.751993e+02
1.630000e-06	-2.086572e-06	-5.602061e-09	-1.583286e+01	-3.742732e+02
1.640000e-06	-2.074747e-06	-5.584706e-09	-1.574312e+01	-3.733503e+02
1.650000e-06	-2.062861e-06	-5.568438e-09	-1.565293e+01	-3.724295e+02
1.660000e-06	-2.050923e-06	-5.552889e-09	-1.556235e+01	-3.715093e+02
1.670000e-06	-2.038933e-06	-5.536427e-09	-1.547137e+01	-3.705884e+02
1.680000e-06	-2.026893e-06	-5.525841e-09	-1.538001e+01	-3.696650e+02
1.690000e-06	-2.014809e-06	-5.514597e-09	-1.528832e+01	-3.687373e+02
1.700000e-06	-2.002691e-06	-5.499794e-09	-1.519637e+01	-3.678035e+02
1.710000e-06	-1.990531e-06	-5.482566e-09	-1.510410e+01	-3.668614e+02
1.720000e-06	-1.978316e-06	-5.464920e-09	-1.501141e+01	-3.659089e+02
1.730000e-06	-1.966041e-06	-5.448009e-09	-1.491827e+01	-3.649437e+02
1.740000e-06	-1.953693e-06	-5.427550e-09	-1.482457e+01	-3.639636e+02
1.750000e-06	-1.941284e-06	-5.406165e-09	-1.473041e+01	-3.629662e+02
1.760000e-06	-1.928819e-06	-5.383102e-09	-1.463583e+01	-3.619492e+02
1.770000e-06	-1.916310e-06	-5.364264e-09	-1.454091e+01	-3.609103e+02
1.780000e-06	-1.903774e-06	-5.350204e-09	-1.444578e+01	-3.598472e+02
1.790000e-06	-1.891194e-06	-5.337882e-09	-1.435033e+01	-3.587579e+02
1.800000e-06	-1.878569e-06	-5.326137e-09	-1.425453e+01	-3.576404e+02
1.810000e-06	-1.865888e-06	-5.309248e-09	-1.415831e+01	-3.564929e+02
1.820000e-06	-1.853161e-06	-5.290056e-09	-1.406173e+01	-3.553139e+02
1.830000e-06	-1.840399e-06	-5.264230e-09	-1.396490e+01	-3.541022e+02
1.840000e-06	-1.827595e-06	-5.236988e-09	-1.386774e+01	-3.528567e+02
1.850000e-06	-1.814745e-06	-5.213760e-09	-1.377023e+01	-3.515768e+02
1.860000e-06	-1.801850e-06	-5.195116e-09	-1.367239e+01	-3.502622e+02
1.870000e-06	-1.788920e-06	-5.181136e-09	-1.357428e+01	-3.489128e+02
1.880000e-06	-1.775940e-06	-5.162650e-09	-1.347578e+01	-3.475291e+02
1.890000e-06	-1.762903e-06	-5.141083e-09	-1.337686e+01	-3.461117e+02
1.900000e-06	-1.749820e-06	-5.111478e-09	-1.327759e+01	-3.446618e+02
1.910000e-06	-1.736686e-06	-5.080711e-09	-1.317792e+01	-3.431807e+02
1.920000e-06	-1.723487e-06	-5.052221e-09	-1.307777e+01	-3.416702e+02
1.930000e-06	-1.710241e-06	-5.023761e-09	-1.297726e+01	-3.401323e+02
1.940000e-06	-1.696952e-06	-4.996946e-09	-1.287642e+01	-3.385692e+02
1.950000e-06	-1.683625e-06	-4.972266e-09	-1.277530e+01	-3.369833e+02
1.960000e-06	-1.670279e-06	-4.952477e-09	-1.267403e+01	-3.353774e+02
1.970000e-06	-1.656900e-06	-4.930737e-09	-1.257251e+01	-3.337541e+02
1.980000e-06	-1.643468e-06	-4.906630e-09	-1.247059e+01	-3.321163e+02
1.990000e-06	-1.629976e-06	-4.879643e-09	-1.236822e+01	-3.304668e+02
2.000000e-06	-1.616437e-06	-4.851474e-09	-1.226548e+01	-3.288084e+02
2.010000e-06	-1.602863e-06	-4.824330e-09	-1.216248e+01	-3.271439e+02
2.020000e-06	-1.589261e-06	-4.797450e-09	-1.205927e+01	-3.254758e+02
2.030000e-06	-1.575619e-06	-4.769046e-09	-1.195575e+01	-3.238065e+02
2.040000e-06	-1.561923e-06	-4.740913e-09	-1.185183e+01	-3.221384e+02
2.050000e-06	-1.548199e-06	-4.718465e-09	-1.174769e+01	-3.204733e+02
2.060000e-06	-1.534458e-06	-4.698059e-09	-1.164343e+01	-3.188130e+02
2.070000e-06	-1.520681e-06	-4.674248e-09	-1.153889e+01	-3.171590e+02
2.080000e-06	-1.506863e-06	-4.647468e-09	-1.143404e+01	-3.155125e+02
2.090000e-06	-1.492991e-06	-4.623127e-09	-1.132877e+01	-3.138746e+02
2.100000e-06	-1.479043e-06	-4.602728e-09	-1.122294e+01	-3.122459e+02
2.110000e-06	-1.465038e-06	-4.577271e-09	-1.111667e+01	-3.106270e+02
2.120000e-06	-1.450995e-06	-4.550249e-09	-1.101012e+01	-3.090181e+02
2.130000e-06	-1.436912e-06	-4.526215e-09	-1.090325e+01	-3.074196e+02
2.140000e-06	-1.422781e-06	-4.503983e-09	-1.079603e+01	-3.058314e+02
2.150000e-06	-1.408614e-06	-4.483567e-09	-1.068852e+01	-3.042536e+02
2.160000e-06	-1.394429e-06	-4.460938e-09	-1.058089e+01	-3.026861e+02
2.170000e-06	-1.380212e-06	-4.436658e-09	-1.047301e+01	-3.011288e+02
2.180000e-06	-1.365945e-06	-4.411751e-09	-1.036475e+01	-2.995816e+02
2.190000e-06	-1.351625e-06	-4.389612e-09	-1.025610e+01	-2.980446e+02
2.200000e-06	-1.337274e-06	-4.370399e-09	-1.014720e+01	-2.965176e+02
2.210000e-06	-1.322903e-06	-4.350410e-09	-1.003815e+01	-2.950008e+02
2.220000e-06	-1.308486e-06	-4.329263e-09	-9.928755e+00	-2.934943e+02
2.230000e-06	-1.294023e-06	-4.306532e-09	-9.819010e+00	-2.919980e+02
2.240000e-06	-1.279524e-06	-4.285716e-09	-9.708992e+00	-2.905121e+02
2.250000e-06	-1.264979e-06	-4.267578e-09	-9.598628e+00	-2.890367e+02
2.260000e-06	-1.250396e-06	-4.249041e-09	-9.487974e+00	-2.875717e+02
2.270000e-06	-1.235782e-06	-4.227500e-09	-9.377080e+00	-2.861169e+02
2.280000e-06	-1.221134e-06	-4.208299e-09	-9.265933e+00	-2.846719e+02
2.290000e-06	-1.206460e-06	-4.193091e-09	-9.154586e+00	-2.832363e+02
2.300000e-06	-1.191772e-06	-4.173916e-09	-9.043136e+00	-2.818092e+02
2.310000e-06	-1.177062e-06	-4.150195e-09	-8.931519e+00	-2.803895e+02
2.320000e-06	-1.162329e-06	-4.122685e-09	-8.819719e+00	-2.789759e+02
2.330000e-06	-1.147565e-06	-4.099336e-09	-8.707696e+00	-2.775666e+02
2.340000e-06	-1.132760e-06	-4.080079e-09	-8.595353e+00	-2.761595e+02
2.350000e-06	-1.117915e-06	-4.059095e-09	-8.482709e+00	-2.747524e+02
2.360000e-06	-1.103035e-06	-4.038077e-09	-8.369800e+00	-2.733424e+02
2.370000e-06	-1.088141e-06	-4.018515e-09	-8.256785e+00	-2.719268e+02
2.380000e-06	-1.073238e-06	-4.001629e-09	-8.143705e+00	-2.705024e+02
2.390000e-06	-1.058315e-06	-3.981910e-09	-8.030468e+00	-2.690659e+02
2.400000e-06	-1.043374e-06	-3.958003e-09	-7.917097e+00	-2.676139e+02
2.410000e-06	-1.028428e-06	-3.931531e-09	-7.803684e+00	-2.661432e+02
2.420000e-06	-1.013457e-06	-3.905775e-09	-7.690084e+00	-2.646504e+02
2.430000e-06	-9.984528e-07	-3.883593e-09	-7.576234e+00	-2.631324e+02
2.440000e-06	-9.834182e-07	-3.860797e-09	-7.462151e+00	-2.615864e+02
2.450000e-06	-9.683529e-07	-3.836949e-09	-7.347836e+00	-2.600096e+02
2.460000e-06	-9.532687e-07	-3.811005e-09	-7.233378e+00	-2.583998e+02
2.470000e-06	-9.381644e-07	-3.784277e-09	-7.118767e+00	-2.567552e+02
2.480000e-06	-9.230388e-07	-3.758571e-09	-7.003994e+00	-2.550744e+02
2.490000e-06	-9.078956e-07	-3.731075e-09	-6.889088e+00	-2.533565e+02
2.500000e-06	-8.927248e-07	-3.704748e-09	-6.773972e+00	-2.516010e+02
2.510000e-06	-8.775219e-07	-3.681033e-09	-6.658613e+00	-2.498079e+02
2.520000e-06	-8.623015e-07	-3.655870e-09	-6.543121e+00	-2.479778e+02
2.530000e-06	-8.470754e-07	-3.625190e-09	-6.427586e+00	-2.461115e+02
2.540000e-06	-8.318233e-07	-3.593665e-09	-6.311854e+00	-2.442104e+02
2.550000e-06	-8.165371e-07	-3.565452e-09	-6.195862e+00	-2.422760e+02
2.560000e-06	-8.012288e-07	-3.538429e-09	-6.079703e+00	-2.403103e+02
2.570000e-06	-7.859023e-07	-3.510818e-09	-5.963406e+00	-2.383154e+02
2.580000e-06	-7.705668e-07	-3.481113e-09	-5.847041e+00	-2.362936e+02
2.590000e-06	-7.552131e-07	-3.449898e-09	-5.730537e+00	-2.342473e+02
2.600000e-06	-7.398376e-07	-3.416184e-09	-5.613869e+00	-2.321788e+02
2.610000e-06	-7.244469e-07	-3.379647e-09	-5.497084e+00	-2.300908e+02
2.620000e-06	-7.090254e-07	-3.344204e-09	-5.380066e+00	-2.279854e+02
2.630000e-06	-6.935819e-07	-3.312327e-09	-5.262881e+00	-2.258651e+02
2.640000e-06	-6.781200e-07	-3.282460e-09	-5.145557e+00	-2.237320e+02
2.650000e-06	-6.626269e-07	-3.252354e-09	-5.027996e+00	-2.215884e+02
2.660000e-06	-6.470922e-07	-3.221923e-09	-4.910118e+00	-2.194360e+02
2.670000e-06	-6.315204e-07	-3.193498e-09	-4.791960e+00	-2.172769e+02
2.680000e-06	-6.159256e-07	-3.166199e-09	-4.673627e+00	-2.151127e+02
2.690000e-06	-6.003178e-07	-3.136293e-09	-4.555196e+00	-2.129451e+02
2.700000e-06	-5.846972e-07	-3.103149e-09	-4.436667e+00	-2.107758e+02
2.710000e-06	-5.690559e-07	-3.070186e-09	-4.317981e+00	-2.086060e+02
2.720000e-06	-5.534012e-07	-3.035932e-09	-4.199194e+00	-2.064373e+02
2.730000e-06	-5.377272e-07	-3.000728e-09	-4.080260e+00	-2.042710e+02
2.740000e-06	-5.220366e-07	-2.965624e-09	-3.961200e+00	-2.021084e+02
2.750000e-06	-5.063404e-07	-2.933462e-09	-3.842098e+00	-1.999506e+02
2.760000e-06	-4.906310e-07	-2.908815e-09	-3.722895e+00	-1.977988e+02
2.770000e-06	-4.749066e-07	-2.884960e-09	-3.603579e+00	-1.956539e+02
2.780000e-06	-4.591811e-07	-2.859669e-09	-3.484254e+00	-1.935170e+02
2.790000e-06	-4.434519e-07	-2.833058e-09	-3.364901e+00	-1.913888e+02
2.800000e-06	-4.277125e-07	-2.805607e-09	-3.245471e+00	-1.892699e+02
2.810000e-06	-4.119624e-07	-2.773817e-09	-3.125960e+00	-1.871608e+02
2.820000e-06	-3.962127e-07	-2.736802e-09	-3.006452e+00	-1.850618e+02
2.830000e-06	-3.804552e-07	-2.700271e-09	-2.886884e+00	-1.829728e+02
2.840000e-06	-3.646903e-07	-2.668406e-09	-2.767260e+00	-1.808936e+02
