# Temperatura_=_20.0
# Concentracion g/m^3_=_10000.0
# C_Vs_to_Am_M_A/Vsm_=_65563218390.804596
# pendiente_HvsI_1/m_=_3716.3
# ordenada_HvsI_A/m_=_1297.0
# frecuencia_Hz_=_81161.5940368967

Tiempo_(s)	Campo_(V.s)	Magnetizacion_(V.s)	Campo_(kA/m)	Magnetizacion_(A/m)
0.000000e+00	-3.108979e-06	-7.091342e-09	-2.356075e+01	-4.592797e+02
1.000000e-08	-3.108980e-06	-7.088178e-09	-2.356076e+01	-4.593229e+02
2.000000e-08	-3.109106e-06	-6.975645e-09	-2.356171e+01	-4.593554e+02
3.000000e-08	-3.109131e-06	-7.042181e-09	-2.356190e+01	-4.593780e+02
4.000000e-08	-3.108974e-06	-7.061695e-09	-2.356071e+01	-4.593914e+02
5.000000e-08	-3.108663e-06	-6.996129e-09	-2.355836e+01	-4.593966e+02
6.000000e-08	-3.108252e-06	-7.062321e-09	-2.355524e+01	-4.593943e+02
7.000000e-08	-3.107741e-06	-7.037090e-09	-2.355137e+01	-4.593856e+02
8.000000e-08	-3.107115e-06	-7.034338e-09	-2.354663e+01	-4.593712e+02
9.000000e-08	-3.106410e-06	-7.034578e-09	-2.354128e+01	-4.593519e+02
1.000000e-07	-3.105668e-06	-7.034893e-09	-2.353565e+01	-4.593286e+02
1.100000e-07	-3.104954e-06	-7.053086e-09	-2.353024e+01	-4.593018e+02
1.200000e-07	-3.104123e-06	-7.004752e-09	-2.352395e+01	-4.592720e+02
1.300000e-07	-3.103205e-06	-7.023497e-09	-2.351699e+01	-4.592397e+02
1.400000e-07	-3.102202e-06	-7.021665e-09	-2.350939e+01	-4.592053e+02
1.500000e-07	-3.101106e-06	-7.035309e-09	-2.350109e+01	-4.591689e+02
1.600000e-07	-3.099917e-06	-7.007377e-09	-2.349207e+01	-4.591306e+02
1.700000e-07	-3.098604e-06	-6.989724e-09	-2.348212e+01	-4.590906e+02
1.800000e-07	-3.097266e-06	-7.038871e-09	-2.347198e+01	-4.590486e+02
1.900000e-07	-3.095832e-06	-7.005531e-09	-2.346112e+01	-4.590046e+02
2.000000e-07	-3.094266e-06	-7.007315e-09	-2.344925e+01	-4.589584e+02
2.100000e-07	-3.092550e-06	-6.985273e-09	-2.343624e+01	-4.589098e+02
2.200000e-07	-3.090769e-06	-7.006049e-09	-2.342275e+01	-4.588585e+02
2.300000e-07	-3.088960e-06	-7.018819e-09	-2.340904e+01	-4.588043e+02
2.400000e-07	-3.087053e-06	-6.995144e-09	-2.339459e+01	-4.587467e+02
2.500000e-07	-3.085091e-06	-6.996737e-09	-2.337972e+01	-4.586855e+02
2.600000e-07	-3.083046e-06	-6.975278e-09	-2.336422e+01	-4.586203e+02
2.700000e-07	-3.080917e-06	-7.009134e-09	-2.334809e+01	-4.585508e+02
2.800000e-07	-3.078709e-06	-6.992535e-09	-2.333135e+01	-4.584765e+02
2.900000e-07	-3.076414e-06	-6.980810e-09	-2.331396e+01	-4.583970e+02
3.000000e-07	-3.074056e-06	-6.978027e-09	-2.329609e+01	-4.583119e+02
3.100000e-07	-3.071621e-06	-6.973840e-09	-2.327764e+01	-4.582207e+02
3.200000e-07	-3.069140e-06	-6.991079e-09	-2.325884e+01	-4.581228e+02
3.300000e-07	-3.066600e-06	-6.961121e-09	-2.323959e+01	-4.580179e+02
3.400000e-07	-3.063985e-06	-6.963414e-09	-2.321977e+01	-4.579052e+02
3.500000e-07	-3.061238e-06	-6.955778e-09	-2.319895e+01	-4.577844e+02
3.600000e-07	-3.058366e-06	-6.966849e-09	-2.317719e+01	-4.576548e+02
3.700000e-07	-3.055440e-06	-6.970406e-09	-2.315501e+01	-4.575160e+02
3.800000e-07	-3.052442e-06	-6.953868e-09	-2.313229e+01	-4.573674e+02
3.900000e-07	-3.049375e-06	-6.961100e-09	-2.310905e+01	-4.572086e+02
4.000000e-07	-3.046217e-06	-6.944502e-09	-2.308512e+01	-4.570392e+02
4.100000e-07	-3.043007e-06	-6.955894e-09	-2.306079e+01	-4.568589e+02
4.200000e-07	-3.039751e-06	-6.935496e-09	-2.303612e+01	-4.566676e+02
4.300000e-07	-3.036417e-06	-6.916630e-09	-2.301085e+01	-4.564650e+02
4.400000e-07	-3.033006e-06	-6.917385e-09	-2.298500e+01	-4.562511e+02
4.500000e-07	-3.029488e-06	-6.917699e-09	-2.295835e+01	-4.560259e+02
4.600000e-07	-3.025867e-06	-6.931977e-09	-2.293091e+01	-4.557895e+02
4.700000e-07	-3.022157e-06	-6.911209e-09	-2.290278e+01	-4.555421e+02
4.800000e-07	-3.018392e-06	-6.913639e-09	-2.287426e+01	-4.552840e+02
4.900000e-07	-3.014551e-06	-6.908198e-09	-2.284514e+01	-4.550153e+02
5.000000e-07	-3.010620e-06	-6.901228e-09	-2.281536e+01	-4.547362e+02
5.100000e-07	-3.006620e-06	-6.887041e-09	-2.278504e+01	-4.544471e+02
5.200000e-07	-3.002538e-06	-6.862187e-09	-2.275411e+01	-4.541481e+02
5.300000e-07	-2.998407e-06	-6.868680e-09	-2.272280e+01	-4.538392e+02
5.400000e-07	-2.994195e-06	-6.863423e-09	-2.269088e+01	-4.535206e+02
5.500000e-07	-2.989873e-06	-6.873121e-09	-2.265813e+01	-4.531922e+02
5.600000e-07	-2.985448e-06	-6.870349e-09	-2.262459e+01	-4.528539e+02
5.700000e-07	-2.980940e-06	-6.868156e-09	-2.259043e+01	-4.525054e+02
5.800000e-07	-2.976379e-06	-6.868031e-09	-2.255586e+01	-4.521465e+02
5.900000e-07	-2.971734e-06	-6.848198e-09	-2.252066e+01	-4.517769e+02
6.000000e-07	-2.967006e-06	-6.835632e-09	-2.248483e+01	-4.513961e+02
6.100000e-07	-2.962202e-06	-6.809743e-09	-2.244843e+01	-4.510038e+02
6.200000e-07	-2.957333e-06	-6.806567e-09	-2.241153e+01	-4.505996e+02
6.300000e-07	-2.952401e-06	-6.803883e-09	-2.237415e+01	-4.501834e+02
6.400000e-07	-2.947355e-06	-6.801912e-09	-2.233591e+01	-4.497550e+02
6.500000e-07	-2.942184e-06	-6.802809e-09	-2.229673e+01	-4.493143e+02
6.600000e-07	-2.936904e-06	-6.793814e-09	-2.225671e+01	-4.488615e+02
6.700000e-07	-2.931545e-06	-6.795211e-09	-2.221610e+01	-4.483970e+02
6.800000e-07	-2.926105e-06	-6.775913e-09	-2.217487e+01	-4.479214e+02
6.900000e-07	-2.920591e-06	-6.764610e-09	-2.213309e+01	-4.474355e+02
7.000000e-07	-2.915011e-06	-6.752069e-09	-2.209080e+01	-4.469402e+02
7.100000e-07	-2.909361e-06	-6.744240e-09	-2.204798e+01	-4.464368e+02
7.200000e-07	-2.903665e-06	-6.743388e-09	-2.200482e+01	-4.459266e+02
7.300000e-07	-2.897899e-06	-6.727286e-09	-2.196112e+01	-4.454112e+02
7.400000e-07	-2.892043e-06	-6.721018e-09	-2.191675e+01	-4.448921e+02
7.500000e-07	-2.886077e-06	-6.708979e-09	-2.187153e+01	-4.443710e+02
7.600000e-07	-2.880022e-06	-6.707871e-09	-2.182565e+01	-4.438493e+02
7.700000e-07	-2.873904e-06	-6.697907e-09	-2.177928e+01	-4.433287e+02
7.800000e-07	-2.867709e-06	-6.684179e-09	-2.173233e+01	-4.428104e+02
7.900000e-07	-2.861451e-06	-6.679395e-09	-2.168491e+01	-4.422957e+02
8.000000e-07	-2.855126e-06	-6.666906e-09	-2.163697e+01	-4.417854e+02
8.100000e-07	-2.848752e-06	-6.658909e-09	-2.158867e+01	-4.412802e+02
8.200000e-07	-2.842299e-06	-6.636788e-09	-2.153977e+01	-4.407804e+02
8.300000e-07	-2.835768e-06	-6.624631e-09	-2.149027e+01	-4.402860e+02
8.400000e-07	-2.829188e-06	-6.620961e-09	-2.144041e+01	-4.397969e+02
8.500000e-07	-2.822526e-06	-6.618759e-09	-2.138992e+01	-4.393123e+02
8.600000e-07	-2.815758e-06	-6.616125e-09	-2.133863e+01	-4.388315e+02
8.700000e-07	-2.808898e-06	-6.600769e-09	-2.128665e+01	-4.383533e+02
8.800000e-07	-2.801990e-06	-6.594715e-09	-2.123430e+01	-4.378766e+02
8.900000e-07	-2.795029e-06	-6.584514e-09	-2.118154e+01	-4.373999e+02
9.000000e-07	-2.787985e-06	-6.572445e-09	-2.112817e+01	-4.369219e+02
9.100000e-07	-2.780858e-06	-6.555079e-09	-2.107415e+01	-4.364411e+02
9.200000e-07	-2.773661e-06	-6.541112e-09	-2.101961e+01	-4.359562e+02
9.300000e-07	-2.766414e-06	-6.538900e-09	-2.096469e+01	-4.354658e+02
9.400000e-07	-2.759106e-06	-6.531127e-09	-2.090931e+01	-4.349689e+02
9.500000e-07	-2.751742e-06	-6.526512e-09	-2.085350e+01	-4.344645e+02
9.600000e-07	-2.744287e-06	-6.516716e-09	-2.079701e+01	-4.339520e+02
9.700000e-07	-2.736727e-06	-6.512428e-09	-2.073972e+01	-4.334308e+02
9.800000e-07	-2.729092e-06	-6.505171e-09	-2.068186e+01	-4.329008e+02
9.900000e-07	-2.721372e-06	-6.490134e-09	-2.062335e+01	-4.323618e+02
1.000000e-06	-2.713581e-06	-6.475766e-09	-2.056431e+01	-4.318139e+02
1.010000e-06	-2.705720e-06	-6.458423e-09	-2.050473e+01	-4.312573e+02
1.020000e-06	-2.697792e-06	-6.453335e-09	-2.044465e+01	-4.306923e+02
1.030000e-06	-2.689779e-06	-6.445288e-09	-2.038393e+01	-4.301193e+02
1.040000e-06	-2.681648e-06	-6.435101e-09	-2.032231e+01	-4.295386e+02
1.050000e-06	-2.673428e-06	-6.426270e-09	-2.026002e+01	-4.289504e+02
1.060000e-06	-2.665155e-06	-6.417404e-09	-2.019732e+01	-4.283549e+02
1.070000e-06	-2.656852e-06	-6.409013e-09	-2.013440e+01	-4.277521e+02
1.080000e-06	-2.648483e-06	-6.391949e-09	-2.007097e+01	-4.271418e+02
1.090000e-06	-2.640032e-06	-6.376452e-09	-2.000693e+01	-4.265236e+02
1.100000e-06	-2.631530e-06	-6.361405e-09	-1.994250e+01	-4.258970e+02
1.110000e-06	-2.622984e-06	-6.351406e-09	-1.987774e+01	-4.252614e+02
1.120000e-06	-2.614382e-06	-6.341074e-09	-1.981255e+01	-4.246158e+02
1.130000e-06	-2.605710e-06	-6.328507e-09	-1.974683e+01	-4.239594e+02
1.140000e-06	-2.596980e-06	-6.320310e-09	-1.968067e+01	-4.232911e+02
1.150000e-06	-2.588183e-06	-6.309401e-09	-1.961401e+01	-4.226100e+02
1.160000e-06	-2.579318e-06	-6.299552e-09	-1.954682e+01	-4.219151e+02
1.170000e-06	-2.570397e-06	-6.283697e-09	-1.947922e+01	-4.212056e+02
1.180000e-06	-2.561421e-06	-6.268010e-09	-1.941120e+01	-4.204807e+02
1.190000e-06	-2.552384e-06	-6.254456e-09	-1.934271e+01	-4.197400e+02
1.200000e-06	-2.543242e-06	-6.239501e-09	-1.927343e+01	-4.189832e+02
1.210000e-06	-2.534011e-06	-6.226800e-09	-1.920347e+01	-4.182104e+02
1.220000e-06	-2.524719e-06	-6.210619e-09	-1.913306e+01	-4.174217e+02
1.230000e-06	-2.515373e-06	-6.197474e-09	-1.906223e+01	-4.166178e+02
1.240000e-06	-2.505971e-06	-6.187165e-09	-1.899098e+01	-4.157994e+02
1.250000e-06	-2.496516e-06	-6.178396e-09	-1.891933e+01	-4.149675e+02
1.260000e-06	-2.487004e-06	-6.164994e-09	-1.884724e+01	-4.141233e+02
1.270000e-06	-2.477413e-06	-6.144017e-09	-1.877455e+01	-4.132681e+02
1.280000e-06	-2.467765e-06	-6.120014e-09	-1.870144e+01	-4.124032e+02
1.290000e-06	-2.458057e-06	-6.097276e-09	-1.862787e+01	-4.115300e+02
1.300000e-06	-2.448294e-06	-6.083272e-09	-1.855389e+01	-4.106500e+02
1.310000e-06	-2.438462e-06	-6.073414e-09	-1.847937e+01	-4.097641e+02
1.320000e-06	-2.428531e-06	-6.065181e-09	-1.840411e+01	-4.088736e+02
1.330000e-06	-2.418515e-06	-6.057592e-09	-1.832821e+01	-4.079793e+02
1.340000e-06	-2.408437e-06	-6.048865e-09	-1.825184e+01	-4.070818e+02
1.350000e-06	-2.398312e-06	-6.036701e-09	-1.817511e+01	-4.061814e+02
1.360000e-06	-2.388144e-06	-6.014915e-09	-1.809805e+01	-4.052785e+02
1.370000e-06	-2.377929e-06	-5.989941e-09	-1.802064e+01	-4.043729e+02
1.380000e-06	-2.367650e-06	-5.970693e-09	-1.794274e+01	-4.034643e+02
1.390000e-06	-2.357311e-06	-5.959188e-09	-1.786439e+01	-4.025524e+02
1.400000e-06	-2.346917e-06	-5.949607e-09	-1.778562e+01	-4.016365e+02
1.410000e-06	-2.336462e-06	-5.938890e-09	-1.770639e+01	-4.007162e+02
1.420000e-06	-2.325955e-06	-5.927916e-09	-1.762676e+01	-3.997909e+02
1.430000e-06	-2.315395e-06	-5.914119e-09	-1.754674e+01	-3.988599e+02
1.440000e-06	-2.304773e-06	-5.899731e-09	-1.746624e+01	-3.979229e+02
1.450000e-06	-2.294074e-06	-5.880927e-09	-1.738516e+01	-3.969796e+02
1.460000e-06	-2.283287e-06	-5.861024e-09	-1.730341e+01	-3.960298e+02
1.470000e-06	-2.272423e-06	-5.845971e-09	-1.722108e+01	-3.950736e+02
1.480000e-06	-2.261515e-06	-5.835120e-09	-1.713842e+01	-3.941113e+02
1.490000e-06	-2.250574e-06	-5.825103e-09	-1.705551e+01	-3.931433e+02
1.500000e-06	-2.239583e-06	-5.809686e-09	-1.697221e+01	-3.921702e+02
1.510000e-06	-2.228529e-06	-5.791076e-09	-1.688844e+01	-3.911928e+02
1.520000e-06	-2.217417e-06	-5.773198e-09	-1.680423e+01	-3.902119e+02
1.530000e-06	-2.206253e-06	-5.758959e-09	-1.671963e+01	-3.892282e+02
1.540000e-06	-2.195031e-06	-5.744898e-09	-1.663458e+01	-3.882427e+02
1.550000e-06	-2.183761e-06	-5.724736e-09	-1.654918e+01	-3.872559e+02
1.560000e-06	-2.172458e-06	-5.706563e-09	-1.646352e+01	-3.862684e+02
1.570000e-06	-2.161110e-06	-5.690080e-09	-1.637752e+01	-3.852804e+02
1.580000e-06	-2.149697e-06	-5.675852e-09	-1.629103e+01	-3.842921e+02
1.590000e-06	-2.138188e-06	-5.659765e-09	-1.620381e+01	-3.833032e+02
1.600000e-06	-2.126579e-06	-5.643352e-09	-1.611583e+01	-3.823131e+02
1.610000e-06	-2.114916e-06	-5.634568e-09	-1.602745e+01	-3.813209e+02
1.620000e-06	-2.103208e-06	-5.622876e-09	-1.593872e+01	-3.803255e+02
1.630000e-06	-2.091438e-06	-5.608193e-09	-1.584953e+01	-3.793254e+02
1.640000e-06	-2.079609e-06	-5.588778e-09	-1.575988e+01	-3.783189e+02
1.650000e-06	-2.067729e-06	-5.568624e-09	-1.566985e+01	-3.773042e+02
1.660000e-06	-2.055800e-06	-5.549204e-09	-1.557945e+01	-3.762793e+02
1.670000e-06	-2.043813e-06	-5.527445e-09	-1.548861e+01	-3.752424e+02
1.680000e-06	-2.031774e-06	-5.509898e-09	-1.539737e+01	-3.741914e+02
1.690000e-06	-2.019693e-06	-5.496032e-09	-1.530583e+01	-3.731247e+02
1.700000e-06	-2.007570e-06	-5.486651e-09	-1.521395e+01	-3.720406e+02
1.710000e-06	-1.995397e-06	-5.473313e-09	-1.512170e+01	-3.709377e+02
1.720000e-06	-1.983175e-06	-5.452403e-09	-1.502908e+01	-3.698152e+02
1.730000e-06	-1.970902e-06	-5.431714e-09	-1.493607e+01	-3.686723e+02
1.740000e-06	-1.958551e-06	-5.409371e-09	-1.484247e+01	-3.675086e+02
1.750000e-06	-1.946128e-06	-5.389170e-09	-1.474832e+01	-3.663243e+02
1.760000e-06	-1.933658e-06	-5.367521e-09	-1.465382e+01	-3.651198e+02
1.770000e-06	-1.921150e-06	-5.348018e-09	-1.455903e+01	-3.638958e+02
1.780000e-06	-1.908609e-06	-5.331531e-09	-1.446400e+01	-3.626532e+02
1.790000e-06	-1.896031e-06	-5.315005e-09	-1.436867e+01	-3.613933e+02
1.800000e-06	-1.883406e-06	-5.300354e-09	-1.427300e+01	-3.601174e+02
1.810000e-06	-1.870730e-06	-5.280059e-09	-1.417693e+01	-3.588269e+02
1.820000e-06	-1.857998e-06	-5.255829e-09	-1.408045e+01	-3.575234e+02
1.830000e-06	-1.845220e-06	-5.230982e-09	-1.398361e+01	-3.562081e+02
1.840000e-06	-1.832402e-06	-5.206803e-09	-1.388647e+01	-3.548824e+02
1.850000e-06	-1.819532e-06	-5.184067e-09	-1.378894e+01	-3.535473e+02
1.860000e-06	-1.806621e-06	-5.162606e-09	-1.369110e+01	-3.522037e+02
1.870000e-06	-1.793679e-06	-5.146944e-09	-1.359302e+01	-3.508523e+02
1.880000e-06	-1.780692e-06	-5.131284e-09	-1.349460e+01	-3.494934e+02
1.890000e-06	-1.767657e-06	-5.111307e-09	-1.339582e+01	-3.481272e+02
1.900000e-06	-1.754562e-06	-5.083843e-09	-1.329659e+01	-3.467536e+02
1.910000e-06	-1.741403e-06	-5.054378e-09	-1.319686e+01	-3.453724e+02
1.920000e-06	-1.728179e-06	-5.028938e-09	-1.309664e+01	-3.439830e+02
1.930000e-06	-1.714898e-06	-5.006107e-09	-1.299599e+01	-3.425850e+02
1.940000e-06	-1.701589e-06	-4.985383e-09	-1.289513e+01	-3.411778e+02
1.950000e-06	-1.688260e-06	-4.963096e-09	-1.279413e+01	-3.397609e+02
1.960000e-06	-1.674902e-06	-4.944545e-09	-1.269289e+01	-3.383336e+02
1.970000e-06	-1.661497e-06	-4.926522e-09	-1.259131e+01	-3.368955e+02
1.980000e-06	-1.648046e-06	-4.902525e-09	-1.248937e+01	-3.354466e+02
1.990000e-06	-1.634561e-06	-4.873423e-09	-1.238718e+01	-3.339866e+02
2.000000e-06	-1.621031e-06	-4.846727e-09	-1.228465e+01	-3.325157e+02
2.010000e-06	-1.607458e-06	-4.825231e-09	-1.218178e+01	-3.310343e+02
2.020000e-06	-1.593848e-06	-4.806544e-09	-1.207864e+01	-3.295429e+02
2.030000e-06	-1.580195e-06	-4.785361e-09	-1.197518e+01	-3.280423e+02
2.040000e-06	-1.566494e-06	-4.762451e-09	-1.187135e+01	-3.265335e+02
2.050000e-06	-1.552759e-06	-4.741640e-09	-1.176726e+01	-3.250174e+02
2.060000e-06	-1.539010e-06	-4.719910e-09	-1.166306e+01	-3.234952e+02
2.070000e-06	-1.525228e-06	-4.695741e-09	-1.155862e+01	-3.219681e+02
2.080000e-06	-1.511385e-06	-4.670728e-09	-1.145372e+01	-3.204372e+02
2.090000e-06	-1.497480e-06	-4.649406e-09	-1.134834e+01	-3.189036e+02
2.100000e-06	-1.483518e-06	-4.630758e-09	-1.124253e+01	-3.173682e+02
2.110000e-06	-1.469503e-06	-4.606410e-09	-1.113632e+01	-3.158319e+02
2.120000e-06	-1.455447e-06	-4.577382e-09	-1.102980e+01	-3.142953e+02
2.130000e-06	-1.441357e-06	-4.551468e-09	-1.092302e+01	-3.127590e+02
2.140000e-06	-1.427232e-06	-4.530068e-09	-1.081598e+01	-3.112232e+02
2.150000e-06	-1.413069e-06	-4.509676e-09	-1.070865e+01	-3.096878e+02
2.160000e-06	-1.398866e-06	-4.487447e-09	-1.060102e+01	-3.081530e+02
2.170000e-06	-1.384635e-06	-4.464406e-09	-1.049317e+01	-3.066182e+02
2.180000e-06	-1.370365e-06	-4.441215e-09	-1.038503e+01	-3.050832e+02
2.190000e-06	-1.356060e-06	-4.420058e-09	-1.027662e+01	-3.035473e+02
2.200000e-06	-1.341716e-06	-4.400424e-09	-1.016791e+01	-3.020100e+02
2.210000e-06	-1.327323e-06	-4.378809e-09	-1.005884e+01	-3.004706e+02
2.220000e-06	-1.312895e-06	-4.355052e-09	-9.949501e+00	-2.989285e+02
2.230000e-06	-1.298421e-06	-4.330708e-09	-9.839810e+00	-2.973830e+02
2.240000e-06	-1.283916e-06	-4.308765e-09	-9.729890e+00	-2.958336e+02
2.250000e-06	-1.269370e-06	-4.289509e-09	-9.619653e+00	-2.942797e+02
2.260000e-06	-1.254778e-06	-4.269625e-09	-9.509070e+00	-2.927210e+02
2.270000e-06	-1.240153e-06	-4.248544e-09	-9.398237e+00	-2.911570e+02
2.280000e-06	-1.225488e-06	-4.228255e-09	-9.287101e+00	-2.895874e+02
2.290000e-06	-1.210806e-06	-4.208035e-09	-9.175841e+00	-2.880120e+02
2.300000e-06	-1.196115e-06	-4.183947e-09	-9.064510e+00	-2.864305e+02
2.310000e-06	-1.181401e-06	-4.157578e-09	-8.953002e+00	-2.848428e+02
2.320000e-06	-1.166665e-06	-4.130233e-09	-8.841325e+00	-2.832485e+02
2.330000e-06	-1.151904e-06	-4.104509e-09	-8.729465e+00	-2.816475e+02
2.340000e-06	-1.137094e-06	-4.082434e-09	-8.617229e+00	-2.800393e+02
2.350000e-06	-1.122234e-06	-4.058638e-09	-8.504614e+00	-2.784236e+02
2.360000e-06	-1.107354e-06	-4.035511e-09	-8.391852e+00	-2.767997e+02
2.370000e-06	-1.092467e-06	-4.016704e-09	-8.279033e+00	-2.751670e+02
2.380000e-06	-1.077560e-06	-3.999073e-09	-8.166064e+00	-2.735247e+02
2.390000e-06	-1.062630e-06	-3.977913e-09	-8.052919e+00	-2.718719e+02
2.400000e-06	-1.047685e-06	-3.950636e-09	-7.939661e+00	-2.702078e+02
2.410000e-06	-1.032716e-06	-3.919297e-09	-7.826224e+00	-2.685311e+02
2.420000e-06	-1.017716e-06	-3.890404e-09	-7.712548e+00	-2.668410e+02
2.430000e-06	-1.002688e-06	-3.864986e-09	-7.598659e+00	-2.651362e+02
2.440000e-06	-9.876275e-07	-3.840225e-09	-7.484529e+00	-2.634158e+02
2.450000e-06	-9.725495e-07	-3.815689e-09	-7.370264e+00	-2.616788e+02
2.460000e-06	-9.574559e-07	-3.791481e-09	-7.255880e+00	-2.599243e+02
2.470000e-06	-9.423367e-07	-3.767237e-09	-7.141302e+00	-2.581517e+02
2.480000e-06	-9.272030e-07	-3.739685e-09	-7.026615e+00	-2.563603e+02
2.490000e-06	-9.120495e-07	-3.710806e-09	-6.911777e+00	-2.545498e+02
2.500000e-06	-8.968650e-07	-3.684225e-09	-6.796704e+00	-2.527200e+02
2.510000e-06	-8.816617e-07	-3.660562e-09	-6.681490e+00	-2.508710e+02
2.520000e-06	-8.664327e-07	-3.636187e-09	-6.566079e+00	-2.490031e+02
2.530000e-06	-8.511776e-07	-3.607139e-09	-6.450472e+00	-2.471166e+02
2.540000e-06	-8.359187e-07	-3.575470e-09	-6.334835e+00	-2.452123e+02
2.550000e-06	-8.206348e-07	-3.547153e-09	-6.219009e+00	-2.432908e+02
2.560000e-06	-8.053118e-07	-3.521646e-09	-6.102887e+00	-2.413530e+02
2.570000e-06	-7.899699e-07	-3.496136e-09	-5.986622e+00	-2.394001e+02
2.580000e-06	-7.746162e-07	-3.469172e-09	-5.870267e+00	-2.374329e+02
2.590000e-06	-7.592443e-07	-3.439168e-09	-5.753775e+00	-2.354525e+02
2.600000e-06	-7.438453e-07	-3.409360e-09	-5.637076e+00	-2.334600e+02
2.610000e-06	-7.284174e-07	-3.378479e-09	-5.520159e+00	-2.314565e+02
2.620000e-06	-7.129647e-07	-3.345172e-09	-5.403054e+00	-2.294428e+02
2.630000e-06	-6.974858e-07	-3.310962e-09	-5.285751e+00	-2.274198e+02
2.640000e-06	-6.819805e-07	-3.280044e-09	-5.168247e+00	-2.253883e+02
2.650000e-06	-6.664488e-07	-3.252988e-09	-5.050543e+00	-2.233491e+02
2.660000e-06	-6.508949e-07	-3.225599e-09	-4.932672e+00	-2.213026e+02
2.670000e-06	-6.353188e-07	-3.196333e-09	-4.814631e+00	-2.192494e+02
2.680000e-06	-6.197057e-07	-3.167015e-09	-4.696310e+00	-2.171899e+02
2.690000e-06	-6.040705e-07	-3.137125e-09	-4.577822e+00	-2.151245e+02
2.700000e-06	-5.884219e-07	-3.105556e-09	-4.459233e+00	-2.130533e+02
2.710000e-06	-5.727594e-07	-3.074115e-09	-4.340538e+00	-2.109767e+02
2.720000e-06	-5.570805e-07	-3.041738e-09	-4.221718e+00	-2.088947e+02
2.730000e-06	-5.413852e-07	-3.011789e-09	-4.102775e+00	-2.068076e+02
2.740000e-06	-5.256876e-07	-2.982683e-09	-3.983814e+00	-2.047155e+02
2.750000e-06	-5.099823e-07	-2.952678e-09	-3.864794e+00	-2.026183e+02
2.760000e-06	-4.942694e-07	-2.923800e-09	-3.745717e+00	-2.005163e+02
2.770000e-06	-4.785497e-07	-2.894496e-09	-3.626589e+00	-1.984094e+02
2.780000e-06	-4.628131e-07	-2.866020e-09	-3.507333e+00	-1.962975e+02
2.790000e-06	-4.470730e-07	-2.838935e-09	-3.388050e+00	-1.941808e+02
2.800000e-06	-4.313303e-07	-2.811295e-09	-3.268747e+00	-1.920589e+02
2.810000e-06	-4.155764e-07	-2.781673e-09	-3.149359e+00	-1.899318e+02
2.820000e-06	-3.998068e-07	-2.750951e-09	-3.029852e+00	-1.877992e+02
2.830000e-06	-3.840254e-07	-2.717881e-09	-2.910256e+00	-1.856607e+02
2.840000e-06	-3.682445e-07	-2.682860e-09	-2.790664e+00	-1.835159e+02
2.850000e-06	-3.524583e-07	-2.651363e-09	-2.671031e+00	-1.813642e+02
