# Temperatura_=_20.0
# Concentracion g/m^3_=_10000.0
# C_Vs_to_Am_M_A/Vsm_=_65563218390.804596
# pendiente_HvsI_1/m_=_3716.3
# ordenada_HvsI_A/m_=_1297.0
# frecuencia_Hz_=_81163.88438961077

Tiempo_(s)	Campo_(V.s)	Magnetizacion_(V.s)	Campo_(kA/m)	Magnetizacion_(A/m)
0.000000e+00	-3.108935e-06	-6.990600e-09	-2.355847e+01	-4.541572e+02
1.000000e-08	-3.108929e-06	-6.981825e-09	-2.355843e+01	-4.541719e+02
2.000000e-08	-3.109046e-06	-6.958760e-09	-2.355932e+01	-4.541657e+02
3.000000e-08	-3.109096e-06	-6.977944e-09	-2.355969e+01	-4.541403e+02
4.000000e-08	-3.108971e-06	-6.975194e-09	-2.355875e+01	-4.540974e+02
5.000000e-08	-3.108695e-06	-6.944214e-09	-2.355666e+01	-4.540388e+02
6.000000e-08	-3.108314e-06	-6.949718e-09	-2.355377e+01	-4.539660e+02
7.000000e-08	-3.107835e-06	-6.964128e-09	-2.355014e+01	-4.538805e+02
8.000000e-08	-3.107223e-06	-6.949832e-09	-2.354551e+01	-4.537838e+02
9.000000e-08	-3.106520e-06	-6.932784e-09	-2.354018e+01	-4.536769e+02
1.000000e-07	-3.105770e-06	-6.938835e-09	-2.353450e+01	-4.535608e+02
1.100000e-07	-3.105050e-06	-6.947805e-09	-2.352904e+01	-4.534363e+02
1.200000e-07	-3.104245e-06	-6.941739e-09	-2.352294e+01	-4.533040e+02
1.300000e-07	-3.103329e-06	-6.946377e-09	-2.351599e+01	-4.531643e+02
1.400000e-07	-3.102328e-06	-6.947740e-09	-2.350841e+01	-4.530175e+02
1.500000e-07	-3.101237e-06	-6.935079e-09	-2.350014e+01	-4.528639e+02
1.600000e-07	-3.100056e-06	-6.918608e-09	-2.349119e+01	-4.527038e+02
1.700000e-07	-3.098759e-06	-6.902786e-09	-2.348136e+01	-4.525374e+02
1.800000e-07	-3.097445e-06	-6.901871e-09	-2.347141e+01	-4.523649e+02
1.900000e-07	-3.096038e-06	-6.906040e-09	-2.346075e+01	-4.521869e+02
2.000000e-07	-3.094480e-06	-6.905066e-09	-2.344894e+01	-4.520038e+02
2.100000e-07	-3.092773e-06	-6.907017e-09	-2.343601e+01	-4.518163e+02
2.200000e-07	-3.090990e-06	-6.912661e-09	-2.342250e+01	-4.516252e+02
2.300000e-07	-3.089197e-06	-6.908556e-09	-2.340891e+01	-4.514314e+02
2.400000e-07	-3.087307e-06	-6.887445e-09	-2.339459e+01	-4.512362e+02
2.500000e-07	-3.085336e-06	-6.871015e-09	-2.337965e+01	-4.510407e+02
2.600000e-07	-3.083284e-06	-6.862738e-09	-2.336410e+01	-4.508463e+02
2.700000e-07	-3.081155e-06	-6.868893e-09	-2.334797e+01	-4.506544e+02
2.800000e-07	-3.078957e-06	-6.872595e-09	-2.333131e+01	-4.504662e+02
2.900000e-07	-3.076672e-06	-6.865151e-09	-2.331400e+01	-4.502833e+02
3.000000e-07	-3.074320e-06	-6.860140e-09	-2.329618e+01	-4.501067e+02
3.100000e-07	-3.071892e-06	-6.858200e-09	-2.327778e+01	-4.499377e+02
3.200000e-07	-3.069416e-06	-6.858400e-09	-2.325901e+01	-4.497771e+02
3.300000e-07	-3.066874e-06	-6.850042e-09	-2.323975e+01	-4.496256e+02
3.400000e-07	-3.064265e-06	-6.840629e-09	-2.321998e+01	-4.494838e+02
3.500000e-07	-3.061545e-06	-6.832470e-09	-2.319937e+01	-4.493519e+02
3.600000e-07	-3.058678e-06	-6.827999e-09	-2.317764e+01	-4.492297e+02
3.700000e-07	-3.055737e-06	-6.828057e-09	-2.315536e+01	-4.491170e+02
3.800000e-07	-3.052739e-06	-6.830017e-09	-2.313264e+01	-4.490131e+02
3.900000e-07	-3.049674e-06	-6.833527e-09	-2.310942e+01	-4.489172e+02
4.000000e-07	-3.046522e-06	-6.837760e-09	-2.308553e+01	-4.488284e+02
4.100000e-07	-3.043310e-06	-6.841423e-09	-2.306119e+01	-4.487453e+02
4.200000e-07	-3.040043e-06	-6.834240e-09	-2.303644e+01	-4.486667e+02
4.300000e-07	-3.036713e-06	-6.817860e-09	-2.301120e+01	-4.485909e+02
4.400000e-07	-3.033311e-06	-6.809068e-09	-2.298543e+01	-4.485166e+02
4.500000e-07	-3.029800e-06	-6.810902e-09	-2.295882e+01	-4.484421e+02
4.600000e-07	-3.026179e-06	-6.813048e-09	-2.293138e+01	-4.483658e+02
4.700000e-07	-3.022465e-06	-6.809811e-09	-2.290323e+01	-4.482862e+02
4.800000e-07	-3.018692e-06	-6.807115e-09	-2.287465e+01	-4.482018e+02
4.900000e-07	-3.014862e-06	-6.808381e-09	-2.284562e+01	-4.481110e+02
5.000000e-07	-3.010939e-06	-6.805017e-09	-2.281589e+01	-4.480125e+02
5.100000e-07	-3.006936e-06	-6.793573e-09	-2.278556e+01	-4.479048e+02
5.200000e-07	-3.002858e-06	-6.781134e-09	-2.275466e+01	-4.477868e+02
5.300000e-07	-2.998719e-06	-6.778353e-09	-2.272330e+01	-4.476571e+02
5.400000e-07	-2.994511e-06	-6.782216e-09	-2.269141e+01	-4.475144e+02
5.500000e-07	-2.990196e-06	-6.784364e-09	-2.265871e+01	-4.473578e+02
5.600000e-07	-2.985771e-06	-6.782652e-09	-2.262518e+01	-4.471858e+02
5.700000e-07	-2.981265e-06	-6.777471e-09	-2.259104e+01	-4.469976e+02
5.800000e-07	-2.976723e-06	-6.771616e-09	-2.255662e+01	-4.467918e+02
5.900000e-07	-2.972097e-06	-6.764281e-09	-2.252157e+01	-4.465674e+02
6.000000e-07	-2.967377e-06	-6.755217e-09	-2.248580e+01	-4.463233e+02
6.100000e-07	-2.962569e-06	-6.749476e-09	-2.244936e+01	-4.460586e+02
6.200000e-07	-2.957692e-06	-6.748733e-09	-2.241241e+01	-4.457722e+02
6.300000e-07	-2.952772e-06	-6.747925e-09	-2.237512e+01	-4.454633e+02
6.400000e-07	-2.947746e-06	-6.741489e-09	-2.233704e+01	-4.451313e+02
6.500000e-07	-2.942593e-06	-6.731245e-09	-2.229800e+01	-4.447754e+02
6.600000e-07	-2.937338e-06	-6.720031e-09	-2.225817e+01	-4.443953e+02
6.700000e-07	-2.932009e-06	-6.710551e-09	-2.221779e+01	-4.439908e+02
6.800000e-07	-2.926591e-06	-6.702840e-09	-2.217674e+01	-4.435620e+02
6.900000e-07	-2.921080e-06	-6.693892e-09	-2.213498e+01	-4.431091e+02
7.000000e-07	-2.915509e-06	-6.683676e-09	-2.209276e+01	-4.426327e+02
7.100000e-07	-2.909876e-06	-6.674792e-09	-2.205008e+01	-4.421336e+02
7.200000e-07	-2.904197e-06	-6.668755e-09	-2.200704e+01	-4.416129e+02
7.300000e-07	-2.898467e-06	-6.660839e-09	-2.196362e+01	-4.410719e+02
7.400000e-07	-2.892656e-06	-6.649045e-09	-2.191958e+01	-4.405120e+02
7.500000e-07	-2.886727e-06	-6.632225e-09	-2.187466e+01	-4.399351e+02
7.600000e-07	-2.880690e-06	-6.617211e-09	-2.182891e+01	-4.393430e+02
7.700000e-07	-2.874593e-06	-6.603399e-09	-2.178271e+01	-4.387376e+02
7.800000e-07	-2.868428e-06	-6.590520e-09	-2.173600e+01	-4.381210e+02
7.900000e-07	-2.862191e-06	-6.583121e-09	-2.168873e+01	-4.374952e+02
8.000000e-07	-2.855886e-06	-6.575224e-09	-2.164095e+01	-4.368621e+02
8.100000e-07	-2.849510e-06	-6.565127e-09	-2.159264e+01	-4.362236e+02
8.200000e-07	-2.843064e-06	-6.551934e-09	-2.154379e+01	-4.355816e+02
8.300000e-07	-2.836555e-06	-6.534374e-09	-2.149447e+01	-4.349377e+02
8.400000e-07	-2.829975e-06	-6.517035e-09	-2.144461e+01	-4.342933e+02
8.500000e-07	-2.823294e-06	-6.503896e-09	-2.139399e+01	-4.336496e+02
8.600000e-07	-2.816543e-06	-6.496371e-09	-2.134282e+01	-4.330078e+02
8.700000e-07	-2.809714e-06	-6.491504e-09	-2.129108e+01	-4.323687e+02
8.800000e-07	-2.802809e-06	-6.485359e-09	-2.123875e+01	-4.317331e+02
8.900000e-07	-2.795847e-06	-6.474780e-09	-2.118600e+01	-4.311014e+02
9.000000e-07	-2.788809e-06	-6.461715e-09	-2.113267e+01	-4.304742e+02
9.100000e-07	-2.781710e-06	-6.448973e-09	-2.107888e+01	-4.298518e+02
9.200000e-07	-2.774542e-06	-6.438029e-09	-2.102456e+01	-4.292343e+02
9.300000e-07	-2.767300e-06	-6.428482e-09	-2.096968e+01	-4.286220e+02
9.400000e-07	-2.760006e-06	-6.416891e-09	-2.091441e+01	-4.280152e+02
9.500000e-07	-2.752652e-06	-6.404338e-09	-2.085868e+01	-4.274138e+02
9.600000e-07	-2.745196e-06	-6.388842e-09	-2.080218e+01	-4.268183e+02
9.700000e-07	-2.737642e-06	-6.375380e-09	-2.074495e+01	-4.262286e+02
9.800000e-07	-2.730016e-06	-6.366625e-09	-2.068716e+01	-4.256451e+02
9.900000e-07	-2.722308e-06	-6.360379e-09	-2.062875e+01	-4.250679e+02
1.000000e-06	-2.714527e-06	-6.354359e-09	-2.056978e+01	-4.244972e+02
1.010000e-06	-2.706669e-06	-6.345248e-09	-2.051024e+01	-4.239331e+02
1.020000e-06	-2.698742e-06	-6.334263e-09	-2.045017e+01	-4.233757e+02
1.030000e-06	-2.690715e-06	-6.321547e-09	-2.038934e+01	-4.228249e+02
1.040000e-06	-2.682599e-06	-6.309413e-09	-2.032784e+01	-4.222804e+02
1.050000e-06	-2.674410e-06	-6.298724e-09	-2.026579e+01	-4.217420e+02
1.060000e-06	-2.666142e-06	-6.287575e-09	-2.020314e+01	-4.212089e+02
1.070000e-06	-2.657831e-06	-6.278446e-09	-2.014016e+01	-4.206803e+02
1.080000e-06	-2.649448e-06	-6.273774e-09	-2.007664e+01	-4.201553e+02
1.090000e-06	-2.640996e-06	-6.266806e-09	-2.001259e+01	-4.196324e+02
1.100000e-06	-2.632503e-06	-6.256129e-09	-1.994824e+01	-4.191103e+02
1.110000e-06	-2.623954e-06	-6.245097e-09	-1.988345e+01	-4.185871e+02
1.120000e-06	-2.615345e-06	-6.234645e-09	-1.981822e+01	-4.180610e+02
1.130000e-06	-2.606678e-06	-6.225514e-09	-1.975254e+01	-4.175300e+02
1.140000e-06	-2.597943e-06	-6.213913e-09	-1.968635e+01	-4.169919e+02
1.150000e-06	-2.589141e-06	-6.201309e-09	-1.961965e+01	-4.164446e+02
1.160000e-06	-2.580276e-06	-6.191387e-09	-1.955248e+01	-4.158861e+02
1.170000e-06	-2.571356e-06	-6.184255e-09	-1.948489e+01	-4.153142e+02
1.180000e-06	-2.562383e-06	-6.177763e-09	-1.941689e+01	-4.147272e+02
1.190000e-06	-2.553347e-06	-6.169309e-09	-1.934842e+01	-4.141233e+02
1.200000e-06	-2.544210e-06	-6.158187e-09	-1.927918e+01	-4.135011e+02
1.210000e-06	-2.534980e-06	-6.142938e-09	-1.920924e+01	-4.128594e+02
1.220000e-06	-2.525692e-06	-6.126664e-09	-1.913886e+01	-4.121973e+02
1.230000e-06	-2.516355e-06	-6.112083e-09	-1.906811e+01	-4.115143e+02
1.240000e-06	-2.506960e-06	-6.098268e-09	-1.899691e+01	-4.108101e+02
1.250000e-06	-2.497503e-06	-6.086937e-09	-1.892525e+01	-4.100845e+02
1.260000e-06	-2.487983e-06	-6.074754e-09	-1.885311e+01	-4.093379e+02
1.270000e-06	-2.478403e-06	-6.059859e-09	-1.878051e+01	-4.085707e+02
1.280000e-06	-2.468783e-06	-6.041571e-09	-1.870762e+01	-4.077834e+02
1.290000e-06	-2.459101e-06	-6.020465e-09	-1.863425e+01	-4.069769e+02
1.300000e-06	-2.449355e-06	-6.001960e-09	-1.856040e+01	-4.061517e+02
1.310000e-06	-2.439543e-06	-5.986748e-09	-1.848605e+01	-4.053088e+02
1.320000e-06	-2.429635e-06	-5.974387e-09	-1.841097e+01	-4.044488e+02
1.330000e-06	-2.419630e-06	-5.963436e-09	-1.833516e+01	-4.035723e+02
1.340000e-06	-2.409553e-06	-5.952009e-09	-1.825879e+01	-4.026799e+02
1.350000e-06	-2.399446e-06	-5.939955e-09	-1.818220e+01	-4.017720e+02
1.360000e-06	-2.389298e-06	-5.925948e-09	-1.810531e+01	-4.008488e+02
1.370000e-06	-2.379089e-06	-5.907290e-09	-1.802795e+01	-3.999105e+02
1.380000e-06	-2.368821e-06	-5.885894e-09	-1.795014e+01	-3.989569e+02
1.390000e-06	-2.358478e-06	-5.867273e-09	-1.787176e+01	-3.979879e+02
1.400000e-06	-2.348072e-06	-5.852644e-09	-1.779291e+01	-3.970036e+02
1.410000e-06	-2.337624e-06	-5.837971e-09	-1.771374e+01	-3.960035e+02
1.420000e-06	-2.327125e-06	-5.820604e-09	-1.763418e+01	-3.949877e+02
1.430000e-06	-2.316570e-06	-5.803414e-09	-1.755420e+01	-3.939561e+02
1.440000e-06	-2.305958e-06	-5.789432e-09	-1.747379e+01	-3.929089e+02
1.450000e-06	-2.295278e-06	-5.777311e-09	-1.739286e+01	-3.918462e+02
1.460000e-06	-2.284507e-06	-5.759327e-09	-1.731124e+01	-3.907688e+02
1.470000e-06	-2.273647e-06	-5.737048e-09	-1.722894e+01	-3.896773e+02
1.480000e-06	-2.262731e-06	-5.720987e-09	-1.714622e+01	-3.885729e+02
1.490000e-06	-2.251784e-06	-5.707438e-09	-1.706327e+01	-3.874569e+02
1.500000e-06	-2.240790e-06	-5.688728e-09	-1.697996e+01	-3.863309e+02
1.510000e-06	-2.229734e-06	-5.667390e-09	-1.689619e+01	-3.851966e+02
1.520000e-06	-2.218637e-06	-5.648659e-09	-1.681210e+01	-3.840561e+02
1.530000e-06	-2.207490e-06	-5.631457e-09	-1.672763e+01	-3.829114e+02
1.540000e-06	-2.196276e-06	-5.614552e-09	-1.664265e+01	-3.817648e+02
1.550000e-06	-2.185012e-06	-5.597168e-09	-1.655730e+01	-3.806184e+02
1.560000e-06	-2.173717e-06	-5.578095e-09	-1.647171e+01	-3.794743e+02
1.570000e-06	-2.162379e-06	-5.560085e-09	-1.638579e+01	-3.783345e+02
1.580000e-06	-2.150970e-06	-5.542713e-09	-1.629934e+01	-3.772005e+02
1.590000e-06	-2.139466e-06	-5.524142e-09	-1.621216e+01	-3.760740e+02
1.600000e-06	-2.127867e-06	-5.509004e-09	-1.612427e+01	-3.749559e+02
1.610000e-06	-2.116201e-06	-5.498229e-09	-1.603587e+01	-3.738471e+02
1.620000e-06	-2.104487e-06	-5.485548e-09	-1.594711e+01	-3.727478e+02
1.630000e-06	-2.092731e-06	-5.466238e-09	-1.585802e+01	-3.716582e+02
1.640000e-06	-2.080920e-06	-5.445273e-09	-1.576852e+01	-3.705777e+02
1.650000e-06	-2.069050e-06	-5.429363e-09	-1.567857e+01	-3.695057e+02
1.660000e-06	-2.057139e-06	-5.413155e-09	-1.558832e+01	-3.684411e+02
1.670000e-06	-2.045181e-06	-5.392557e-09	-1.549770e+01	-3.673826e+02
1.680000e-06	-2.033159e-06	-5.372606e-09	-1.540661e+01	-3.663286e+02
1.690000e-06	-2.021087e-06	-5.360123e-09	-1.531512e+01	-3.652777e+02
1.700000e-06	-2.008985e-06	-5.349099e-09	-1.522342e+01	-3.642280e+02
1.710000e-06	-1.996853e-06	-5.330722e-09	-1.513149e+01	-3.631778e+02
1.720000e-06	-1.984665e-06	-5.310070e-09	-1.503914e+01	-3.621256e+02
1.730000e-06	-1.972390e-06	-5.296148e-09	-1.494612e+01	-3.610699e+02
1.740000e-06	-1.960026e-06	-5.286314e-09	-1.485243e+01	-3.600092e+02
1.750000e-06	-1.947599e-06	-5.268610e-09	-1.475826e+01	-3.589425e+02
1.760000e-06	-1.935121e-06	-5.243623e-09	-1.466371e+01	-3.578687e+02
1.770000e-06	-1.922603e-06	-5.221556e-09	-1.456885e+01	-3.567872e+02
1.780000e-06	-1.910053e-06	-5.205814e-09	-1.447375e+01	-3.556973e+02
1.790000e-06	-1.897460e-06	-5.187816e-09	-1.437832e+01	-3.545988e+02
1.800000e-06	-1.884823e-06	-5.165724e-09	-1.428256e+01	-3.534913e+02
1.810000e-06	-1.872154e-06	-5.146269e-09	-1.418656e+01	-3.523747e+02
1.820000e-06	-1.859438e-06	-5.132722e-09	-1.409021e+01	-3.512489e+02
1.830000e-06	-1.846666e-06	-5.121312e-09	-1.399342e+01	-3.501138e+02
1.840000e-06	-1.833829e-06	-5.101471e-09	-1.389615e+01	-3.489692e+02
1.850000e-06	-1.820953e-06	-5.078279e-09	-1.379858e+01	-3.478148e+02
1.860000e-06	-1.808049e-06	-5.058741e-09	-1.370080e+01	-3.466503e+02
1.870000e-06	-1.795103e-06	-5.039756e-09	-1.360270e+01	-3.454749e+02
1.880000e-06	-1.782122e-06	-5.018436e-09	-1.350433e+01	-3.442881e+02
1.890000e-06	-1.769091e-06	-4.993775e-09	-1.340558e+01	-3.430887e+02
1.900000e-06	-1.755982e-06	-4.970025e-09	-1.330625e+01	-3.418757e+02
1.910000e-06	-1.742802e-06	-4.948519e-09	-1.320638e+01	-3.406478e+02
1.920000e-06	-1.729571e-06	-4.931092e-09	-1.310612e+01	-3.394036e+02
1.930000e-06	-1.716295e-06	-4.915637e-09	-1.300552e+01	-3.381416e+02
1.940000e-06	-1.702990e-06	-4.898710e-09	-1.290469e+01	-3.368603e+02
1.950000e-06	-1.689667e-06	-4.877834e-09	-1.280373e+01	-3.355583e+02
1.960000e-06	-1.676310e-06	-4.853220e-09	-1.270252e+01	-3.342343e+02
1.970000e-06	-1.662909e-06	-4.825690e-09	-1.260097e+01	-3.328872e+02
1.980000e-06	-1.649468e-06	-4.794919e-09	-1.249912e+01	-3.315159e+02
1.990000e-06	-1.635978e-06	-4.767561e-09	-1.239690e+01	-3.301199e+02
2.000000e-06	-1.622440e-06	-4.748048e-09	-1.229431e+01	-3.286988e+02
2.010000e-06	-1.608860e-06	-4.732209e-09	-1.219141e+01	-3.272528e+02
2.020000e-06	-1.595238e-06	-4.714049e-09	-1.208818e+01	-3.257821e+02
2.030000e-06	-1.581581e-06	-4.693200e-09	-1.198470e+01	-3.242875e+02
2.040000e-06	-1.567892e-06	-4.669507e-09	-1.188096e+01	-3.227701e+02
2.050000e-06	-1.554172e-06	-4.645638e-09	-1.177700e+01	-3.212315e+02
2.060000e-06	-1.540420e-06	-4.620883e-09	-1.167279e+01	-3.196732e+02
2.070000e-06	-1.526616e-06	-4.592275e-09	-1.156819e+01	-3.180972e+02
2.080000e-06	-1.512765e-06	-4.563352e-09	-1.146323e+01	-3.165056e+02
2.090000e-06	-1.498865e-06	-4.539615e-09	-1.135790e+01	-3.149006e+02
2.100000e-06	-1.484910e-06	-4.518863e-09	-1.125216e+01	-3.132846e+02
2.110000e-06	-1.470896e-06	-4.496654e-09	-1.114596e+01	-3.116596e+02
2.120000e-06	-1.456832e-06	-4.472389e-09	-1.103939e+01	-3.100279e+02
2.130000e-06	-1.442732e-06	-4.450107e-09	-1.093254e+01	-3.083915e+02
2.140000e-06	-1.428610e-06	-4.430519e-09	-1.082553e+01	-3.067522e+02
2.150000e-06	-1.414458e-06	-4.409218e-09	-1.071829e+01	-3.051115e+02
2.160000e-06	-1.400267e-06	-4.384117e-09	-1.061076e+01	-3.034709e+02
2.170000e-06	-1.386052e-06	-4.355509e-09	-1.050304e+01	-3.018316e+02
2.180000e-06	-1.371801e-06	-4.327056e-09	-1.039506e+01	-3.001942e+02
2.190000e-06	-1.357509e-06	-4.299420e-09	-1.028675e+01	-2.985596e+02
2.200000e-06	-1.343153e-06	-4.274090e-09	-1.017796e+01	-2.969282e+02
2.210000e-06	-1.328765e-06	-4.251562e-09	-1.006894e+01	-2.953002e+02
2.220000e-06	-1.314341e-06	-4.232640e-09	-9.959642e+00	-2.936758e+02
2.230000e-06	-1.299856e-06	-4.216548e-09	-9.849877e+00	-2.920549e+02
2.240000e-06	-1.285322e-06	-4.198116e-09	-9.739742e+00	-2.904377e+02
2.250000e-06	-1.270752e-06	-4.176562e-09	-9.629336e+00	-2.888239e+02
2.260000e-06	-1.256168e-06	-4.150428e-09	-9.518824e+00	-2.872137e+02
2.270000e-06	-1.241560e-06	-4.121736e-09	-9.408129e+00	-2.856070e+02
2.280000e-06	-1.226918e-06	-4.095501e-09	-9.297180e+00	-2.840039e+02
2.290000e-06	-1.212248e-06	-4.072451e-09	-9.186017e+00	-2.824045e+02
2.300000e-06	-1.197556e-06	-4.050788e-09	-9.074679e+00	-2.808090e+02
2.310000e-06	-1.182834e-06	-4.033725e-09	-8.963125e+00	-2.792176e+02
2.320000e-06	-1.168079e-06	-4.019625e-09	-8.851317e+00	-2.776306e+02
2.330000e-06	-1.153297e-06	-4.002337e-09	-8.739300e+00	-2.760481e+02
2.340000e-06	-1.138495e-06	-3.982183e-09	-8.627141e+00	-2.744705e+02
2.350000e-06	-1.123662e-06	-3.959450e-09	-8.514740e+00	-2.728978e+02
2.360000e-06	-1.108787e-06	-3.934697e-09	-8.402023e+00	-2.713300e+02
2.370000e-06	-1.093889e-06	-3.908247e-09	-8.289130e+00	-2.697670e+02
2.380000e-06	-1.078977e-06	-3.883946e-09	-8.176133e+00	-2.682083e+02
2.390000e-06	-1.064047e-06	-3.863160e-09	-8.062994e+00	-2.666534e+02
2.400000e-06	-1.049093e-06	-3.843353e-09	-7.949682e+00	-2.651014e+02
2.410000e-06	-1.034117e-06	-3.825327e-09	-7.836196e+00	-2.635511e+02
2.420000e-06	-1.019137e-06	-3.808402e-09	-7.722683e+00	-2.620012e+02
2.430000e-06	-1.004139e-06	-3.792775e-09	-7.609030e+00	-2.604500e+02
2.440000e-06	-9.890959e-07	-3.773330e-09	-7.495040e+00	-2.588956e+02
2.450000e-06	-9.740165e-07	-3.746001e-09	-7.380774e+00	-2.573359e+02
2.460000e-06	-9.589160e-07	-3.714774e-09	-7.266347e+00	-2.557686e+02
2.470000e-06	-9.438042e-07	-3.684706e-09	-7.151835e+00	-2.541913e+02
2.480000e-06	-9.286578e-07	-3.662975e-09	-7.037061e+00	-2.526015e+02
2.490000e-06	-9.134962e-07	-3.645509e-09	-6.922171e+00	-2.509969e+02
2.500000e-06	-8.983244e-07	-3.627006e-09	-6.807204e+00	-2.493751e+02
2.510000e-06	-8.831132e-07	-3.608968e-09	-6.691938e+00	-2.477337e+02
2.520000e-06	-8.678789e-07	-3.588819e-09	-6.576498e+00	-2.460709e+02
2.530000e-06	-8.526309e-07	-3.562784e-09	-6.460954e+00	-2.443846e+02
2.540000e-06	-8.373687e-07	-3.529857e-09	-6.345302e+00	-2.426735e+02
2.550000e-06	-8.220861e-07	-3.500423e-09	-6.229496e+00	-2.409363e+02
2.560000e-06	-8.067785e-07	-3.475050e-09	-6.113499e+00	-2.391720e+02
2.570000e-06	-7.914406e-07	-3.447268e-09	-5.997274e+00	-2.373802e+02
2.580000e-06	-7.760811e-07	-3.419765e-09	-5.880885e+00	-2.355607e+02
2.590000e-06	-7.607171e-07	-3.392155e-09	-5.764461e+00	-2.337136e+02
2.600000e-06	-7.453297e-07	-3.366217e-09	-5.647861e+00	-2.318393e+02
2.610000e-06	-7.298950e-07	-3.338275e-09	-5.530902e+00	-2.299386e+02
2.620000e-06	-7.144375e-07	-3.305678e-09	-5.413770e+00	-2.280124e+02
2.630000e-06	-6.989652e-07	-3.271781e-09	-5.296527e+00	-2.260618e+02
2.640000e-06	-6.834658e-07	-3.241638e-09	-5.179077e+00	-2.240881e+02
2.650000e-06	-6.679289e-07	-3.214399e-09	-5.061343e+00	-2.220925e+02
2.660000e-06	-6.523475e-07	-3.184986e-09	-4.943273e+00	-2.200764e+02
2.670000e-06	-6.367491e-07	-3.153859e-09	-4.825074e+00	-2.180412e+02
2.680000e-06	-6.211324e-07	-3.122067e-09	-4.706735e+00	-2.159880e+02
2.690000e-06	-6.054957e-07	-3.093394e-09	-4.588245e+00	-2.139179e+02
2.700000e-06	-5.898549e-07	-3.064603e-09	-4.469725e+00	-2.118320e+02
2.710000e-06	-5.742002e-07	-3.030319e-09	-4.351099e+00	-2.097311e+02
2.720000e-06	-5.585292e-07	-2.994762e-09	-4.232349e+00	-2.076159e+02
2.730000e-06	-5.428441e-07	-2.963605e-09	-4.113492e+00	-2.054869e+02
2.740000e-06	-5.271400e-07	-2.934841e-09	-3.994492e+00	-2.033444e+02
2.750000e-06	-5.114270e-07	-2.902911e-09	-3.875424e+00	-2.011887e+02
2.760000e-06	-4.957074e-07	-2.872515e-09	-3.756306e+00	-1.990201e+02
2.770000e-06	-4.799848e-07	-2.845031e-09	-3.637166e+00	-1.968385e+02
2.780000e-06	-4.642588e-07	-2.815668e-09	-3.517999e+00	-1.946441e+02
2.790000e-06	-4.485262e-07	-2.784986e-09	-3.398782e+00	-1.924370e+02
2.800000e-06	-4.327887e-07	-2.751659e-09	-3.279529e+00	-1.902173e+02
2.810000e-06	-4.170399e-07	-2.716838e-09	-3.160190e+00	-1.879854e+02
2.820000e-06	-4.012781e-07	-2.682913e-09	-3.040752e+00	-1.857415e+02
2.830000e-06	-3.855081e-07	-2.650089e-09	-2.921252e+00	-1.834862e+02
2.840000e-06	-3.697334e-07	-2.617479e-09	-2.801717e+00	-1.812202e+02
