# Temperatura_=_20.0
# Concentracion g/m^3_=_10000.0
# C_Vs_to_Am_M_A/Vsm_=_65563218390.804596
# pendiente_HvsI_1/m_=_3716.3
# ordenada_HvsI_A/m_=_1297.0
# frecuencia_Hz_=_81162.09154303603

Tiempo_(s)	Campo_(V.s)	Magnetizacion_(V.s)	Campo_(kA/m)	Magnetizacion_(A/m)
0.000000e+00	-3.117325e-06	-7.187027e-09	-2.356040e+01	-4.621046e+02
1.000000e-08	-3.117322e-06	-7.331349e-09	-2.356038e+01	-4.621950e+02
2.000000e-08	-3.117411e-06	-7.180463e-09	-2.356106e+01	-4.622548e+02
3.000000e-08	-3.117399e-06	-7.202854e-09	-2.356097e+01	-4.622836e+02
4.000000e-08	-3.117218e-06	-7.296804e-09	-2.355959e+01	-4.622812e+02
5.000000e-08	-3.116895e-06	-7.172947e-09	-2.355716e+01	-4.622479e+02
6.000000e-08	-3.116479e-06	-7.174107e-09	-2.355401e+01	-4.621843e+02
7.000000e-08	-3.115952e-06	-7.137006e-09	-2.355002e+01	-4.620913e+02
8.000000e-08	-3.115305e-06	-7.112284e-09	-2.354513e+01	-4.619702e+02
9.000000e-08	-3.114583e-06	-7.144611e-09	-2.353968e+01	-4.618225e+02
1.000000e-07	-3.113830e-06	-7.180287e-09	-2.353399e+01	-4.616500e+02
1.100000e-07	-3.113074e-06	-7.227884e-09	-2.352827e+01	-4.614548e+02
1.200000e-07	-3.112199e-06	-7.133331e-09	-2.352166e+01	-4.612391e+02
1.300000e-07	-3.111234e-06	-7.100947e-09	-2.351437e+01	-4.610051e+02
1.400000e-07	-3.110192e-06	-7.116741e-09	-2.350649e+01	-4.607552e+02
1.500000e-07	-3.109065e-06	-7.149860e-09	-2.349798e+01	-4.604921e+02
1.600000e-07	-3.107842e-06	-7.127265e-09	-2.348873e+01	-4.602181e+02
1.700000e-07	-3.106503e-06	-7.066284e-09	-2.347861e+01	-4.599357e+02
1.800000e-07	-3.105137e-06	-7.146637e-09	-2.346828e+01	-4.596474e+02
1.900000e-07	-3.103679e-06	-7.145146e-09	-2.345727e+01	-4.593556e+02
2.000000e-07	-3.102069e-06	-7.121527e-09	-2.344510e+01	-4.590626e+02
2.100000e-07	-3.100320e-06	-7.044997e-09	-2.343188e+01	-4.587705e+02
2.200000e-07	-3.098524e-06	-7.039005e-09	-2.341831e+01	-4.584814e+02
2.300000e-07	-3.096687e-06	-7.112947e-09	-2.340443e+01	-4.581971e+02
2.400000e-07	-3.094745e-06	-7.114900e-09	-2.338974e+01	-4.579196e+02
2.500000e-07	-3.092735e-06	-7.095482e-09	-2.337455e+01	-4.576503e+02
2.600000e-07	-3.090655e-06	-7.022936e-09	-2.335884e+01	-4.573906e+02
2.700000e-07	-3.088504e-06	-7.055126e-09	-2.334258e+01	-4.571418e+02
2.800000e-07	-3.086281e-06	-7.069645e-09	-2.332577e+01	-4.569047e+02
2.900000e-07	-3.083980e-06	-7.046322e-09	-2.330839e+01	-4.566802e+02
3.000000e-07	-3.081606e-06	-7.032050e-09	-2.329045e+01	-4.564688e+02
3.100000e-07	-3.079147e-06	-7.024928e-09	-2.327186e+01	-4.562707e+02
3.200000e-07	-3.076622e-06	-7.077884e-09	-2.325277e+01	-4.560858e+02
3.300000e-07	-3.074021e-06	-7.051455e-09	-2.323312e+01	-4.559141e+02
3.400000e-07	-3.071359e-06	-7.020288e-09	-2.321300e+01	-4.557548e+02
3.500000e-07	-3.068579e-06	-6.992840e-09	-2.319199e+01	-4.556074e+02
3.600000e-07	-3.065667e-06	-7.006514e-09	-2.316998e+01	-4.554709e+02
3.700000e-07	-3.062698e-06	-7.043498e-09	-2.314754e+01	-4.553440e+02
3.800000e-07	-3.059669e-06	-7.017160e-09	-2.312464e+01	-4.552253e+02
3.900000e-07	-3.056561e-06	-7.007712e-09	-2.310116e+01	-4.551135e+02
4.000000e-07	-3.053358e-06	-6.989947e-09	-2.307695e+01	-4.550068e+02
4.100000e-07	-3.050105e-06	-7.021660e-09	-2.305237e+01	-4.549034e+02
4.200000e-07	-3.046797e-06	-7.022560e-09	-2.302736e+01	-4.548017e+02
4.300000e-07	-3.043422e-06	-6.987070e-09	-2.300185e+01	-4.546998e+02
4.400000e-07	-3.039981e-06	-6.980116e-09	-2.297584e+01	-4.545959e+02
4.500000e-07	-3.036437e-06	-6.981866e-09	-2.294906e+01	-4.544883e+02
4.600000e-07	-3.032781e-06	-7.014312e-09	-2.292143e+01	-4.543755e+02
4.700000e-07	-3.029028e-06	-6.985917e-09	-2.289307e+01	-4.542558e+02
4.800000e-07	-3.025221e-06	-6.972122e-09	-2.286429e+01	-4.541278e+02
4.900000e-07	-3.021347e-06	-6.983720e-09	-2.283501e+01	-4.539904e+02
5.000000e-07	-3.017392e-06	-6.999191e-09	-2.280512e+01	-4.538423e+02
5.100000e-07	-3.013355e-06	-6.996682e-09	-2.277461e+01	-4.536824e+02
5.200000e-07	-3.009240e-06	-6.945918e-09	-2.274351e+01	-4.535099e+02
5.300000e-07	-3.005073e-06	-6.944502e-09	-2.271202e+01	-4.533240e+02
5.400000e-07	-3.000829e-06	-6.950789e-09	-2.267994e+01	-4.531238e+02
5.500000e-07	-2.996472e-06	-6.960881e-09	-2.264701e+01	-4.529087e+02
5.600000e-07	-2.992008e-06	-6.947143e-09	-2.261327e+01	-4.526780e+02
5.700000e-07	-2.987481e-06	-6.932706e-09	-2.257906e+01	-4.524310e+02
5.800000e-07	-2.982885e-06	-6.949302e-09	-2.254432e+01	-4.521670e+02
5.900000e-07	-2.978204e-06	-6.938174e-09	-2.250894e+01	-4.518854e+02
6.000000e-07	-2.973446e-06	-6.926181e-09	-2.247298e+01	-4.515854e+02
6.100000e-07	-2.968597e-06	-6.899139e-09	-2.243633e+01	-4.512663e+02
6.200000e-07	-2.963692e-06	-6.902381e-09	-2.239926e+01	-4.509274e+02
6.300000e-07	-2.958713e-06	-6.914391e-09	-2.236163e+01	-4.505678e+02
6.400000e-07	-2.953618e-06	-6.907461e-09	-2.232313e+01	-4.501869e+02
6.500000e-07	-2.948408e-06	-6.895401e-09	-2.228375e+01	-4.497841e+02
6.600000e-07	-2.943094e-06	-6.867915e-09	-2.224358e+01	-4.493588e+02
6.700000e-07	-2.937709e-06	-6.873785e-09	-2.220288e+01	-4.489107e+02
6.800000e-07	-2.932250e-06	-6.866598e-09	-2.216163e+01	-4.484395e+02
6.900000e-07	-2.926703e-06	-6.852346e-09	-2.211970e+01	-4.479451e+02
7.000000e-07	-2.921070e-06	-6.838697e-09	-2.207713e+01	-4.474280e+02
7.100000e-07	-2.915374e-06	-6.831734e-09	-2.203408e+01	-4.468885e+02
7.200000e-07	-2.909627e-06	-6.840831e-09	-2.199064e+01	-4.463275e+02
7.300000e-07	-2.903810e-06	-6.817671e-09	-2.194668e+01	-4.457459e+02
7.400000e-07	-2.897907e-06	-6.795690e-09	-2.190207e+01	-4.451453e+02
7.500000e-07	-2.891906e-06	-6.775875e-09	-2.185671e+01	-4.445271e+02
7.600000e-07	-2.885827e-06	-6.774342e-09	-2.181077e+01	-4.438933e+02
7.700000e-07	-2.879672e-06	-6.769946e-09	-2.176424e+01	-4.432459e+02
7.800000e-07	-2.873445e-06	-6.748833e-09	-2.171719e+01	-4.425870e+02
7.900000e-07	-2.867158e-06	-6.739272e-09	-2.166967e+01	-4.419191e+02
8.000000e-07	-2.860804e-06	-6.725515e-09	-2.162165e+01	-4.412444e+02
8.100000e-07	-2.854391e-06	-6.720204e-09	-2.157318e+01	-4.405652e+02
8.200000e-07	-2.847908e-06	-6.696372e-09	-2.152418e+01	-4.398837e+02
8.300000e-07	-2.841362e-06	-6.676208e-09	-2.147470e+01	-4.392022e+02
8.400000e-07	-2.834740e-06	-6.669205e-09	-2.142466e+01	-4.385224e+02
8.500000e-07	-2.828024e-06	-6.662242e-09	-2.137390e+01	-4.378463e+02
8.600000e-07	-2.821239e-06	-6.657593e-09	-2.132262e+01	-4.371751e+02
8.700000e-07	-2.814385e-06	-6.633922e-09	-2.127081e+01	-4.365101e+02
8.800000e-07	-2.807463e-06	-6.622468e-09	-2.121850e+01	-4.358524e+02
8.900000e-07	-2.800466e-06	-6.613864e-09	-2.116562e+01	-4.352025e+02
9.000000e-07	-2.793396e-06	-6.604737e-09	-2.111219e+01	-4.345611e+02
9.100000e-07	-2.786261e-06	-6.590806e-09	-2.105826e+01	-4.339283e+02
9.200000e-07	-2.779045e-06	-6.570447e-09	-2.100372e+01	-4.333042e+02
9.300000e-07	-2.771768e-06	-6.564612e-09	-2.094872e+01	-4.326890e+02
9.400000e-07	-2.764431e-06	-6.555709e-09	-2.089327e+01	-4.320823e+02
9.500000e-07	-2.757019e-06	-6.548524e-09	-2.083725e+01	-4.314841e+02
9.600000e-07	-2.749495e-06	-6.534003e-09	-2.078038e+01	-4.308943e+02
9.700000e-07	-2.741878e-06	-6.527110e-09	-2.072281e+01	-4.303126e+02
9.800000e-07	-2.734192e-06	-6.525853e-09	-2.066473e+01	-4.297390e+02
9.900000e-07	-2.726433e-06	-6.513010e-09	-2.060608e+01	-4.291735e+02
1.000000e-06	-2.718604e-06	-6.497532e-09	-2.054691e+01	-4.286162e+02
1.010000e-06	-2.710709e-06	-6.475231e-09	-2.048724e+01	-4.280670e+02
1.020000e-06	-2.702748e-06	-6.466561e-09	-2.042708e+01	-4.275262e+02
1.030000e-06	-2.694671e-06	-6.458727e-09	-2.036603e+01	-4.269938e+02
1.040000e-06	-2.686477e-06	-6.450037e-09	-2.030410e+01	-4.264699e+02
1.050000e-06	-2.678209e-06	-6.444500e-09	-2.024161e+01	-4.259545e+02
1.060000e-06	-2.669893e-06	-6.438632e-09	-2.017876e+01	-4.254476e+02
1.070000e-06	-2.661527e-06	-6.441836e-09	-2.011553e+01	-4.249488e+02
1.080000e-06	-2.653085e-06	-6.434844e-09	-2.005173e+01	-4.244575e+02
1.090000e-06	-2.644580e-06	-6.422782e-09	-1.998745e+01	-4.239730e+02
1.100000e-06	-2.636026e-06	-6.409579e-09	-1.992279e+01	-4.234943e+02
1.110000e-06	-2.627433e-06	-6.400500e-09	-1.985785e+01	-4.230199e+02
1.120000e-06	-2.618797e-06	-6.391051e-09	-1.979259e+01	-4.225483e+02
1.130000e-06	-2.610081e-06	-6.372646e-09	-1.972671e+01	-4.220774e+02
1.140000e-06	-2.601298e-06	-6.363150e-09	-1.966033e+01	-4.216050e+02
1.150000e-06	-2.592452e-06	-6.360585e-09	-1.959347e+01	-4.211287e+02
1.160000e-06	-2.583540e-06	-6.362370e-09	-1.952612e+01	-4.206460e+02
1.170000e-06	-2.574577e-06	-6.355777e-09	-1.945838e+01	-4.201539e+02
1.180000e-06	-2.565561e-06	-6.341929e-09	-1.939023e+01	-4.196498e+02
1.190000e-06	-2.556465e-06	-6.328755e-09	-1.932148e+01	-4.191310e+02
1.200000e-06	-2.547270e-06	-6.312594e-09	-1.925199e+01	-4.185946e+02
1.210000e-06	-2.537995e-06	-6.299154e-09	-1.918189e+01	-4.180384e+02
1.220000e-06	-2.528660e-06	-6.282992e-09	-1.911133e+01	-4.174600e+02
1.230000e-06	-2.519274e-06	-6.274660e-09	-1.904040e+01	-4.168574e+02
1.240000e-06	-2.509829e-06	-6.274892e-09	-1.896901e+01	-4.162292e+02
1.250000e-06	-2.500326e-06	-6.273621e-09	-1.889719e+01	-4.155739e+02
1.260000e-06	-2.490766e-06	-6.264543e-09	-1.882494e+01	-4.148909e+02
1.270000e-06	-2.481142e-06	-6.243779e-09	-1.875220e+01	-4.141796e+02
1.280000e-06	-2.471458e-06	-6.221730e-09	-1.867901e+01	-4.134400e+02
1.290000e-06	-2.461723e-06	-6.199248e-09	-1.860543e+01	-4.126722e+02
1.300000e-06	-2.451929e-06	-6.180860e-09	-1.853141e+01	-4.118769e+02
1.310000e-06	-2.442045e-06	-6.165017e-09	-1.845671e+01	-4.110549e+02
1.320000e-06	-2.432066e-06	-6.154158e-09	-1.838129e+01	-4.102072e+02
1.330000e-06	-2.422010e-06	-6.148233e-09	-1.830529e+01	-4.093351e+02
1.340000e-06	-2.411904e-06	-6.137394e-09	-1.822891e+01	-4.084398e+02
1.350000e-06	-2.401750e-06	-6.121871e-09	-1.815216e+01	-4.075226e+02
1.360000e-06	-2.391543e-06	-6.098481e-09	-1.807502e+01	-4.065848e+02
1.370000e-06	-2.381285e-06	-6.076334e-09	-1.799749e+01	-4.056278e+02
1.380000e-06	-2.370971e-06	-6.056372e-09	-1.791954e+01	-4.046527e+02
1.390000e-06	-2.360593e-06	-6.035927e-09	-1.784111e+01	-4.036606e+02
1.400000e-06	-2.350143e-06	-6.018396e-09	-1.776212e+01	-4.026526e+02
1.410000e-06	-2.339636e-06	-6.003926e-09	-1.768272e+01	-4.016296e+02
1.420000e-06	-2.329092e-06	-5.993478e-09	-1.760302e+01	-4.005924e+02
1.430000e-06	-2.318507e-06	-5.978841e-09	-1.752302e+01	-3.995419e+02
1.440000e-06	-2.307845e-06	-5.963934e-09	-1.744244e+01	-3.984789e+02
1.450000e-06	-2.297091e-06	-5.949698e-09	-1.736116e+01	-3.974043e+02
1.460000e-06	-2.286249e-06	-5.933413e-09	-1.727922e+01	-3.963189e+02
1.470000e-06	-2.275342e-06	-5.915883e-09	-1.719679e+01	-3.952238e+02
1.480000e-06	-2.264397e-06	-5.896087e-09	-1.711407e+01	-3.941199e+02
1.490000e-06	-2.253414e-06	-5.878654e-09	-1.703105e+01	-3.930087e+02
1.500000e-06	-2.242374e-06	-5.858856e-09	-1.694762e+01	-3.918913e+02
1.510000e-06	-2.231284e-06	-5.838516e-09	-1.686380e+01	-3.907694e+02
1.520000e-06	-2.220148e-06	-5.818968e-09	-1.677964e+01	-3.896446e+02
1.530000e-06	-2.208947e-06	-5.800075e-09	-1.669498e+01	-3.885185e+02
1.540000e-06	-2.197688e-06	-5.786505e-09	-1.660989e+01	-3.873929e+02
1.550000e-06	-2.186392e-06	-5.769953e-09	-1.652451e+01	-3.862696e+02
1.560000e-06	-2.175053e-06	-5.752956e-09	-1.643881e+01	-3.851502e+02
1.570000e-06	-2.163654e-06	-5.735408e-09	-1.635266e+01	-3.840364e+02
1.580000e-06	-2.152167e-06	-5.717685e-09	-1.626585e+01	-3.829295e+02
1.590000e-06	-2.140584e-06	-5.701573e-09	-1.617830e+01	-3.818307e+02
1.600000e-06	-2.128925e-06	-5.685029e-09	-1.609019e+01	-3.807409e+02
1.610000e-06	-2.117213e-06	-5.671697e-09	-1.600167e+01	-3.796608e+02
1.620000e-06	-2.105452e-06	-5.655329e-09	-1.591278e+01	-3.785903e+02
1.630000e-06	-2.093643e-06	-5.640093e-09	-1.582353e+01	-3.775295e+02
1.640000e-06	-2.081780e-06	-5.626633e-09	-1.573387e+01	-3.764777e+02
1.650000e-06	-2.069857e-06	-5.610872e-09	-1.564375e+01	-3.754341e+02
1.660000e-06	-2.057882e-06	-5.595476e-09	-1.555325e+01	-3.743973e+02
1.670000e-06	-2.045866e-06	-5.579825e-09	-1.546243e+01	-3.733659e+02
1.680000e-06	-2.033809e-06	-5.564783e-09	-1.537131e+01	-3.723379e+02
1.690000e-06	-2.021708e-06	-5.547743e-09	-1.527985e+01	-3.713114e+02
1.700000e-06	-2.009565e-06	-5.529940e-09	-1.518808e+01	-3.702843e+02
1.710000e-06	-1.997377e-06	-5.512190e-09	-1.509596e+01	-3.692544e+02
1.720000e-06	-1.985127e-06	-5.497929e-09	-1.500338e+01	-3.682195e+02
1.730000e-06	-1.972783e-06	-5.486357e-09	-1.491008e+01	-3.671776e+02
1.740000e-06	-1.960358e-06	-5.468561e-09	-1.481617e+01	-3.661267e+02
1.750000e-06	-1.947893e-06	-5.447031e-09	-1.472196e+01	-3.650650e+02
1.760000e-06	-1.935387e-06	-5.423383e-09	-1.462744e+01	-3.639910e+02
1.770000e-06	-1.922834e-06	-5.403393e-09	-1.453257e+01	-3.629033e+02
1.780000e-06	-1.910234e-06	-5.388439e-09	-1.443734e+01	-3.618010e+02
1.790000e-06	-1.897587e-06	-5.370878e-09	-1.434176e+01	-3.606831e+02
1.800000e-06	-1.884897e-06	-5.351505e-09	-1.424584e+01	-3.595491e+02
1.810000e-06	-1.872166e-06	-5.331683e-09	-1.414962e+01	-3.583984e+02
1.820000e-06	-1.859390e-06	-5.314591e-09	-1.405307e+01	-3.572309e+02
1.830000e-06	-1.846570e-06	-5.295624e-09	-1.395618e+01	-3.560463e+02
1.840000e-06	-1.833705e-06	-5.273944e-09	-1.385894e+01	-3.548445e+02
1.850000e-06	-1.820798e-06	-5.255354e-09	-1.376139e+01	-3.536253e+02
1.860000e-06	-1.807855e-06	-5.237882e-09	-1.366357e+01	-3.523887e+02
1.870000e-06	-1.794860e-06	-5.220368e-09	-1.356536e+01	-3.511343e+02
1.880000e-06	-1.781812e-06	-5.198611e-09	-1.346674e+01	-3.498618e+02
1.890000e-06	-1.768705e-06	-5.174014e-09	-1.336768e+01	-3.485708e+02
1.900000e-06	-1.755529e-06	-5.147616e-09	-1.326809e+01	-3.472607e+02
1.910000e-06	-1.742300e-06	-5.123729e-09	-1.316812e+01	-3.459309e+02
1.920000e-06	-1.729022e-06	-5.104148e-09	-1.306776e+01	-3.445805e+02
1.930000e-06	-1.715706e-06	-5.086114e-09	-1.296712e+01	-3.432088e+02
1.940000e-06	-1.702370e-06	-5.067535e-09	-1.286633e+01	-3.418149e+02
1.950000e-06	-1.689006e-06	-5.040572e-09	-1.276532e+01	-3.403981e+02
1.960000e-06	-1.675596e-06	-5.010045e-09	-1.266398e+01	-3.389577e+02
1.970000e-06	-1.662144e-06	-4.980428e-09	-1.256230e+01	-3.374930e+02
1.980000e-06	-1.648655e-06	-4.952590e-09	-1.246035e+01	-3.360038e+02
1.990000e-06	-1.635119e-06	-4.930668e-09	-1.235805e+01	-3.344898e+02
2.000000e-06	-1.621530e-06	-4.913512e-09	-1.225535e+01	-3.329512e+02
2.010000e-06	-1.607897e-06	-4.896499e-09	-1.215231e+01	-3.313884e+02
2.020000e-06	-1.594231e-06	-4.873598e-09	-1.204903e+01	-3.298021e+02
2.030000e-06	-1.580531e-06	-4.847165e-09	-1.194548e+01	-3.281935e+02
2.040000e-06	-1.566802e-06	-4.818073e-09	-1.184172e+01	-3.265636e+02
2.050000e-06	-1.553031e-06	-4.787740e-09	-1.173764e+01	-3.249143e+02
2.060000e-06	-1.539225e-06	-4.759399e-09	-1.163329e+01	-3.232473e+02
2.070000e-06	-1.525378e-06	-4.732273e-09	-1.152864e+01	-3.215645e+02
2.080000e-06	-1.511472e-06	-4.709739e-09	-1.142354e+01	-3.198681e+02
2.090000e-06	-1.497509e-06	-4.689085e-09	-1.131801e+01	-3.181604e+02
2.100000e-06	-1.483482e-06	-4.668603e-09	-1.121200e+01	-3.164434e+02
2.110000e-06	-1.469419e-06	-4.643366e-09	-1.110571e+01	-3.147194e+02
2.120000e-06	-1.455323e-06	-4.613390e-09	-1.099918e+01	-3.129905e+02
2.130000e-06	-1.441189e-06	-4.583631e-09	-1.089235e+01	-3.112585e+02
2.140000e-06	-1.427023e-06	-4.554032e-09	-1.078529e+01	-3.095251e+02
2.150000e-06	-1.412812e-06	-4.526299e-09	-1.067788e+01	-3.077920e+02
2.160000e-06	-1.398566e-06	-4.500264e-09	-1.057021e+01	-3.060604e+02
2.170000e-06	-1.384283e-06	-4.478683e-09	-1.046226e+01	-3.043314e+02
2.180000e-06	-1.369954e-06	-4.457759e-09	-1.035397e+01	-3.026059e+02
2.190000e-06	-1.355587e-06	-4.436570e-09	-1.024538e+01	-3.008846e+02
2.200000e-06	-1.341185e-06	-4.413168e-09	-1.013653e+01	-2.991679e+02
2.210000e-06	-1.326740e-06	-4.383234e-09	-1.002736e+01	-2.974563e+02
2.220000e-06	-1.312240e-06	-4.352180e-09	-9.917764e+00	-2.957500e+02
2.230000e-06	-1.297703e-06	-4.323632e-09	-9.807901e+00	-2.940493e+02
2.240000e-06	-1.283144e-06	-4.302219e-09	-9.697863e+00	-2.923543e+02
2.250000e-06	-1.268542e-06	-4.285002e-09	-9.587505e+00	-2.906652e+02
2.260000e-06	-1.253900e-06	-4.265506e-09	-9.476837e+00	-2.889822e+02
2.270000e-06	-1.239233e-06	-4.242368e-09	-9.365986e+00	-2.873054e+02
2.280000e-06	-1.224544e-06	-4.219517e-09	-9.254973e+00	-2.856352e+02
2.290000e-06	-1.209841e-06	-4.197596e-09	-9.143846e+00	-2.839717e+02
2.300000e-06	-1.195101e-06	-4.172093e-09	-9.032444e+00	-2.823152e+02
2.310000e-06	-1.180323e-06	-4.144689e-09	-8.920754e+00	-2.806659e+02
2.320000e-06	-1.165507e-06	-4.118525e-09	-8.808778e+00	-2.790240e+02
2.330000e-06	-1.150655e-06	-4.097331e-09	-8.696528e+00	-2.773897e+02
2.340000e-06	-1.135795e-06	-4.078309e-09	-8.584214e+00	-2.757627e+02
2.350000e-06	-1.120916e-06	-4.057266e-09	-8.471763e+00	-2.741430e+02
2.360000e-06	-1.106014e-06	-4.036714e-09	-8.359131e+00	-2.725300e+02
2.370000e-06	-1.091095e-06	-4.017081e-09	-8.246379e+00	-2.709232e+02
2.380000e-06	-1.076150e-06	-3.995542e-09	-8.133425e+00	-2.693215e+02
2.390000e-06	-1.061174e-06	-3.970090e-09	-8.020239e+00	-2.677238e+02
2.400000e-06	-1.046175e-06	-3.942915e-09	-7.906873e+00	-2.661286e+02
2.410000e-06	-1.031152e-06	-3.917194e-09	-7.793336e+00	-2.645341e+02
2.420000e-06	-1.016100e-06	-3.893882e-09	-7.679571e+00	-2.629384e+02
2.430000e-06	-1.001022e-06	-3.870747e-09	-7.565613e+00	-2.613394e+02
2.440000e-06	-9.859186e-07	-3.845851e-09	-7.451465e+00	-2.597346e+02
2.450000e-06	-9.707823e-07	-3.820572e-09	-7.337067e+00	-2.581217e+02
2.460000e-06	-9.556277e-07	-3.796134e-09	-7.222530e+00	-2.564981e+02
2.470000e-06	-9.404568e-07	-3.773170e-09	-7.107870e+00	-2.548614e+02
2.480000e-06	-9.252610e-07	-3.748803e-09	-6.993022e+00	-2.532093e+02
2.490000e-06	-9.100398e-07	-3.722379e-09	-6.877981e+00	-2.515395e+02
2.500000e-06	-8.948047e-07	-3.699491e-09	-6.762837e+00	-2.498500e+02
2.510000e-06	-8.795550e-07	-3.678376e-09	-6.647581e+00	-2.481391e+02
2.520000e-06	-8.642792e-07	-3.653261e-09	-6.532129e+00	-2.464051e+02
2.530000e-06	-8.489767e-07	-3.623828e-09	-6.416474e+00	-2.446470e+02
2.540000e-06	-8.336478e-07	-3.594826e-09	-6.300619e+00	-2.428639e+02
2.550000e-06	-8.183037e-07	-3.569402e-09	-6.184650e+00	-2.410552e+02
2.560000e-06	-8.029455e-07	-3.541385e-09	-6.068575e+00	-2.392208e+02
2.570000e-06	-7.875658e-07	-3.511646e-09	-5.952336e+00	-2.373608e+02
2.580000e-06	-7.721653e-07	-3.485451e-09	-5.835942e+00	-2.354754e+02
2.590000e-06	-7.567241e-07	-3.459967e-09	-5.719238e+00	-2.335653e+02
2.600000e-06	-7.412581e-07	-3.431242e-09	-5.602348e+00	-2.316313e+02
2.610000e-06	-7.257668e-07	-3.397337e-09	-5.485266e+00	-2.296741e+02
2.620000e-06	-7.102308e-07	-3.360687e-09	-5.367847e+00	-2.276948e+02
2.630000e-06	-6.946712e-07	-3.326623e-09	-5.250249e+00	-2.256944e+02
2.640000e-06	-6.790949e-07	-3.295950e-09	-5.132525e+00	-2.236739e+02
2.650000e-06	-6.634970e-07	-3.263915e-09	-5.014638e+00	-2.216342e+02
2.660000e-06	-6.478700e-07	-3.232800e-09	-4.896531e+00	-2.195763e+02
2.670000e-06	-6.322215e-07	-3.205708e-09	-4.778261e+00	-2.175010e+02
2.680000e-06	-6.165597e-07	-3.178354e-09	-4.659891e+00	-2.154092e+02
2.690000e-06	-6.008923e-07	-3.146317e-09	-4.541479e+00	-2.133013e+02
2.700000e-06	-5.852145e-07	-3.107660e-09	-4.422987e+00	-2.111781e+02
2.710000e-06	-5.695223e-07	-3.067808e-09	-4.304387e+00	-2.090401e+02
2.720000e-06	-5.538181e-07	-3.033005e-09	-4.185697e+00	-2.068877e+02
2.730000e-06	-5.381033e-07	-3.001506e-09	-4.066926e+00	-2.047216e+02
2.740000e-06	-5.223872e-07	-2.967685e-09	-3.948146e+00	-2.025422e+02
2.750000e-06	-5.066609e-07	-2.935241e-09	-3.829288e+00	-2.003500e+02
2.760000e-06	-4.909176e-07	-2.910030e-09	-3.710301e+00	-1.981457e+02
2.770000e-06	-4.751638e-07	-2.885225e-09	-3.591237e+00	-1.959299e+02
2.780000e-06	-4.594043e-07	-2.854086e-09	-3.472128e+00	-1.937036e+02
2.790000e-06	-4.436296e-07	-2.818545e-09	-3.352904e+00	-1.914676e+02
2.800000e-06	-4.278488e-07	-2.784589e-09	-3.233634e+00	-1.892228e+02
2.810000e-06	-4.120654e-07	-2.752670e-09	-3.114346e+00	-1.869705e+02
2.820000e-06	-3.962641e-07	-2.717643e-09	-2.994921e+00	-1.847118e+02
2.830000e-06	-3.804514e-07	-2.680324e-09	-2.875410e+00	-1.824479e+02
2.840000e-06	-3.646289e-07	-2.647139e-09	-2.755826e+00	-1.801803e+02
