# Temperatura_=_20.0
# Concentracion g/m^3_=_10000.0
# C_Vs_to_Am_M_A/Vsm_=_65563218390.804596
# pendiente_HvsI_1/m_=_3716.3
# ordenada_HvsI_A/m_=_1297.0
# frecuencia_Hz_=_81161.38458926666

Tiempo_(s)	Campo_(V.s)	Magnetizacion_(V.s)	Campo_(kA/m)	Magnetizacion_(A/m)
0.000000e+00	-3.110299e-06	-7.082384e-09	-2.356041e+01	-4.573712e+02
1.000000e-08	-3.110285e-06	-7.221525e-09	-2.356031e+01	-4.573791e+02
2.000000e-08	-3.110392e-06	-7.055797e-09	-2.356112e+01	-4.573749e+02
3.000000e-08	-3.110412e-06	-7.086196e-09	-2.356127e+01	-4.573610e+02
4.000000e-08	-3.110252e-06	-7.194401e-09	-2.356006e+01	-4.573393e+02
5.000000e-08	-3.109941e-06	-7.072884e-09	-2.355770e+01	-4.573118e+02
6.000000e-08	-3.109541e-06	-7.113360e-09	-2.355467e+01	-4.572797e+02
7.000000e-08	-3.109033e-06	-7.054939e-09	-2.355082e+01	-4.572445e+02
8.000000e-08	-3.108392e-06	-7.019657e-09	-2.354596e+01	-4.572066e+02
9.000000e-08	-3.107677e-06	-7.065880e-09	-2.354055e+01	-4.571666e+02
1.000000e-07	-3.106913e-06	-7.093170e-09	-2.353476e+01	-4.571242e+02
1.100000e-07	-3.106186e-06	-7.156215e-09	-2.352926e+01	-4.570791e+02
1.200000e-07	-3.105358e-06	-7.067142e-09	-2.352298e+01	-4.570304e+02
1.300000e-07	-3.104429e-06	-7.050312e-09	-2.351595e+01	-4.569772e+02
1.400000e-07	-3.103414e-06	-7.062924e-09	-2.350826e+01	-4.569182e+02
1.500000e-07	-3.102307e-06	-7.104072e-09	-2.349987e+01	-4.568521e+02
1.600000e-07	-3.101096e-06	-7.085438e-09	-2.349070e+01	-4.567777e+02
1.700000e-07	-3.099760e-06	-7.002879e-09	-2.348058e+01	-4.566937e+02
1.800000e-07	-3.098408e-06	-7.103429e-09	-2.347034e+01	-4.565992e+02
1.900000e-07	-3.096962e-06	-7.090767e-09	-2.345938e+01	-4.564934e+02
2.000000e-07	-3.095381e-06	-7.077811e-09	-2.344741e+01	-4.563759e+02
2.100000e-07	-3.093644e-06	-7.013997e-09	-2.343425e+01	-4.562466e+02
2.200000e-07	-3.091850e-06	-7.013858e-09	-2.342066e+01	-4.561059e+02
2.300000e-07	-3.090045e-06	-7.092015e-09	-2.340699e+01	-4.559544e+02
2.400000e-07	-3.088130e-06	-7.077825e-09	-2.339248e+01	-4.557932e+02
2.500000e-07	-3.086133e-06	-7.072470e-09	-2.337735e+01	-4.556237e+02
2.600000e-07	-3.084062e-06	-6.999797e-09	-2.336167e+01	-4.554475e+02
2.700000e-07	-3.081923e-06	-7.041103e-09	-2.334547e+01	-4.552664e+02
2.800000e-07	-3.079694e-06	-7.046699e-09	-2.332858e+01	-4.550825e+02
2.900000e-07	-3.077377e-06	-7.015912e-09	-2.331103e+01	-4.548977e+02
3.000000e-07	-3.075005e-06	-7.011522e-09	-2.329306e+01	-4.547138e+02
3.100000e-07	-3.072542e-06	-6.999960e-09	-2.327441e+01	-4.545327e+02
3.200000e-07	-3.070028e-06	-7.062022e-09	-2.325536e+01	-4.543558e+02
3.300000e-07	-3.067449e-06	-7.027308e-09	-2.323583e+01	-4.541844e+02
3.400000e-07	-3.064811e-06	-7.007892e-09	-2.321584e+01	-4.540194e+02
3.500000e-07	-3.062054e-06	-6.986843e-09	-2.319496e+01	-4.538613e+02
3.600000e-07	-3.059157e-06	-6.995076e-09	-2.317301e+01	-4.537103e+02
3.700000e-07	-3.056204e-06	-7.031844e-09	-2.315064e+01	-4.535660e+02
3.800000e-07	-3.053180e-06	-6.998522e-09	-2.312774e+01	-4.534278e+02
3.900000e-07	-3.050093e-06	-7.000678e-09	-2.310435e+01	-4.532948e+02
4.000000e-07	-3.046921e-06	-6.976129e-09	-2.308033e+01	-4.531656e+02
4.100000e-07	-3.043703e-06	-7.008370e-09	-2.305595e+01	-4.530389e+02
4.200000e-07	-3.040439e-06	-7.009942e-09	-2.303123e+01	-4.529129e+02
4.300000e-07	-3.037095e-06	-6.974431e-09	-2.300590e+01	-4.527859e+02
4.400000e-07	-3.033676e-06	-6.977368e-09	-2.298000e+01	-4.526562e+02
4.500000e-07	-3.030170e-06	-6.970687e-09	-2.295344e+01	-4.525219e+02
4.600000e-07	-3.026563e-06	-7.003401e-09	-2.292612e+01	-4.523815e+02
4.700000e-07	-3.022845e-06	-6.967114e-09	-2.289796e+01	-4.522335e+02
4.800000e-07	-3.019056e-06	-6.950082e-09	-2.286925e+01	-4.520763e+02
4.900000e-07	-3.015194e-06	-6.955846e-09	-2.283999e+01	-4.519089e+02
5.000000e-07	-3.011256e-06	-6.963124e-09	-2.281016e+01	-4.517301e+02
5.100000e-07	-3.007237e-06	-6.967924e-09	-2.277972e+01	-4.515393e+02
5.200000e-07	-3.003129e-06	-6.919500e-09	-2.274860e+01	-4.513356e+02
5.300000e-07	-2.998975e-06	-6.930468e-09	-2.271713e+01	-4.511184e+02
5.400000e-07	-2.994742e-06	-6.938616e-09	-2.268507e+01	-4.508875e+02
5.500000e-07	-2.990398e-06	-6.952945e-09	-2.265217e+01	-4.506422e+02
5.600000e-07	-2.985948e-06	-6.940184e-09	-2.261846e+01	-4.503824e+02
5.700000e-07	-2.981425e-06	-6.919116e-09	-2.258420e+01	-4.501076e+02
5.800000e-07	-2.976851e-06	-6.937715e-09	-2.254955e+01	-4.498175e+02
5.900000e-07	-2.972184e-06	-6.920383e-09	-2.251419e+01	-4.495118e+02
6.000000e-07	-2.967446e-06	-6.911265e-09	-2.247830e+01	-4.491900e+02
6.100000e-07	-2.962625e-06	-6.880392e-09	-2.244179e+01	-4.488517e+02
6.200000e-07	-2.957733e-06	-6.884333e-09	-2.240473e+01	-4.484964e+02
6.300000e-07	-2.952779e-06	-6.898109e-09	-2.236720e+01	-4.481240e+02
6.400000e-07	-2.947730e-06	-6.886962e-09	-2.232896e+01	-4.477338e+02
6.500000e-07	-2.942565e-06	-6.883739e-09	-2.228983e+01	-4.473258e+02
6.600000e-07	-2.937278e-06	-6.857816e-09	-2.224978e+01	-4.468997e+02
6.700000e-07	-2.931924e-06	-6.865332e-09	-2.220922e+01	-4.464557e+02
6.800000e-07	-2.926492e-06	-6.853053e-09	-2.216808e+01	-4.459938e+02
6.900000e-07	-2.920976e-06	-6.833919e-09	-2.212630e+01	-4.455147e+02
7.000000e-07	-2.915383e-06	-6.817849e-09	-2.208393e+01	-4.450189e+02
7.100000e-07	-2.909715e-06	-6.810316e-09	-2.204100e+01	-4.445074e+02
7.200000e-07	-2.904013e-06	-6.825825e-09	-2.199780e+01	-4.439814e+02
7.300000e-07	-2.898238e-06	-6.802566e-09	-2.195406e+01	-4.434423e+02
7.400000e-07	-2.892377e-06	-6.787623e-09	-2.190966e+01	-4.428916e+02
7.500000e-07	-2.886413e-06	-6.770326e-09	-2.186448e+01	-4.423309e+02
7.600000e-07	-2.880347e-06	-6.770278e-09	-2.181853e+01	-4.417622e+02
7.700000e-07	-2.874216e-06	-6.763440e-09	-2.177209e+01	-4.411873e+02
7.800000e-07	-2.868019e-06	-6.734535e-09	-2.172515e+01	-4.406079e+02
7.900000e-07	-2.861756e-06	-6.729231e-09	-2.167771e+01	-4.400257e+02
8.000000e-07	-2.855419e-06	-6.719324e-09	-2.162970e+01	-4.394423e+02
8.100000e-07	-2.849022e-06	-6.722901e-09	-2.158125e+01	-4.388590e+02
8.200000e-07	-2.842553e-06	-6.700897e-09	-2.153225e+01	-4.382769e+02
8.300000e-07	-2.836020e-06	-6.677765e-09	-2.148276e+01	-4.376968e+02
8.400000e-07	-2.829436e-06	-6.676036e-09	-2.143288e+01	-4.371192e+02
8.500000e-07	-2.822758e-06	-6.671014e-09	-2.138230e+01	-4.365444e+02
8.600000e-07	-2.815977e-06	-6.667087e-09	-2.133093e+01	-4.359722e+02
8.700000e-07	-2.809115e-06	-6.640498e-09	-2.127896e+01	-4.354023e+02
8.800000e-07	-2.802207e-06	-6.632491e-09	-2.122662e+01	-4.348343e+02
8.900000e-07	-2.795237e-06	-6.627173e-09	-2.117383e+01	-4.342674e+02
9.000000e-07	-2.788192e-06	-6.617354e-09	-2.112046e+01	-4.337008e+02
9.100000e-07	-2.781079e-06	-6.603997e-09	-2.106658e+01	-4.331337e+02
9.200000e-07	-2.773875e-06	-6.582587e-09	-2.101201e+01	-4.325653e+02
9.300000e-07	-2.766609e-06	-6.582429e-09	-2.095697e+01	-4.319949e+02
9.400000e-07	-2.759285e-06	-6.574352e-09	-2.090149e+01	-4.314220e+02
9.500000e-07	-2.751898e-06	-6.565403e-09	-2.084554e+01	-4.308460e+02
9.600000e-07	-2.744422e-06	-6.549336e-09	-2.078891e+01	-4.302669e+02
9.700000e-07	-2.736853e-06	-6.539297e-09	-2.073157e+01	-4.296848e+02
9.800000e-07	-2.729214e-06	-6.540751e-09	-2.067370e+01	-4.290997e+02
9.900000e-07	-2.721478e-06	-6.529811e-09	-2.061511e+01	-4.285124e+02
1.000000e-06	-2.713667e-06	-6.518017e-09	-2.055594e+01	-4.279232e+02
1.010000e-06	-2.705792e-06	-6.497991e-09	-2.049628e+01	-4.273331e+02
1.020000e-06	-2.697852e-06	-6.490444e-09	-2.043614e+01	-4.267428e+02
1.030000e-06	-2.689819e-06	-6.477723e-09	-2.037529e+01	-4.261531e+02
1.040000e-06	-2.681683e-06	-6.458267e-09	-2.031366e+01	-4.255648e+02
1.050000e-06	-2.673473e-06	-6.449151e-09	-2.025147e+01	-4.249785e+02
1.060000e-06	-2.665196e-06	-6.441931e-09	-2.018877e+01	-4.243946e+02
1.070000e-06	-2.656849e-06	-6.443970e-09	-2.012555e+01	-4.238133e+02
1.080000e-06	-2.648421e-06	-6.432678e-09	-2.006171e+01	-4.232344e+02
1.090000e-06	-2.639935e-06	-6.421190e-09	-1.999742e+01	-4.226575e+02
1.100000e-06	-2.631410e-06	-6.410850e-09	-1.993285e+01	-4.220817e+02
1.110000e-06	-2.622848e-06	-6.399741e-09	-1.986799e+01	-4.215062e+02
1.120000e-06	-2.614240e-06	-6.389930e-09	-1.980278e+01	-4.209293e+02
1.130000e-06	-2.605551e-06	-6.370863e-09	-1.973697e+01	-4.203496e+02
1.140000e-06	-2.596791e-06	-6.362114e-09	-1.967061e+01	-4.197652e+02
1.150000e-06	-2.587975e-06	-6.356677e-09	-1.960383e+01	-4.191741e+02
1.160000e-06	-2.579105e-06	-6.354129e-09	-1.953663e+01	-4.185743e+02
1.170000e-06	-2.570181e-06	-6.344131e-09	-1.946904e+01	-4.179637e+02
1.180000e-06	-2.561206e-06	-6.329521e-09	-1.940105e+01	-4.173406e+02
1.190000e-06	-2.552161e-06	-6.319562e-09	-1.933253e+01	-4.167030e+02
1.200000e-06	-2.543009e-06	-6.299855e-09	-1.926321e+01	-4.160496e+02
1.210000e-06	-2.533756e-06	-6.279866e-09	-1.919312e+01	-4.153790e+02
1.220000e-06	-2.524442e-06	-6.258554e-09	-1.912257e+01	-4.146903e+02
1.230000e-06	-2.515087e-06	-6.248476e-09	-1.905170e+01	-4.139830e+02
1.240000e-06	-2.505680e-06	-6.245578e-09	-1.898045e+01	-4.132568e+02
1.250000e-06	-2.496214e-06	-6.237489e-09	-1.890874e+01	-4.125117e+02
1.260000e-06	-2.486684e-06	-6.228456e-09	-1.883655e+01	-4.117482e+02
1.270000e-06	-2.477089e-06	-6.213628e-09	-1.876387e+01	-4.109669e+02
1.280000e-06	-2.467444e-06	-6.196970e-09	-1.869080e+01	-4.101686e+02
1.290000e-06	-2.457741e-06	-6.172363e-09	-1.861731e+01	-4.093543e+02
1.300000e-06	-2.447979e-06	-6.149751e-09	-1.854336e+01	-4.085250e+02
1.310000e-06	-2.438153e-06	-6.134209e-09	-1.846893e+01	-4.076820e+02
1.320000e-06	-2.428239e-06	-6.124607e-09	-1.839383e+01	-4.068262e+02
1.330000e-06	-2.418226e-06	-6.117476e-09	-1.831798e+01	-4.059585e+02
1.340000e-06	-2.408134e-06	-6.102816e-09	-1.824154e+01	-4.050798e+02
1.350000e-06	-2.398002e-06	-6.089099e-09	-1.816478e+01	-4.041908e+02
1.360000e-06	-2.387823e-06	-6.073806e-09	-1.808768e+01	-4.032920e+02
1.370000e-06	-2.377592e-06	-6.057159e-09	-1.801018e+01	-4.023836e+02
1.380000e-06	-2.367304e-06	-6.036111e-09	-1.793225e+01	-4.014658e+02
1.390000e-06	-2.356952e-06	-6.015267e-09	-1.785383e+01	-4.005386e+02
1.400000e-06	-2.346544e-06	-6.000933e-09	-1.777500e+01	-3.996020e+02
1.410000e-06	-2.336076e-06	-5.985604e-09	-1.769570e+01	-3.986559e+02
1.420000e-06	-2.325561e-06	-5.970658e-09	-1.761605e+01	-3.977001e+02
1.430000e-06	-2.315004e-06	-5.952436e-09	-1.753608e+01	-3.967345e+02
1.440000e-06	-2.304383e-06	-5.938268e-09	-1.745562e+01	-3.957593e+02
1.450000e-06	-2.293667e-06	-5.928457e-09	-1.737445e+01	-3.947745e+02
1.460000e-06	-2.282849e-06	-5.917686e-09	-1.729251e+01	-3.937806e+02
1.470000e-06	-2.271964e-06	-5.905995e-09	-1.721005e+01	-3.927781e+02
1.480000e-06	-2.261037e-06	-5.889821e-09	-1.712728e+01	-3.917676e+02
1.490000e-06	-2.250071e-06	-5.871393e-09	-1.704421e+01	-3.907503e+02
1.500000e-06	-2.239046e-06	-5.848853e-09	-1.696070e+01	-3.897270e+02
1.510000e-06	-2.227965e-06	-5.829819e-09	-1.687676e+01	-3.886992e+02
1.520000e-06	-2.216841e-06	-5.809910e-09	-1.679250e+01	-3.876682e+02
1.530000e-06	-2.205663e-06	-5.789891e-09	-1.670782e+01	-3.866352e+02
1.540000e-06	-2.194430e-06	-5.778366e-09	-1.662274e+01	-3.856016e+02
1.550000e-06	-2.183153e-06	-5.767200e-09	-1.653731e+01	-3.845686e+02
1.560000e-06	-2.171832e-06	-5.754525e-09	-1.645155e+01	-3.835374e+02
1.570000e-06	-2.160452e-06	-5.734446e-09	-1.636535e+01	-3.825088e+02
1.580000e-06	-2.148994e-06	-5.713179e-09	-1.627856e+01	-3.814833e+02
1.590000e-06	-2.137451e-06	-5.695148e-09	-1.619112e+01	-3.804613e+02
1.600000e-06	-2.125824e-06	-5.677048e-09	-1.610305e+01	-3.794428e+02
1.610000e-06	-2.114135e-06	-5.662363e-09	-1.601450e+01	-3.784274e+02
1.620000e-06	-2.102400e-06	-5.645227e-09	-1.592561e+01	-3.774145e+02
1.630000e-06	-2.090618e-06	-5.632659e-09	-1.583636e+01	-3.764031e+02
1.640000e-06	-2.078786e-06	-5.624590e-09	-1.574674e+01	-3.753921e+02
1.650000e-06	-2.066893e-06	-5.612727e-09	-1.565665e+01	-3.743800e+02
1.660000e-06	-2.054947e-06	-5.595328e-09	-1.556615e+01	-3.733654e+02
1.670000e-06	-2.042957e-06	-5.575148e-09	-1.547533e+01	-3.723466e+02
1.680000e-06	-2.030930e-06	-5.559011e-09	-1.538423e+01	-3.713220e+02
1.690000e-06	-2.018857e-06	-5.539379e-09	-1.529277e+01	-3.702902e+02
1.700000e-06	-2.006737e-06	-5.515873e-09	-1.520097e+01	-3.692496e+02
1.710000e-06	-1.994565e-06	-5.492219e-09	-1.510877e+01	-3.681990e+02
1.720000e-06	-1.982337e-06	-5.476364e-09	-1.501614e+01	-3.671374e+02
1.730000e-06	-1.970038e-06	-5.470448e-09	-1.492297e+01	-3.660640e+02
1.740000e-06	-1.957668e-06	-5.459690e-09	-1.482927e+01	-3.649782e+02
1.750000e-06	-1.945246e-06	-5.440961e-09	-1.473517e+01	-3.638798e+02
1.760000e-06	-1.932763e-06	-5.417004e-09	-1.464062e+01	-3.627685e+02
1.770000e-06	-1.920241e-06	-5.396083e-09	-1.454576e+01	-3.616446e+02
1.780000e-06	-1.907684e-06	-5.375798e-09	-1.445064e+01	-3.605081e+02
1.790000e-06	-1.895081e-06	-5.353744e-09	-1.435517e+01	-3.593594e+02
1.800000e-06	-1.882429e-06	-5.335682e-09	-1.425934e+01	-3.581989e+02
1.810000e-06	-1.869727e-06	-5.319239e-09	-1.416312e+01	-3.570269e+02
1.820000e-06	-1.856972e-06	-5.307349e-09	-1.406650e+01	-3.558435e+02
1.830000e-06	-1.844173e-06	-5.290049e-09	-1.396955e+01	-3.546489e+02
1.840000e-06	-1.831334e-06	-5.268252e-09	-1.387229e+01	-3.534429e+02
1.850000e-06	-1.818463e-06	-5.250768e-09	-1.377480e+01	-3.522254e+02
1.860000e-06	-1.805560e-06	-5.234790e-09	-1.367706e+01	-3.509959e+02
1.870000e-06	-1.792605e-06	-5.218912e-09	-1.357892e+01	-3.497537e+02
1.880000e-06	-1.779593e-06	-5.194383e-09	-1.348036e+01	-3.484979e+02
1.890000e-06	-1.766537e-06	-5.168322e-09	-1.338146e+01	-3.472276e+02
1.900000e-06	-1.753431e-06	-5.143075e-09	-1.328218e+01	-3.459418e+02
1.910000e-06	-1.740247e-06	-5.120255e-09	-1.318232e+01	-3.446393e+02
1.920000e-06	-1.727000e-06	-5.100581e-09	-1.308197e+01	-3.433190e+02
1.930000e-06	-1.713721e-06	-5.082825e-09	-1.298138e+01	-3.419800e+02
1.940000e-06	-1.700404e-06	-5.067287e-09	-1.288050e+01	-3.406213e+02
1.950000e-06	-1.687050e-06	-5.047390e-09	-1.277935e+01	-3.392425e+02
1.960000e-06	-1.673666e-06	-5.026808e-09	-1.267796e+01	-3.378432e+02
1.970000e-06	-1.660247e-06	-5.001345e-09	-1.257631e+01	-3.364231e+02
1.980000e-06	-1.646787e-06	-4.971224e-09	-1.247436e+01	-3.349827e+02
1.990000e-06	-1.633283e-06	-4.942871e-09	-1.237207e+01	-3.335224e+02
2.000000e-06	-1.619730e-06	-4.918116e-09	-1.226940e+01	-3.320432e+02
2.010000e-06	-1.606146e-06	-4.895964e-09	-1.216650e+01	-3.305463e+02
2.020000e-06	-1.592528e-06	-4.873756e-09	-1.206334e+01	-3.290330e+02
2.030000e-06	-1.578870e-06	-4.852596e-09	-1.195989e+01	-3.275049e+02
2.040000e-06	-1.565181e-06	-4.832214e-09	-1.185619e+01	-3.259639e+02
2.050000e-06	-1.551451e-06	-4.812496e-09	-1.175219e+01	-3.244117e+02
2.060000e-06	-1.537682e-06	-4.790236e-09	-1.164789e+01	-3.228501e+02
2.070000e-06	-1.523876e-06	-4.765400e-09	-1.154331e+01	-3.212809e+02
2.080000e-06	-1.510028e-06	-4.742582e-09	-1.143841e+01	-3.197056e+02
2.090000e-06	-1.496136e-06	-4.719314e-09	-1.133318e+01	-3.181257e+02
2.100000e-06	-1.482178e-06	-4.696666e-09	-1.122745e+01	-3.165422e+02
2.110000e-06	-1.468158e-06	-4.670338e-09	-1.112125e+01	-3.149560e+02
2.120000e-06	-1.454089e-06	-4.640781e-09	-1.101468e+01	-3.133678e+02
2.130000e-06	-1.439979e-06	-4.613694e-09	-1.090779e+01	-3.117779e+02
2.140000e-06	-1.425843e-06	-4.590128e-09	-1.080071e+01	-3.101863e+02
2.150000e-06	-1.411676e-06	-4.570698e-09	-1.069340e+01	-3.085930e+02
2.160000e-06	-1.397471e-06	-4.549933e-09	-1.058579e+01	-3.069976e+02
2.170000e-06	-1.383229e-06	-4.527371e-09	-1.047791e+01	-3.053996e+02
2.180000e-06	-1.368956e-06	-4.501890e-09	-1.036980e+01	-3.037987e+02
2.190000e-06	-1.354640e-06	-4.476535e-09	-1.026135e+01	-3.021943e+02
2.200000e-06	-1.340274e-06	-4.452145e-09	-1.015253e+01	-3.005860e+02
2.210000e-06	-1.325877e-06	-4.425234e-09	-1.004348e+01	-2.989735e+02
2.220000e-06	-1.311434e-06	-4.401443e-09	-9.934068e+00	-2.973567e+02
2.230000e-06	-1.296949e-06	-4.380687e-09	-9.824348e+00	-2.957356e+02
2.240000e-06	-1.282425e-06	-4.361097e-09	-9.714325e+00	-2.941106e+02
2.250000e-06	-1.267862e-06	-4.342171e-09	-9.604009e+00	-2.924821e+02
2.260000e-06	-1.253273e-06	-4.322557e-09	-9.493499e+00	-2.908509e+02
2.270000e-06	-1.238639e-06	-4.299563e-09	-9.382653e+00	-2.892177e+02
2.280000e-06	-1.223968e-06	-4.274939e-09	-9.271521e+00	-2.875835e+02
2.290000e-06	-1.209276e-06	-4.250532e-09	-9.160228e+00	-2.859494e+02
2.300000e-06	-1.194555e-06	-4.222415e-09	-9.048716e+00	-2.843163e+02
2.310000e-06	-1.179805e-06	-4.195594e-09	-8.936988e+00	-2.826852e+02
2.320000e-06	-1.165022e-06	-4.170997e-09	-8.825006e+00	-2.810570e+02
2.330000e-06	-1.150208e-06	-4.148764e-09	-8.712791e+00	-2.794321e+02
2.340000e-06	-1.135377e-06	-4.129424e-09	-8.600447e+00	-2.778110e+02
2.350000e-06	-1.120529e-06	-4.109116e-09	-8.487970e+00	-2.761936e+02
2.360000e-06	-1.105660e-06	-4.089887e-09	-8.375340e+00	-2.745796e+02
2.370000e-06	-1.090764e-06	-4.069555e-09	-8.262498e+00	-2.729683e+02
2.380000e-06	-1.075845e-06	-4.047105e-09	-8.149490e+00	-2.713585e+02
2.390000e-06	-1.060912e-06	-4.019834e-09	-8.036374e+00	-2.697488e+02
2.400000e-06	-1.045958e-06	-3.988887e-09	-7.923095e+00	-2.681376e+02
2.410000e-06	-1.030977e-06	-3.961460e-09	-7.809620e+00	-2.665227e+02
2.420000e-06	-1.015965e-06	-3.937911e-09	-7.695898e+00	-2.649018e+02
2.430000e-06	-1.000925e-06	-3.917386e-09	-7.581975e+00	-2.632727e+02
2.440000e-06	-9.858742e-07	-3.897616e-09	-7.467964e+00	-2.616329e+02
2.450000e-06	-9.708035e-07	-3.876623e-09	-7.353805e+00	-2.599799e+02
2.460000e-06	-9.557025e-07	-3.853034e-09	-7.239415e+00	-2.583115e+02
2.470000e-06	-9.405786e-07	-3.826829e-09	-7.124852e+00	-2.566255e+02
2.480000e-06	-9.254332e-07	-3.799380e-09	-7.010126e+00	-2.549200e+02
2.490000e-06	-9.102671e-07	-3.769631e-09	-6.895244e+00	-2.531934e+02
2.500000e-06	-8.950787e-07	-3.743477e-09	-6.780191e+00	-2.514444e+02
2.510000e-06	-8.798665e-07	-3.719462e-09	-6.664960e+00	-2.496721e+02
2.520000e-06	-8.646341e-07	-3.695518e-09	-6.549575e+00	-2.478760e+02
2.530000e-06	-8.493708e-07	-3.671708e-09	-6.433956e+00	-2.460558e+02
2.540000e-06	-8.340856e-07	-3.646957e-09	-6.318171e+00	-2.442117e+02
2.550000e-06	-8.187856e-07	-3.624901e-09	-6.202274e+00	-2.423442e+02
2.560000e-06	-8.034560e-07	-3.596385e-09	-6.086153e+00	-2.404539e+02
2.570000e-06	-7.881132e-07	-3.562470e-09	-5.969932e+00	-2.385416e+02
2.580000e-06	-7.727579e-07	-3.528605e-09	-5.853615e+00	-2.366086e+02
2.590000e-06	-7.573709e-07	-3.495500e-09	-5.737059e+00	-2.346558e+02
2.600000e-06	-7.419645e-07	-3.464842e-09	-5.620357e+00	-2.326844e+02
2.610000e-06	-7.265427e-07	-3.433398e-09	-5.503537e+00	-2.306956e+02
2.620000e-06	-7.110926e-07	-3.405314e-09	-5.386503e+00	-2.286903e+02
2.630000e-06	-6.956157e-07	-3.378432e-09	-5.269266e+00	-2.266697e+02
2.640000e-06	-6.801234e-07	-3.351189e-09	-5.151912e+00	-2.246343e+02
2.650000e-06	-6.645856e-07	-3.322260e-09	-5.034214e+00	-2.225851e+02
2.660000e-06	-6.490104e-07	-3.289456e-09	-4.916233e+00	-2.205225e+02
2.670000e-06	-6.334210e-07	-3.259720e-09	-4.798144e+00	-2.184470e+02
2.680000e-06	-6.178009e-07	-3.231362e-09	-4.679821e+00	-2.163588e+02
2.690000e-06	-6.021650e-07	-3.200266e-09	-4.561380e+00	-2.142582e+02
2.700000e-06	-5.865191e-07	-3.165304e-09	-4.442863e+00	-2.121454e+02
2.710000e-06	-5.708552e-07	-3.131816e-09	-4.324209e+00	-2.100206e+02
2.720000e-06	-5.551754e-07	-3.101327e-09	-4.205435e+00	-2.078838e+02
2.730000e-06	-5.394841e-07	-3.070322e-09	-4.086574e+00	-2.057352e+02
2.740000e-06	-5.237825e-07	-3.036280e-09	-3.967635e+00	-2.035752e+02
2.750000e-06	-5.080701e-07	-2.997193e-09	-3.848614e+00	-2.014040e+02
2.760000e-06	-4.923502e-07	-2.964015e-09	-3.729536e+00	-1.992220e+02
2.770000e-06	-4.766213e-07	-2.937612e-09	-3.610391e+00	-1.970299e+02
2.780000e-06	-4.608835e-07	-2.909532e-09	-3.491177e+00	-1.948281e+02
2.790000e-06	-4.451365e-07	-2.877541e-09	-3.371894e+00	-1.926173e+02
2.800000e-06	-4.293746e-07	-2.845128e-09	-3.252498e+00	-1.903984e+02
2.810000e-06	-4.136054e-07	-2.817129e-09	-3.133047e+00	-1.881721e+02
2.820000e-06	-3.978377e-07	-2.786398e-09	-3.013608e+00	-1.859391e+02
2.830000e-06	-3.820694e-07	-2.748431e-09	-2.894163e+00	-1.837004e+02
2.840000e-06	-3.662935e-07	-2.711166e-09	-2.774661e+00	-1.814566e+02
