# Temperatura_=_20.0
# Concentracion g/m^3_=_10000.0
# C_Vs_to_Am_M_A/Vsm_=_65563218390.804596
# pendiente_HvsI_1/m_=_3716.3
# ordenada_HvsI_A/m_=_1297.0
# frecuencia_Hz_=_81162.55407706938

Tiempo_(s)	Campo_(V.s)	Magnetizacion_(V.s)	Campo_(kA/m)	Magnetizacion_(A/m)
0.000000e+00	-3.113861e-06	-7.000341e-09	-2.356001e+01	-4.583656e+02
1.000000e-08	-3.113844e-06	-6.972232e-09	-2.355989e+01	-4.583514e+02
2.000000e-08	-3.113945e-06	-7.048376e-09	-2.356065e+01	-4.583273e+02
3.000000e-08	-3.113992e-06	-7.030817e-09	-2.356101e+01	-4.582964e+02
4.000000e-08	-3.113863e-06	-6.956139e-09	-2.356003e+01	-4.582621e+02
5.000000e-08	-3.113582e-06	-7.005974e-09	-2.355791e+01	-4.582270e+02
6.000000e-08	-3.113192e-06	-7.011910e-09	-2.355496e+01	-4.581937e+02
7.000000e-08	-3.112696e-06	-7.028623e-09	-2.355120e+01	-4.581642e+02
8.000000e-08	-3.112088e-06	-6.993447e-09	-2.354660e+01	-4.581398e+02
9.000000e-08	-3.111403e-06	-6.942351e-09	-2.354142e+01	-4.581214e+02
1.000000e-07	-3.110671e-06	-6.988211e-09	-2.353588e+01	-4.581092e+02
1.100000e-07	-3.109942e-06	-7.011011e-09	-2.353037e+01	-4.581026e+02
1.200000e-07	-3.109125e-06	-7.028829e-09	-2.352418e+01	-4.581007e+02
1.300000e-07	-3.108208e-06	-6.992313e-09	-2.351724e+01	-4.581020e+02
1.400000e-07	-3.107201e-06	-6.979953e-09	-2.350963e+01	-4.581044e+02
1.500000e-07	-3.106106e-06	-6.992735e-09	-2.350134e+01	-4.581059e+02
1.600000e-07	-3.104929e-06	-6.976410e-09	-2.349244e+01	-4.581040e+02
1.700000e-07	-3.103642e-06	-6.990800e-09	-2.348270e+01	-4.580962e+02
1.800000e-07	-3.102309e-06	-6.963663e-09	-2.347261e+01	-4.580804e+02
1.900000e-07	-3.100883e-06	-6.989909e-09	-2.346183e+01	-4.580544e+02
2.000000e-07	-3.099330e-06	-6.982084e-09	-2.345008e+01	-4.580166e+02
2.100000e-07	-3.097636e-06	-6.982134e-09	-2.343726e+01	-4.579656e+02
2.200000e-07	-3.095861e-06	-6.974996e-09	-2.342382e+01	-4.579006e+02
2.300000e-07	-3.094056e-06	-6.951677e-09	-2.341017e+01	-4.578214e+02
2.400000e-07	-3.092160e-06	-6.979425e-09	-2.339583e+01	-4.577282e+02
2.500000e-07	-3.090192e-06	-6.970167e-09	-2.338093e+01	-4.576219e+02
2.600000e-07	-3.088157e-06	-6.972961e-09	-2.336554e+01	-4.575036e+02
2.700000e-07	-3.086048e-06	-6.947672e-09	-2.334958e+01	-4.573751e+02
2.800000e-07	-3.083844e-06	-6.950097e-09	-2.333290e+01	-4.572381e+02
2.900000e-07	-3.081549e-06	-6.963187e-09	-2.331554e+01	-4.570949e+02
3.000000e-07	-3.079190e-06	-6.944309e-09	-2.329769e+01	-4.569475e+02
3.100000e-07	-3.076765e-06	-6.950080e-09	-2.327934e+01	-4.567980e+02
3.200000e-07	-3.074300e-06	-6.938998e-09	-2.326069e+01	-4.566484e+02
3.300000e-07	-3.071764e-06	-6.953283e-09	-2.324151e+01	-4.565001e+02
3.400000e-07	-3.069156e-06	-6.936720e-09	-2.322177e+01	-4.563545e+02
3.500000e-07	-3.066441e-06	-6.917568e-09	-2.320123e+01	-4.562124e+02
3.600000e-07	-3.063585e-06	-6.918545e-09	-2.317962e+01	-4.560739e+02
3.700000e-07	-3.060656e-06	-6.912695e-09	-2.315746e+01	-4.559390e+02
3.800000e-07	-3.057658e-06	-6.929260e-09	-2.313478e+01	-4.558069e+02
3.900000e-07	-3.054596e-06	-6.910900e-09	-2.311161e+01	-4.556764e+02
4.000000e-07	-3.051456e-06	-6.912368e-09	-2.308785e+01	-4.555461e+02
4.100000e-07	-3.048244e-06	-6.910416e-09	-2.306354e+01	-4.554141e+02
4.200000e-07	-3.044984e-06	-6.905921e-09	-2.303888e+01	-4.552783e+02
4.300000e-07	-3.041661e-06	-6.899635e-09	-2.301374e+01	-4.551366e+02
4.400000e-07	-3.038251e-06	-6.878093e-09	-2.298794e+01	-4.549869e+02
4.500000e-07	-3.034727e-06	-6.887675e-09	-2.296127e+01	-4.548271e+02
4.600000e-07	-3.031113e-06	-6.882155e-09	-2.293393e+01	-4.546555e+02
4.700000e-07	-3.027415e-06	-6.886608e-09	-2.290595e+01	-4.544705e+02
4.800000e-07	-3.023642e-06	-6.875876e-09	-2.287740e+01	-4.542710e+02
4.900000e-07	-3.019804e-06	-6.865865e-09	-2.284836e+01	-4.540563e+02
5.000000e-07	-3.015889e-06	-6.870742e-09	-2.281875e+01	-4.538260e+02
5.100000e-07	-3.011901e-06	-6.856551e-09	-2.278857e+01	-4.535802e+02
5.200000e-07	-3.007825e-06	-6.851525e-09	-2.275773e+01	-4.533195e+02
5.300000e-07	-3.003697e-06	-6.833860e-09	-2.272650e+01	-4.530447e+02
5.400000e-07	-2.999498e-06	-6.837983e-09	-2.269473e+01	-4.527569e+02
5.500000e-07	-2.995174e-06	-6.842333e-09	-2.266201e+01	-4.524573e+02
5.600000e-07	-2.990744e-06	-6.838004e-09	-2.262849e+01	-4.521475e+02
5.700000e-07	-2.986250e-06	-6.837141e-09	-2.259449e+01	-4.518286e+02
5.800000e-07	-2.981702e-06	-6.825974e-09	-2.256008e+01	-4.515022e+02
5.900000e-07	-2.977075e-06	-6.827366e-09	-2.252507e+01	-4.511691e+02
6.000000e-07	-2.972367e-06	-6.811830e-09	-2.248945e+01	-4.508304e+02
6.100000e-07	-2.967580e-06	-6.802944e-09	-2.245323e+01	-4.504866e+02
6.200000e-07	-2.962723e-06	-6.796446e-09	-2.241648e+01	-4.501378e+02
6.300000e-07	-2.957783e-06	-6.792855e-09	-2.237910e+01	-4.497839e+02
6.400000e-07	-2.952741e-06	-6.796918e-09	-2.234096e+01	-4.494244e+02
6.500000e-07	-2.947605e-06	-6.786776e-09	-2.230210e+01	-4.490585e+02
6.600000e-07	-2.942352e-06	-6.782621e-09	-2.226235e+01	-4.486850e+02
6.700000e-07	-2.937011e-06	-6.766422e-09	-2.222194e+01	-4.483026e+02
6.800000e-07	-2.931593e-06	-6.758277e-09	-2.218095e+01	-4.479099e+02
6.900000e-07	-2.926087e-06	-6.753088e-09	-2.213928e+01	-4.475053e+02
7.000000e-07	-2.920525e-06	-6.742962e-09	-2.209721e+01	-4.470874e+02
7.100000e-07	-2.914898e-06	-6.742788e-09	-2.205463e+01	-4.466550e+02
7.200000e-07	-2.909200e-06	-6.739796e-09	-2.201151e+01	-4.462068e+02
7.300000e-07	-2.903443e-06	-6.742854e-09	-2.196796e+01	-4.457421e+02
7.400000e-07	-2.897611e-06	-6.729934e-09	-2.192383e+01	-4.452605e+02
7.500000e-07	-2.891661e-06	-6.713363e-09	-2.187881e+01	-4.447619e+02
7.600000e-07	-2.885615e-06	-6.702222e-09	-2.183307e+01	-4.442466e+02
7.700000e-07	-2.879510e-06	-6.687708e-09	-2.178687e+01	-4.437154e+02
7.800000e-07	-2.873326e-06	-6.676512e-09	-2.174009e+01	-4.431696e+02
7.900000e-07	-2.867066e-06	-6.660059e-09	-2.169272e+01	-4.426105e+02
8.000000e-07	-2.860748e-06	-6.653589e-09	-2.164492e+01	-4.420401e+02
8.100000e-07	-2.854368e-06	-6.645003e-09	-2.159665e+01	-4.414603e+02
8.200000e-07	-2.847919e-06	-6.635477e-09	-2.154785e+01	-4.408732e+02
8.300000e-07	-2.841420e-06	-6.622435e-09	-2.149868e+01	-4.402812e+02
8.400000e-07	-2.834857e-06	-6.606124e-09	-2.144902e+01	-4.396864e+02
8.500000e-07	-2.828205e-06	-6.598489e-09	-2.139869e+01	-4.390908e+02
8.600000e-07	-2.821460e-06	-6.586433e-09	-2.134766e+01	-4.384964e+02
8.700000e-07	-2.814614e-06	-6.578384e-09	-2.129586e+01	-4.379046e+02
8.800000e-07	-2.807704e-06	-6.566078e-09	-2.124358e+01	-4.373168e+02
8.900000e-07	-2.800742e-06	-6.557867e-09	-2.119091e+01	-4.367338e+02
9.000000e-07	-2.793704e-06	-6.550034e-09	-2.113765e+01	-4.361561e+02
9.100000e-07	-2.786593e-06	-6.535139e-09	-2.108385e+01	-4.355839e+02
9.200000e-07	-2.779409e-06	-6.526591e-09	-2.102949e+01	-4.350169e+02
9.300000e-07	-2.772168e-06	-6.514627e-09	-2.097471e+01	-4.344544e+02
9.400000e-07	-2.764877e-06	-6.505786e-09	-2.091954e+01	-4.338955e+02
9.500000e-07	-2.757520e-06	-6.492427e-09	-2.086388e+01	-4.333390e+02
9.600000e-07	-2.750064e-06	-6.478691e-09	-2.080746e+01	-4.327834e+02
9.700000e-07	-2.742497e-06	-6.472855e-09	-2.075021e+01	-4.322271e+02
9.800000e-07	-2.734856e-06	-6.466949e-09	-2.069240e+01	-4.316686e+02
9.900000e-07	-2.727153e-06	-6.459636e-09	-2.063412e+01	-4.311061e+02
1.000000e-06	-2.719383e-06	-6.443980e-09	-2.057533e+01	-4.305380e+02
1.010000e-06	-2.711528e-06	-6.433433e-09	-2.051590e+01	-4.299628e+02
1.020000e-06	-2.703604e-06	-6.425226e-09	-2.045594e+01	-4.293792e+02
1.030000e-06	-2.695599e-06	-6.415469e-09	-2.039537e+01	-4.287858e+02
1.040000e-06	-2.687465e-06	-6.402978e-09	-2.033383e+01	-4.281817e+02
1.050000e-06	-2.679240e-06	-6.388563e-09	-2.027160e+01	-4.275660e+02
1.060000e-06	-2.670970e-06	-6.381223e-09	-2.020903e+01	-4.269383e+02
1.070000e-06	-2.662651e-06	-6.370178e-09	-2.014608e+01	-4.262981e+02
1.080000e-06	-2.654261e-06	-6.361329e-09	-2.008261e+01	-4.256454e+02
1.090000e-06	-2.645805e-06	-6.350441e-09	-2.001862e+01	-4.249800e+02
1.100000e-06	-2.637304e-06	-6.338480e-09	-1.995430e+01	-4.243022e+02
1.110000e-06	-2.628767e-06	-6.329148e-09	-1.988971e+01	-4.236124e+02
1.120000e-06	-2.620170e-06	-6.315902e-09	-1.982467e+01	-4.229108e+02
1.130000e-06	-2.611493e-06	-6.304434e-09	-1.975902e+01	-4.221982e+02
1.140000e-06	-2.602753e-06	-6.288357e-09	-1.969288e+01	-4.214749e+02
1.150000e-06	-2.593942e-06	-6.274430e-09	-1.962622e+01	-4.207416e+02
1.160000e-06	-2.585074e-06	-6.262783e-09	-1.955912e+01	-4.199988e+02
1.170000e-06	-2.576155e-06	-6.248004e-09	-1.949164e+01	-4.192471e+02
1.180000e-06	-2.567175e-06	-6.235791e-09	-1.942370e+01	-4.184871e+02
1.190000e-06	-2.558132e-06	-6.225728e-09	-1.935527e+01	-4.177191e+02
1.200000e-06	-2.548991e-06	-6.214604e-09	-1.928611e+01	-4.169436e+02
1.210000e-06	-2.539743e-06	-6.194839e-09	-1.921614e+01	-4.161610e+02
1.220000e-06	-2.530433e-06	-6.177946e-09	-1.914570e+01	-4.153714e+02
1.230000e-06	-2.521089e-06	-6.166308e-09	-1.907500e+01	-4.145752e+02
1.240000e-06	-2.511696e-06	-6.153978e-09	-1.900393e+01	-4.137723e+02
1.250000e-06	-2.502240e-06	-6.139918e-09	-1.893238e+01	-4.129628e+02
1.260000e-06	-2.492729e-06	-6.122878e-09	-1.886042e+01	-4.121465e+02
1.270000e-06	-2.483150e-06	-6.109917e-09	-1.878795e+01	-4.113234e+02
1.280000e-06	-2.473501e-06	-6.092002e-09	-1.871494e+01	-4.104930e+02
1.290000e-06	-2.463805e-06	-6.071941e-09	-1.864158e+01	-4.096551e+02
1.300000e-06	-2.454051e-06	-6.056385e-09	-1.856778e+01	-4.088091e+02
1.310000e-06	-2.444232e-06	-6.044614e-09	-1.849349e+01	-4.079547e+02
1.320000e-06	-2.434331e-06	-6.036655e-09	-1.841857e+01	-4.070911e+02
1.330000e-06	-2.424325e-06	-6.027106e-09	-1.834287e+01	-4.062179e+02
1.340000e-06	-2.414247e-06	-6.014517e-09	-1.826661e+01	-4.053343e+02
1.350000e-06	-2.404128e-06	-5.998627e-09	-1.819005e+01	-4.044398e+02
1.360000e-06	-2.393962e-06	-5.984592e-09	-1.811314e+01	-4.035338e+02
1.370000e-06	-2.383732e-06	-5.967395e-09	-1.803574e+01	-4.026157e+02
1.380000e-06	-2.373433e-06	-5.945202e-09	-1.795781e+01	-4.016851e+02
1.390000e-06	-2.363078e-06	-5.926368e-09	-1.787946e+01	-4.007417e+02
1.400000e-06	-2.352654e-06	-5.909760e-09	-1.780059e+01	-3.997853e+02
1.410000e-06	-2.342170e-06	-5.894792e-09	-1.772127e+01	-3.988158e+02
1.420000e-06	-2.331660e-06	-5.877285e-09	-1.764175e+01	-3.978335e+02
1.430000e-06	-2.321112e-06	-5.859521e-09	-1.756194e+01	-3.968385e+02
1.440000e-06	-2.310490e-06	-5.847374e-09	-1.748157e+01	-3.958315e+02
1.450000e-06	-2.299773e-06	-5.836443e-09	-1.740048e+01	-3.948132e+02
1.460000e-06	-2.288960e-06	-5.820432e-09	-1.731867e+01	-3.937843e+02
1.470000e-06	-2.278080e-06	-5.799808e-09	-1.723635e+01	-3.927460e+02
1.480000e-06	-2.267166e-06	-5.783896e-09	-1.715377e+01	-3.916993e+02
1.490000e-06	-2.256228e-06	-5.768239e-09	-1.707102e+01	-3.906455e+02
1.500000e-06	-2.245235e-06	-5.748747e-09	-1.698784e+01	-3.895858e+02
1.510000e-06	-2.234179e-06	-5.726782e-09	-1.690419e+01	-3.885214e+02
1.520000e-06	-2.223069e-06	-5.706141e-09	-1.682013e+01	-3.874536e+02
1.530000e-06	-2.211902e-06	-5.692360e-09	-1.673564e+01	-3.863834e+02
1.540000e-06	-2.200680e-06	-5.678764e-09	-1.665073e+01	-3.853118e+02
1.550000e-06	-2.189408e-06	-5.662336e-09	-1.656544e+01	-3.842395e+02
1.560000e-06	-2.178102e-06	-5.644405e-09	-1.647990e+01	-3.831673e+02
1.570000e-06	-2.166753e-06	-5.626187e-09	-1.639403e+01	-3.820953e+02
1.580000e-06	-2.155319e-06	-5.605298e-09	-1.630752e+01	-3.810238e+02
1.590000e-06	-2.143779e-06	-5.580651e-09	-1.622021e+01	-3.799527e+02
1.600000e-06	-2.132158e-06	-5.561402e-09	-1.613228e+01	-3.788818e+02
1.610000e-06	-2.120484e-06	-5.549472e-09	-1.604396e+01	-3.778105e+02
1.620000e-06	-2.108766e-06	-5.540087e-09	-1.595530e+01	-3.767382e+02
1.630000e-06	-2.096985e-06	-5.525985e-09	-1.586616e+01	-3.756643e+02
1.640000e-06	-2.085141e-06	-5.509663e-09	-1.577654e+01	-3.745879e+02
1.650000e-06	-2.073255e-06	-5.496644e-09	-1.568661e+01	-3.735082e+02
1.660000e-06	-2.061333e-06	-5.479196e-09	-1.559640e+01	-3.724244e+02
1.670000e-06	-2.049355e-06	-5.456807e-09	-1.550578e+01	-3.713359e+02
1.680000e-06	-2.037319e-06	-5.430137e-09	-1.541471e+01	-3.702418e+02
1.690000e-06	-2.025243e-06	-5.406479e-09	-1.532334e+01	-3.691419e+02
1.700000e-06	-2.013135e-06	-5.389912e-09	-1.523173e+01	-3.680356e+02
1.710000e-06	-2.000994e-06	-5.374801e-09	-1.513987e+01	-3.669228e+02
1.720000e-06	-1.988793e-06	-5.362923e-09	-1.504756e+01	-3.658035e+02
1.730000e-06	-1.976492e-06	-5.353494e-09	-1.495448e+01	-3.646775e+02
1.740000e-06	-1.964096e-06	-5.343000e-09	-1.486069e+01	-3.635452e+02
1.750000e-06	-1.951642e-06	-5.323408e-09	-1.476647e+01	-3.624067e+02
1.760000e-06	-1.939155e-06	-5.294742e-09	-1.467198e+01	-3.612622e+02
1.770000e-06	-1.926644e-06	-5.266835e-09	-1.457732e+01	-3.601119e+02
1.780000e-06	-1.914096e-06	-5.245293e-09	-1.448238e+01	-3.589559e+02
1.790000e-06	-1.901495e-06	-5.229700e-09	-1.438705e+01	-3.577943e+02
1.800000e-06	-1.888845e-06	-5.217077e-09	-1.429133e+01	-3.566268e+02
1.810000e-06	-1.876146e-06	-5.207334e-09	-1.419525e+01	-3.554531e+02
1.820000e-06	-1.863402e-06	-5.197113e-09	-1.409883e+01	-3.542725e+02
1.830000e-06	-1.850618e-06	-5.182578e-09	-1.400210e+01	-3.530844e+02
1.840000e-06	-1.837796e-06	-5.157586e-09	-1.390509e+01	-3.518878e+02
1.850000e-06	-1.824929e-06	-5.129326e-09	-1.380773e+01	-3.506814e+02
1.860000e-06	-1.812021e-06	-5.110030e-09	-1.371007e+01	-3.494639e+02
1.870000e-06	-1.799075e-06	-5.094391e-09	-1.361212e+01	-3.482339e+02
1.880000e-06	-1.786074e-06	-5.075218e-09	-1.351375e+01	-3.469900e+02
1.890000e-06	-1.773023e-06	-5.049581e-09	-1.341500e+01	-3.457308e+02
1.900000e-06	-1.759915e-06	-5.027454e-09	-1.331582e+01	-3.444549e+02
1.910000e-06	-1.746733e-06	-5.010525e-09	-1.321609e+01	-3.431612e+02
1.920000e-06	-1.733492e-06	-4.990662e-09	-1.311590e+01	-3.418487e+02
1.930000e-06	-1.720210e-06	-4.968321e-09	-1.301541e+01	-3.405169e+02
1.940000e-06	-1.706899e-06	-4.945770e-09	-1.291469e+01	-3.391655e+02
1.950000e-06	-1.693557e-06	-4.925607e-09	-1.281375e+01	-3.377945e+02
1.960000e-06	-1.680182e-06	-4.906734e-09	-1.271255e+01	-3.364045e+02
1.970000e-06	-1.666769e-06	-4.887087e-09	-1.261106e+01	-3.349964e+02
1.980000e-06	-1.653311e-06	-4.864798e-09	-1.250924e+01	-3.335713e+02
1.990000e-06	-1.639802e-06	-4.838778e-09	-1.240703e+01	-3.321308e+02
2.000000e-06	-1.626240e-06	-4.811720e-09	-1.230441e+01	-3.306769e+02
2.010000e-06	-1.612630e-06	-4.783003e-09	-1.220144e+01	-3.292113e+02
2.020000e-06	-1.598984e-06	-4.754605e-09	-1.209819e+01	-3.277364e+02
2.030000e-06	-1.585303e-06	-4.730020e-09	-1.199468e+01	-3.262543e+02
2.040000e-06	-1.571594e-06	-4.711282e-09	-1.189095e+01	-3.247671e+02
2.050000e-06	-1.557864e-06	-4.696999e-09	-1.178707e+01	-3.232766e+02
2.060000e-06	-1.544108e-06	-4.682130e-09	-1.168299e+01	-3.217848e+02
2.070000e-06	-1.530301e-06	-4.662199e-09	-1.157853e+01	-3.202929e+02
2.080000e-06	-1.516444e-06	-4.634500e-09	-1.147368e+01	-3.188021e+02
2.090000e-06	-1.502521e-06	-4.605759e-09	-1.136834e+01	-3.173130e+02
2.100000e-06	-1.488520e-06	-4.579014e-09	-1.126241e+01	-3.158259e+02
2.110000e-06	-1.474478e-06	-4.554777e-09	-1.115616e+01	-3.143407e+02
2.120000e-06	-1.460406e-06	-4.534368e-09	-1.104969e+01	-3.128568e+02
2.130000e-06	-1.446305e-06	-4.518265e-09	-1.094299e+01	-3.113733e+02
2.140000e-06	-1.432168e-06	-4.503685e-09	-1.083603e+01	-3.098891e+02
2.150000e-06	-1.417992e-06	-4.485513e-09	-1.072878e+01	-3.084029e+02
2.160000e-06	-1.403785e-06	-4.463518e-09	-1.062128e+01	-3.069131e+02
2.170000e-06	-1.389538e-06	-4.435539e-09	-1.051349e+01	-3.054181e+02
2.180000e-06	-1.375254e-06	-4.403776e-09	-1.040541e+01	-3.039165e+02
2.190000e-06	-1.360943e-06	-4.375887e-09	-1.029713e+01	-3.024068e+02
2.200000e-06	-1.346587e-06	-4.352501e-09	-1.018851e+01	-3.008879e+02
2.210000e-06	-1.332168e-06	-4.332648e-09	-1.007941e+01	-2.993588e+02
2.220000e-06	-1.317696e-06	-4.316088e-09	-9.969916e+00	-2.978188e+02
2.230000e-06	-1.303173e-06	-4.301162e-09	-9.860037e+00	-2.962676e+02
2.240000e-06	-1.288618e-06	-4.285562e-09	-9.749906e+00	-2.947052e+02
2.250000e-06	-1.274031e-06	-4.266984e-09	-9.639542e+00	-2.931320e+02
2.260000e-06	-1.259411e-06	-4.242076e-09	-9.528921e+00	-2.915484e+02
2.270000e-06	-1.244779e-06	-4.213072e-09	-9.418213e+00	-2.899554e+02
2.280000e-06	-1.230128e-06	-4.185582e-09	-9.307365e+00	-2.883540e+02
2.290000e-06	-1.215453e-06	-4.160093e-09	-9.196332e+00	-2.867453e+02
2.300000e-06	-1.200753e-06	-4.135647e-09	-9.085106e+00	-2.851304e+02
2.310000e-06	-1.186012e-06	-4.114728e-09	-8.973577e+00	-2.835105e+02
2.320000e-06	-1.171239e-06	-4.097550e-09	-8.861801e+00	-2.818866e+02
2.330000e-06	-1.156431e-06	-4.078081e-09	-8.749762e+00	-2.802594e+02
2.340000e-06	-1.141579e-06	-4.055905e-09	-8.637387e+00	-2.786295e+02
2.350000e-06	-1.126699e-06	-4.032872e-09	-8.524805e+00	-2.769971e+02
2.360000e-06	-1.111807e-06	-4.008665e-09	-8.412123e+00	-2.753622e+02
2.370000e-06	-1.096901e-06	-3.983922e-09	-8.299348e+00	-2.737241e+02
2.380000e-06	-1.081980e-06	-3.957844e-09	-8.186450e+00	-2.720824e+02
2.390000e-06	-1.067046e-06	-3.931815e-09	-8.073458e+00	-2.704357e+02
2.400000e-06	-1.052092e-06	-3.906917e-09	-7.960313e+00	-2.687829e+02
2.410000e-06	-1.037099e-06	-3.883780e-09	-7.846876e+00	-2.671223e+02
2.420000e-06	-1.022064e-06	-3.863812e-09	-7.733115e+00	-2.654522e+02
2.430000e-06	-1.007012e-06	-3.844415e-09	-7.619227e+00	-2.637709e+02
2.440000e-06	-9.919502e-07	-3.823169e-09	-7.505269e+00	-2.620766e+02
2.450000e-06	-9.768620e-07	-3.797270e-09	-7.391109e+00	-2.603675e+02
2.460000e-06	-9.617593e-07	-3.766270e-09	-7.276839e+00	-2.586421e+02
2.470000e-06	-9.466435e-07	-3.734826e-09	-7.162470e+00	-2.568989e+02
2.480000e-06	-9.315064e-07	-3.705631e-09	-7.047940e+00	-2.551369e+02
2.490000e-06	-9.163430e-07	-3.678402e-09	-6.933212e+00	-2.533550e+02
2.500000e-06	-9.011419e-07	-3.653015e-09	-6.818197e+00	-2.515528e+02
2.510000e-06	-8.859046e-07	-3.628747e-09	-6.702909e+00	-2.497300e+02
2.520000e-06	-8.706447e-07	-3.603853e-09	-6.587450e+00	-2.478865e+02
2.530000e-06	-8.553821e-07	-3.578762e-09	-6.471971e+00	-2.460227e+02
2.540000e-06	-8.401147e-07	-3.553402e-09	-6.356455e+00	-2.441390e+02
2.550000e-06	-8.248146e-07	-3.528978e-09	-6.240691e+00	-2.422362e+02
2.560000e-06	-8.094761e-07	-3.501923e-09	-6.124638e+00	-2.403152e+02
2.570000e-06	-7.941159e-07	-3.470165e-09	-6.008420e+00	-2.383768e+02
2.580000e-06	-7.787342e-07	-3.439591e-09	-5.892039e+00	-2.364223e+02
2.590000e-06	-7.633285e-07	-3.409161e-09	-5.775477e+00	-2.344525e+02
2.600000e-06	-7.478943e-07	-3.379102e-09	-5.658699e+00	-2.324684e+02
2.610000e-06	-7.324247e-07	-3.349892e-09	-5.541653e+00	-2.304710e+02
2.620000e-06	-7.169260e-07	-3.319469e-09	-5.424388e+00	-2.284611e+02
2.630000e-06	-7.013933e-07	-3.289018e-09	-5.306864e+00	-2.264393e+02
2.640000e-06	-6.858273e-07	-3.259045e-09	-5.189089e+00	-2.244063e+02
2.650000e-06	-6.702394e-07	-3.227764e-09	-5.071148e+00	-2.223625e+02
2.660000e-06	-6.546335e-07	-3.195597e-09	-4.953072e+00	-2.203082e+02
2.670000e-06	-6.390042e-07	-3.167353e-09	-4.834818e+00	-2.182437e+02
2.680000e-06	-6.233472e-07	-3.139658e-09	-4.716354e+00	-2.161693e+02
2.690000e-06	-6.076862e-07	-3.108577e-09	-4.597860e+00	-2.140850e+02
2.700000e-06	-5.920188e-07	-3.075322e-09	-4.479317e+00	-2.119910e+02
2.710000e-06	-5.763356e-07	-3.042368e-09	-4.360656e+00	-2.098874e+02
2.720000e-06	-5.606449e-07	-3.013006e-09	-4.241937e+00	-2.077743e+02
2.730000e-06	-5.449429e-07	-2.985948e-09	-4.123133e+00	-2.056519e+02
2.740000e-06	-5.292309e-07	-2.957492e-09	-4.004254e+00	-2.035205e+02
2.750000e-06	-5.135111e-07	-2.925985e-09	-3.885315e+00	-2.013801e+02
2.760000e-06	-4.977877e-07	-2.894622e-09	-3.766349e+00	-1.992312e+02
2.770000e-06	-4.820551e-07	-2.864898e-09	-3.647313e+00	-1.970739e+02
2.780000e-06	-4.663094e-07	-2.831400e-09	-3.528178e+00	-1.949084e+02
2.790000e-06	-4.505627e-07	-2.796735e-09	-3.409037e+00	-1.927351e+02
2.800000e-06	-4.348065e-07	-2.766912e-09	-3.289822e+00	-1.905541e+02
2.810000e-06	-4.190291e-07	-2.738752e-09	-3.170447e+00	-1.883654e+02
2.820000e-06	-4.032500e-07	-2.709302e-09	-3.051060e+00	-1.861693e+02
2.830000e-06	-3.874675e-07	-2.677962e-09	-2.931647e+00	-1.839655e+02
2.840000e-06	-3.716588e-07	-2.646808e-09	-2.812036e+00	-1.817540e+02
