# Temperatura_=_20.0
# Concentracion g/m^3_=_10000.0
# C_Vs_to_Am_M_A/Vsm_=_65563218390.804596
# pendiente_HvsI_1/m_=_3716.3
# ordenada_HvsI_A/m_=_1297.0
# frecuencia_Hz_=_81162.73747617168

Tiempo_(s)	Campo_(V.s)	Magnetizacion_(V.s)	Campo_(kA/m)	Magnetizacion_(A/m)
0.000000e+00	-3.114944e-06	-6.928743e-09	-2.356001e+01	-4.548537e+02
1.000000e-08	-3.114924e-06	-6.976424e-09	-2.355986e+01	-4.548007e+02
2.000000e-08	-3.115027e-06	-6.946321e-09	-2.356063e+01	-4.547402e+02
3.000000e-08	-3.115063e-06	-6.931365e-09	-2.356090e+01	-4.546747e+02
4.000000e-08	-3.114938e-06	-6.961572e-09	-2.355996e+01	-4.546063e+02
5.000000e-08	-3.114661e-06	-6.953230e-09	-2.355787e+01	-4.545367e+02
6.000000e-08	-3.114286e-06	-6.982359e-09	-2.355503e+01	-4.544672e+02
7.000000e-08	-3.113809e-06	-6.935427e-09	-2.355142e+01	-4.543984e+02
8.000000e-08	-3.113184e-06	-6.875150e-09	-2.354669e+01	-4.543308e+02
9.000000e-08	-3.112485e-06	-6.904891e-09	-2.354141e+01	-4.542639e+02
1.000000e-07	-3.111726e-06	-6.948291e-09	-2.353567e+01	-4.541973e+02
1.100000e-07	-3.111012e-06	-6.978169e-09	-2.353026e+01	-4.541299e+02
1.200000e-07	-3.110205e-06	-6.931104e-09	-2.352416e+01	-4.540604e+02
1.300000e-07	-3.109276e-06	-6.903887e-09	-2.351714e+01	-4.539875e+02
1.400000e-07	-3.108268e-06	-6.919463e-09	-2.350951e+01	-4.539096e+02
1.500000e-07	-3.107172e-06	-6.945043e-09	-2.350123e+01	-4.538253e+02
1.600000e-07	-3.105997e-06	-6.924584e-09	-2.349234e+01	-4.537333e+02
1.700000e-07	-3.104684e-06	-6.868945e-09	-2.348240e+01	-4.536324e+02
1.800000e-07	-3.103359e-06	-6.910946e-09	-2.347239e+01	-4.535219e+02
1.900000e-07	-3.101958e-06	-6.934881e-09	-2.346179e+01	-4.534013e+02
2.000000e-07	-3.100406e-06	-6.906750e-09	-2.345004e+01	-4.532707e+02
2.100000e-07	-3.098690e-06	-6.857184e-09	-2.343707e+01	-4.531303e+02
2.200000e-07	-3.096894e-06	-6.858485e-09	-2.342348e+01	-4.529812e+02
2.300000e-07	-3.095078e-06	-6.917994e-09	-2.340975e+01	-4.528244e+02
2.400000e-07	-3.093158e-06	-6.922983e-09	-2.339523e+01	-4.526617e+02
2.500000e-07	-3.091172e-06	-6.887942e-09	-2.338020e+01	-4.524947e+02
2.600000e-07	-3.089126e-06	-6.839356e-09	-2.336473e+01	-4.523256e+02
2.700000e-07	-3.087020e-06	-6.857573e-09	-2.334880e+01	-4.521564e+02
2.800000e-07	-3.084828e-06	-6.886881e-09	-2.333222e+01	-4.519894e+02
2.900000e-07	-3.082528e-06	-6.870447e-09	-2.331483e+01	-4.518266e+02
3.000000e-07	-3.080162e-06	-6.848187e-09	-2.329693e+01	-4.516699e+02
3.100000e-07	-3.077732e-06	-6.848466e-09	-2.327855e+01	-4.515209e+02
3.200000e-07	-3.075257e-06	-6.889037e-09	-2.325983e+01	-4.513808e+02
3.300000e-07	-3.072714e-06	-6.880605e-09	-2.324059e+01	-4.512505e+02
3.400000e-07	-3.070094e-06	-6.835549e-09	-2.322078e+01	-4.511305e+02
3.500000e-07	-3.067363e-06	-6.811188e-09	-2.320013e+01	-4.510208e+02
3.600000e-07	-3.064501e-06	-6.828036e-09	-2.317848e+01	-4.509209e+02
3.700000e-07	-3.061580e-06	-6.853734e-09	-2.315638e+01	-4.508301e+02
3.800000e-07	-3.058582e-06	-6.832874e-09	-2.313371e+01	-4.507470e+02
3.900000e-07	-3.055494e-06	-6.812297e-09	-2.311035e+01	-4.506702e+02
4.000000e-07	-3.052318e-06	-6.820214e-09	-2.308634e+01	-4.505977e+02
4.100000e-07	-3.049107e-06	-6.854500e-09	-2.306205e+01	-4.505277e+02
4.200000e-07	-3.045852e-06	-6.853423e-09	-2.303742e+01	-4.504579e+02
4.300000e-07	-3.042509e-06	-6.808996e-09	-2.301214e+01	-4.503862e+02
4.400000e-07	-3.039101e-06	-6.792844e-09	-2.298636e+01	-4.503104e+02
4.500000e-07	-3.035587e-06	-6.807303e-09	-2.295978e+01	-4.502285e+02
4.600000e-07	-3.031969e-06	-6.825354e-09	-2.293242e+01	-4.501385e+02
4.700000e-07	-3.028258e-06	-6.805717e-09	-2.290435e+01	-4.500387e+02
4.800000e-07	-3.024469e-06	-6.786063e-09	-2.287570e+01	-4.499274e+02
4.900000e-07	-3.020626e-06	-6.799846e-09	-2.284663e+01	-4.498033e+02
5.000000e-07	-3.016717e-06	-6.813065e-09	-2.281706e+01	-4.496652e+02
5.100000e-07	-3.012729e-06	-6.796551e-09	-2.278690e+01	-4.495122e+02
5.200000e-07	-3.008651e-06	-6.756195e-09	-2.275605e+01	-4.493434e+02
5.300000e-07	-3.004528e-06	-6.754021e-09	-2.272487e+01	-4.491582e+02
5.400000e-07	-3.000335e-06	-6.778011e-09	-2.269316e+01	-4.489560e+02
5.500000e-07	-2.996014e-06	-6.785957e-09	-2.266048e+01	-4.487364e+02
5.600000e-07	-2.991572e-06	-6.770682e-09	-2.262687e+01	-4.484991e+02
5.700000e-07	-2.987056e-06	-6.756835e-09	-2.259272e+01	-4.482435e+02
5.800000e-07	-2.982505e-06	-6.769144e-09	-2.255830e+01	-4.479695e+02
5.900000e-07	-2.977867e-06	-6.770997e-09	-2.252322e+01	-4.476767e+02
6.000000e-07	-2.973144e-06	-6.748405e-09	-2.248749e+01	-4.473649e+02
6.100000e-07	-2.968338e-06	-6.724294e-09	-2.245114e+01	-4.470336e+02
6.200000e-07	-2.963465e-06	-6.726828e-09	-2.241429e+01	-4.466827e+02
6.300000e-07	-2.958532e-06	-6.741425e-09	-2.237698e+01	-4.463120e+02
6.400000e-07	-2.953474e-06	-6.731466e-09	-2.233872e+01	-4.459214e+02
6.500000e-07	-2.948309e-06	-6.711108e-09	-2.229965e+01	-4.455109e+02
6.600000e-07	-2.943048e-06	-6.700323e-09	-2.225986e+01	-4.450808e+02
6.700000e-07	-2.937718e-06	-6.705247e-09	-2.221955e+01	-4.446314e+02
6.800000e-07	-2.932309e-06	-6.702255e-09	-2.217864e+01	-4.441633e+02
6.900000e-07	-2.926801e-06	-6.682505e-09	-2.213698e+01	-4.436773e+02
7.000000e-07	-2.921226e-06	-6.668663e-09	-2.209481e+01	-4.431744e+02
7.100000e-07	-2.915573e-06	-6.666237e-09	-2.205206e+01	-4.426558e+02
7.200000e-07	-2.909866e-06	-6.665034e-09	-2.200889e+01	-4.421230e+02
7.300000e-07	-2.904097e-06	-6.645566e-09	-2.196526e+01	-4.415777e+02
7.400000e-07	-2.898246e-06	-6.623140e-09	-2.192100e+01	-4.410215e+02
7.500000e-07	-2.892293e-06	-6.613714e-09	-2.187598e+01	-4.404563e+02
7.600000e-07	-2.886237e-06	-6.615234e-09	-2.183017e+01	-4.398841e+02
7.700000e-07	-2.880119e-06	-6.612755e-09	-2.178390e+01	-4.393067e+02
7.800000e-07	-2.873927e-06	-6.597901e-09	-2.173706e+01	-4.387259e+02
7.900000e-07	-2.867672e-06	-6.585355e-09	-2.168976e+01	-4.381435e+02
8.000000e-07	-2.861360e-06	-6.575265e-09	-2.164201e+01	-4.375609e+02
8.100000e-07	-2.854986e-06	-6.562776e-09	-2.159381e+01	-4.369796e+02
8.200000e-07	-2.848545e-06	-6.539058e-09	-2.154508e+01	-4.364006e+02
8.300000e-07	-2.842027e-06	-6.515881e-09	-2.149579e+01	-4.358247e+02
8.400000e-07	-2.835448e-06	-6.512119e-09	-2.144603e+01	-4.352524e+02
8.500000e-07	-2.828774e-06	-6.515429e-09	-2.139555e+01	-4.346842e+02
8.600000e-07	-2.821992e-06	-6.514116e-09	-2.134425e+01	-4.341201e+02
8.700000e-07	-2.815128e-06	-6.503096e-09	-2.129233e+01	-4.335598e+02
8.800000e-07	-2.808221e-06	-6.491390e-09	-2.124010e+01	-4.330032e+02
8.900000e-07	-2.801252e-06	-6.483205e-09	-2.118738e+01	-4.324497e+02
9.000000e-07	-2.794207e-06	-6.469642e-09	-2.113410e+01	-4.318988e+02
9.100000e-07	-2.787095e-06	-6.453000e-09	-2.108031e+01	-4.313500e+02
9.200000e-07	-2.779907e-06	-6.440831e-09	-2.102594e+01	-4.308027e+02
9.300000e-07	-2.772662e-06	-6.437534e-09	-2.097114e+01	-4.302564e+02
9.400000e-07	-2.765355e-06	-6.431237e-09	-2.091587e+01	-4.297108e+02
9.500000e-07	-2.757990e-06	-6.417089e-09	-2.086017e+01	-4.291655e+02
9.600000e-07	-2.750534e-06	-6.405162e-09	-2.080378e+01	-4.286204e+02
9.700000e-07	-2.742970e-06	-6.400988e-09	-2.074656e+01	-4.280755e+02
9.800000e-07	-2.735335e-06	-6.399486e-09	-2.068882e+01	-4.275308e+02
9.900000e-07	-2.727620e-06	-6.387799e-09	-2.063047e+01	-4.269866e+02
1.000000e-06	-2.719838e-06	-6.367784e-09	-2.057161e+01	-4.264429e+02
1.010000e-06	-2.711978e-06	-6.351862e-09	-2.051216e+01	-4.259001e+02
1.020000e-06	-2.704037e-06	-6.345554e-09	-2.045209e+01	-4.253584e+02
1.030000e-06	-2.696004e-06	-6.339782e-09	-2.039134e+01	-4.248179e+02
1.040000e-06	-2.687864e-06	-6.326462e-09	-2.032977e+01	-4.242785e+02
1.050000e-06	-2.679653e-06	-6.317244e-09	-2.026767e+01	-4.237401e+02
1.060000e-06	-2.671375e-06	-6.315418e-09	-2.020505e+01	-4.232023e+02
1.070000e-06	-2.663051e-06	-6.310435e-09	-2.014209e+01	-4.226645e+02
1.080000e-06	-2.654656e-06	-6.297214e-09	-2.007860e+01	-4.221257e+02
1.090000e-06	-2.646190e-06	-6.281730e-09	-2.001457e+01	-4.215849e+02
1.100000e-06	-2.637685e-06	-6.272005e-09	-1.995024e+01	-4.210407e+02
1.110000e-06	-2.629134e-06	-6.263220e-09	-1.988556e+01	-4.204916e+02
1.120000e-06	-2.620530e-06	-6.248144e-09	-1.982048e+01	-4.199358e+02
1.130000e-06	-2.611854e-06	-6.228987e-09	-1.975486e+01	-4.193714e+02
1.140000e-06	-2.603123e-06	-6.216626e-09	-1.968883e+01	-4.187966e+02
1.150000e-06	-2.594324e-06	-6.212847e-09	-1.962227e+01	-4.182094e+02
1.160000e-06	-2.585454e-06	-6.206415e-09	-1.955519e+01	-4.176080e+02
1.170000e-06	-2.576531e-06	-6.194599e-09	-1.948770e+01	-4.169906e+02
1.180000e-06	-2.567543e-06	-6.184177e-09	-1.941971e+01	-4.163558e+02
1.190000e-06	-2.558488e-06	-6.175922e-09	-1.935123e+01	-4.157021e+02
1.200000e-06	-2.549335e-06	-6.163694e-09	-1.928200e+01	-4.150285e+02
1.210000e-06	-2.540085e-06	-6.141126e-09	-1.921204e+01	-4.143343e+02
1.220000e-06	-2.530785e-06	-6.117163e-09	-1.914170e+01	-4.136190e+02
1.230000e-06	-2.521446e-06	-6.104883e-09	-1.907106e+01	-4.128824e+02
1.240000e-06	-2.512049e-06	-6.099958e-09	-1.899999e+01	-4.121248e+02
1.250000e-06	-2.502585e-06	-6.091992e-09	-1.892841e+01	-4.113464e+02
1.260000e-06	-2.493055e-06	-6.078844e-09	-1.885632e+01	-4.105479e+02
1.270000e-06	-2.483457e-06	-6.064686e-09	-1.878373e+01	-4.097302e+02
1.280000e-06	-2.473813e-06	-6.050385e-09	-1.871079e+01	-4.088940e+02
1.290000e-06	-2.464122e-06	-6.032882e-09	-1.863749e+01	-4.080404e+02
1.300000e-06	-2.454365e-06	-6.009499e-09	-1.856369e+01	-4.071704e+02
1.310000e-06	-2.444527e-06	-5.987170e-09	-1.848928e+01	-4.062848e+02
1.320000e-06	-2.434597e-06	-5.974769e-09	-1.841417e+01	-4.053846e+02
1.330000e-06	-2.424581e-06	-5.968465e-09	-1.833842e+01	-4.044706e+02
1.340000e-06	-2.414499e-06	-5.957518e-09	-1.826217e+01	-4.035432e+02
1.350000e-06	-2.404379e-06	-5.941407e-09	-1.818562e+01	-4.026030e+02
1.360000e-06	-2.394220e-06	-5.927828e-09	-1.810878e+01	-4.016503e+02
1.370000e-06	-2.384003e-06	-5.914356e-09	-1.803150e+01	-4.006852e+02
1.380000e-06	-2.373715e-06	-5.892975e-09	-1.795369e+01	-3.997079e+02
1.390000e-06	-2.363355e-06	-5.865539e-09	-1.787534e+01	-3.987183e+02
1.400000e-06	-2.352939e-06	-5.843889e-09	-1.779655e+01	-3.977165e+02
1.410000e-06	-2.342482e-06	-5.830077e-09	-1.771746e+01	-3.967024e+02
1.420000e-06	-2.331985e-06	-5.814604e-09	-1.763806e+01	-3.956761e+02
1.430000e-06	-2.321438e-06	-5.795099e-09	-1.755829e+01	-3.946378e+02
1.440000e-06	-2.310813e-06	-5.779056e-09	-1.747793e+01	-3.935878e+02
1.450000e-06	-2.300093e-06	-5.769383e-09	-1.739685e+01	-3.925265e+02
1.460000e-06	-2.289279e-06	-5.757828e-09	-1.731506e+01	-3.914546e+02
1.470000e-06	-2.278404e-06	-5.740558e-09	-1.723280e+01	-3.903730e+02
1.480000e-06	-2.267491e-06	-5.722584e-09	-1.715026e+01	-3.892829e+02
1.490000e-06	-2.256540e-06	-5.705524e-09	-1.706743e+01	-3.881853e+02
1.500000e-06	-2.245532e-06	-5.685720e-09	-1.698418e+01	-3.870819e+02
1.510000e-06	-2.234459e-06	-5.661979e-09	-1.690042e+01	-3.859741e+02
1.520000e-06	-2.223328e-06	-5.639261e-09	-1.681623e+01	-3.848634e+02
1.530000e-06	-2.212145e-06	-5.619480e-09	-1.673165e+01	-3.837516e+02
1.540000e-06	-2.200920e-06	-5.603751e-09	-1.664675e+01	-3.826403e+02
1.550000e-06	-2.189664e-06	-5.588992e-09	-1.656161e+01	-3.815308e+02
1.560000e-06	-2.178358e-06	-5.573843e-09	-1.647610e+01	-3.804247e+02
1.570000e-06	-2.166989e-06	-5.560885e-09	-1.639011e+01	-3.793230e+02
1.580000e-06	-2.155538e-06	-5.548181e-09	-1.630350e+01	-3.782268e+02
1.590000e-06	-2.143996e-06	-5.530986e-09	-1.621620e+01	-3.771366e+02
1.600000e-06	-2.132377e-06	-5.508718e-09	-1.612832e+01	-3.760530e+02
1.610000e-06	-2.120684e-06	-5.487360e-09	-1.603988e+01	-3.749760e+02
1.620000e-06	-2.108944e-06	-5.466421e-09	-1.595109e+01	-3.739055e+02
1.630000e-06	-2.097157e-06	-5.446207e-09	-1.586193e+01	-3.728412e+02
1.640000e-06	-2.085317e-06	-5.430523e-09	-1.577238e+01	-3.717823e+02
1.650000e-06	-2.073427e-06	-5.421371e-09	-1.568245e+01	-3.707280e+02
1.660000e-06	-2.061495e-06	-5.415274e-09	-1.559221e+01	-3.696773e+02
1.670000e-06	-2.049514e-06	-5.404795e-09	-1.550158e+01	-3.686292e+02
1.680000e-06	-2.037468e-06	-5.387518e-09	-1.541047e+01	-3.675823e+02
1.690000e-06	-2.025384e-06	-5.365032e-09	-1.531908e+01	-3.665355e+02
1.700000e-06	-2.013259e-06	-5.340361e-09	-1.522737e+01	-3.654874e+02
1.710000e-06	-2.001077e-06	-5.314464e-09	-1.513522e+01	-3.644369e+02
1.720000e-06	-1.988837e-06	-5.289300e-09	-1.504265e+01	-3.633828e+02
1.730000e-06	-1.976525e-06	-5.274997e-09	-1.494953e+01	-3.623239e+02
1.740000e-06	-1.964137e-06	-5.269203e-09	-1.485583e+01	-3.612591e+02
1.750000e-06	-1.951688e-06	-5.261675e-09	-1.476167e+01	-3.601874e+02
1.760000e-06	-1.939190e-06	-5.244488e-09	-1.466714e+01	-3.591079e+02
1.770000e-06	-1.926664e-06	-5.221967e-09	-1.457240e+01	-3.580195e+02
1.780000e-06	-1.914104e-06	-5.203099e-09	-1.447741e+01	-3.569214e+02
1.790000e-06	-1.901489e-06	-5.182656e-09	-1.438199e+01	-3.558125e+02
1.800000e-06	-1.888822e-06	-5.159878e-09	-1.428619e+01	-3.546921e+02
1.810000e-06	-1.876118e-06	-5.137000e-09	-1.419010e+01	-3.535589e+02
1.820000e-06	-1.863368e-06	-5.120154e-09	-1.409366e+01	-3.524121e+02
1.830000e-06	-1.850566e-06	-5.105131e-09	-1.399683e+01	-3.512504e+02
1.840000e-06	-1.837724e-06	-5.086005e-09	-1.389970e+01	-3.500727e+02
1.850000e-06	-1.824846e-06	-5.068956e-09	-1.380230e+01	-3.488780e+02
1.860000e-06	-1.811929e-06	-5.054432e-09	-1.370460e+01	-3.476649e+02
1.870000e-06	-1.798956e-06	-5.038761e-09	-1.360648e+01	-3.464324e+02
1.880000e-06	-1.785935e-06	-5.016015e-09	-1.350799e+01	-3.451793e+02
1.890000e-06	-1.772861e-06	-4.990147e-09	-1.340911e+01	-3.439046e+02
1.900000e-06	-1.759737e-06	-4.964679e-09	-1.330984e+01	-3.426076e+02
1.910000e-06	-1.746563e-06	-4.939590e-09	-1.321020e+01	-3.412876e+02
1.920000e-06	-1.733334e-06	-4.915987e-09	-1.311014e+01	-3.399440e+02
1.930000e-06	-1.720054e-06	-4.892653e-09	-1.300970e+01	-3.385768e+02
1.940000e-06	-1.706731e-06	-4.873075e-09	-1.290893e+01	-3.371861e+02
1.950000e-06	-1.693386e-06	-4.853783e-09	-1.280799e+01	-3.357722e+02
1.960000e-06	-1.680006e-06	-4.830515e-09	-1.270679e+01	-3.343360e+02
1.970000e-06	-1.666577e-06	-4.806308e-09	-1.260522e+01	-3.328783e+02
1.980000e-06	-1.653108e-06	-4.779749e-09	-1.250335e+01	-3.314004e+02
1.990000e-06	-1.639597e-06	-4.751880e-09	-1.240116e+01	-3.299039e+02
2.000000e-06	-1.626040e-06	-4.724525e-09	-1.229862e+01	-3.283905e+02
2.010000e-06	-1.612445e-06	-4.696875e-09	-1.219580e+01	-3.268618e+02
2.020000e-06	-1.598808e-06	-4.672716e-09	-1.209265e+01	-3.253199e+02
2.030000e-06	-1.585129e-06	-4.651006e-09	-1.198919e+01	-3.237666e+02
2.040000e-06	-1.571424e-06	-4.629738e-09	-1.188553e+01	-3.222037e+02
2.050000e-06	-1.557692e-06	-4.608154e-09	-1.178167e+01	-3.206329e+02
2.060000e-06	-1.543919e-06	-4.585892e-09	-1.167750e+01	-3.190559e+02
2.070000e-06	-1.530103e-06	-4.562946e-09	-1.157300e+01	-3.174739e+02
2.080000e-06	-1.516232e-06	-4.537458e-09	-1.146808e+01	-3.158879e+02
2.090000e-06	-1.502289e-06	-4.510229e-09	-1.136262e+01	-3.142989e+02
2.100000e-06	-1.488296e-06	-4.484022e-09	-1.125679e+01	-3.127074e+02
2.110000e-06	-1.474261e-06	-4.457126e-09	-1.115063e+01	-3.111136e+02
2.120000e-06	-1.460191e-06	-4.431147e-09	-1.104421e+01	-3.095176e+02
2.130000e-06	-1.446088e-06	-4.408223e-09	-1.093754e+01	-3.079194e+02
2.140000e-06	-1.431943e-06	-4.387475e-09	-1.083056e+01	-3.063186e+02
2.150000e-06	-1.417757e-06	-4.368485e-09	-1.072326e+01	-3.047149e+02
2.160000e-06	-1.403534e-06	-4.345950e-09	-1.061569e+01	-3.031079e+02
2.170000e-06	-1.389279e-06	-4.319897e-09	-1.050787e+01	-3.014973e+02
2.180000e-06	-1.374990e-06	-4.293411e-09	-1.039979e+01	-2.998829e+02
2.190000e-06	-1.360670e-06	-4.267801e-09	-1.029148e+01	-2.982646e+02
2.200000e-06	-1.346308e-06	-4.244063e-09	-1.018286e+01	-2.966424e+02
2.210000e-06	-1.331894e-06	-4.220477e-09	-1.007383e+01	-2.950168e+02
2.220000e-06	-1.317434e-06	-4.197033e-09	-9.964464e+00	-2.933883e+02
2.230000e-06	-1.302934e-06	-4.173756e-09	-9.854797e+00	-2.917576e+02
2.240000e-06	-1.288385e-06	-4.152367e-09	-9.744753e+00	-2.901258e+02
2.250000e-06	-1.273791e-06	-4.132942e-09	-9.634373e+00	-2.884941e+02
2.260000e-06	-1.259178e-06	-4.110463e-09	-9.523848e+00	-2.868638e+02
2.270000e-06	-1.244537e-06	-4.086463e-09	-9.413108e+00	-2.852363e+02
2.280000e-06	-1.229871e-06	-4.063634e-09	-9.302181e+00	-2.836131e+02
2.290000e-06	-1.215186e-06	-4.041072e-09	-9.191111e+00	-2.819954e+02
2.300000e-06	-1.200458e-06	-4.015269e-09	-9.079716e+00	-2.803844e+02
2.310000e-06	-1.185696e-06	-3.990049e-09	-8.968062e+00	-2.787812e+02
2.320000e-06	-1.170918e-06	-3.966921e-09	-8.856287e+00	-2.771863e+02
2.330000e-06	-1.156116e-06	-3.944113e-09	-8.744329e+00	-2.756002e+02
2.340000e-06	-1.141285e-06	-3.924368e-09	-8.632156e+00	-2.740227e+02
2.350000e-06	-1.126430e-06	-3.903831e-09	-8.519802e+00	-2.724535e+02
2.360000e-06	-1.111553e-06	-3.883742e-09	-8.407277e+00	-2.708915e+02
2.370000e-06	-1.096648e-06	-3.864912e-09	-8.294545e+00	-2.693354e+02
2.380000e-06	-1.081718e-06	-3.843994e-09	-8.181618e+00	-2.677835e+02
2.390000e-06	-1.066767e-06	-3.820915e-09	-8.068539e+00	-2.662337e+02
2.400000e-06	-1.051798e-06	-3.795429e-09	-7.955314e+00	-2.646836e+02
2.410000e-06	-1.036798e-06	-3.768630e-09	-7.841866e+00	-2.631305e+02
2.420000e-06	-1.021773e-06	-3.742979e-09	-7.728225e+00	-2.615716e+02
2.430000e-06	-1.006731e-06	-3.720217e-09	-7.614452e+00	-2.600040e+02
2.440000e-06	-9.916611e-07	-3.699788e-09	-7.500469e+00	-2.584249e+02
2.450000e-06	-9.765749e-07	-3.679653e-09	-7.386364e+00	-2.568315e+02
2.460000e-06	-9.614612e-07	-3.656746e-09	-7.272051e+00	-2.552212e+02
2.470000e-06	-9.463164e-07	-3.631683e-09	-7.157503e+00	-2.535916e+02
2.480000e-06	-9.311506e-07	-3.606607e-09	-7.042796e+00	-2.519407e+02
2.490000e-06	-9.159574e-07	-3.580001e-09	-6.927881e+00	-2.502668e+02
2.500000e-06	-9.007366e-07	-3.552256e-09	-6.812758e+00	-2.485686e+02
2.510000e-06	-8.854962e-07	-3.527013e-09	-6.697486e+00	-2.468450e+02
2.520000e-06	-8.702404e-07	-3.504425e-09	-6.582099e+00	-2.450956e+02
2.530000e-06	-8.549637e-07	-3.481392e-09	-6.466553e+00	-2.433201e+02
2.540000e-06	-8.396687e-07	-3.455973e-09	-6.350868e+00	-2.415187e+02
2.550000e-06	-8.243484e-07	-3.430767e-09	-6.234993e+00	-2.396917e+02
2.560000e-06	-8.090063e-07	-3.404472e-09	-6.118952e+00	-2.378400e+02
2.570000e-06	-7.936495e-07	-3.374598e-09	-6.002800e+00	-2.359642e+02
2.580000e-06	-7.782611e-07	-3.345554e-09	-5.886410e+00	-2.340655e+02
2.590000e-06	-7.628409e-07	-3.316527e-09	-5.769778e+00	-2.321449e+02
2.600000e-06	-7.473954e-07	-3.284971e-09	-5.652956e+00	-2.302036e+02
2.610000e-06	-7.319200e-07	-3.252993e-09	-5.535907e+00	-2.282424e+02
2.620000e-06	-7.164205e-07	-3.220181e-09	-5.418676e+00	-2.262627e+02
2.630000e-06	-7.008907e-07	-3.188497e-09	-5.301216e+00	-2.242652e+02
2.640000e-06	-6.853336e-07	-3.160929e-09	-5.183549e+00	-2.222509e+02
2.650000e-06	-6.697540e-07	-3.135447e-09	-5.065712e+00	-2.202206e+02
2.660000e-06	-6.541496e-07	-3.107457e-09	-4.947687e+00	-2.181750e+02
2.670000e-06	-6.385262e-07	-3.077657e-09	-4.829519e+00	-2.161146e+02
2.680000e-06	-6.228808e-07	-3.048869e-09	-4.711185e+00	-2.140401e+02
2.690000e-06	-6.072196e-07	-3.018683e-09	-4.592730e+00	-2.119520e+02
2.700000e-06	-5.915464e-07	-2.986454e-09	-4.474186e+00	-2.098507e+02
2.710000e-06	-5.758595e-07	-2.952378e-09	-4.355537e+00	-2.077369e+02
2.720000e-06	-5.601587e-07	-2.918422e-09	-4.236784e+00	-2.056110e+02
2.730000e-06	-5.444461e-07	-2.887097e-09	-4.117940e+00	-2.034738e+02
2.740000e-06	-5.287264e-07	-2.857872e-09	-3.999044e+00	-2.013259e+02
2.750000e-06	-5.129978e-07	-2.827508e-09	-3.880080e+00	-1.991682e+02
2.760000e-06	-4.972553e-07	-2.797299e-09	-3.761011e+00	-1.970014e+02
2.770000e-06	-4.815090e-07	-2.768960e-09	-3.641913e+00	-1.948266e+02
2.780000e-06	-4.657648e-07	-2.739684e-09	-3.522831e+00	-1.926448e+02
2.790000e-06	-4.500091e-07	-2.710230e-09	-3.403662e+00	-1.904570e+02
2.800000e-06	-4.342347e-07	-2.679330e-09	-3.284352e+00	-1.882641e+02
2.810000e-06	-4.184594e-07	-2.648239e-09	-3.165035e+00	-1.860674e+02
2.820000e-06	-4.026823e-07	-2.618772e-09	-3.045704e+00	-1.838676e+02
2.830000e-06	-3.868752e-07	-2.587748e-09	-2.926147e+00	-1.816658e+02
2.840000e-06	-3.710589e-07	-2.554753e-09	-2.806519e+00	-1.794626e+02
