# Temperatura_=_20.0
# Concentracion g/m^3_=_10000.0
# C_Vs_to_Am_M_A/Vsm_=_65563218390.804596
# pendiente_HvsI_1/m_=_3716.3
# ordenada_HvsI_A/m_=_1297.0
# frecuencia_Hz_=_301549.3499048626

Tiempo_(s)	Campo_(V.s)	Magnetizacion_(V.s)	Campo_(kA/m)	Magnetizacion_(A/m)
0.000000e+00	-2.195411e-06	-4.659061e-09	-1.426992e+01	-3.052300e+02
1.000000e-08	-2.195186e-06	-4.662448e-09	-1.426846e+01	-3.056445e+02
2.000000e-08	-2.194413e-06	-4.665877e-09	-1.426344e+01	-3.059127e+02
3.000000e-08	-2.192845e-06	-4.670842e-09	-1.425324e+01	-3.060816e+02
4.000000e-08	-2.190310e-06	-4.673869e-09	-1.423676e+01	-3.062012e+02
5.000000e-08	-2.186833e-06	-4.673832e-09	-1.421416e+01	-3.062921e+02
6.000000e-08	-2.182619e-06	-4.672486e-09	-1.418677e+01	-3.063314e+02
7.000000e-08	-2.177790e-06	-4.668705e-09	-1.415539e+01	-3.062679e+02
8.000000e-08	-2.172143e-06	-4.674547e-09	-1.411868e+01	-3.060579e+02
9.000000e-08	-2.165497e-06	-4.684492e-09	-1.407548e+01	-3.056980e+02
1.000000e-07	-2.157927e-06	-4.660150e-09	-1.402628e+01	-3.052319e+02
1.100000e-07	-2.149810e-06	-4.638307e-09	-1.397352e+01	-3.047246e+02
1.200000e-07	-2.141332e-06	-4.630174e-09	-1.391842e+01	-3.042220e+02
1.300000e-07	-2.132104e-06	-4.655681e-09	-1.385843e+01	-3.037209e+02
1.400000e-07	-2.121746e-06	-4.622856e-09	-1.379111e+01	-3.031719e+02
1.500000e-07	-2.110437e-06	-4.597505e-09	-1.371760e+01	-3.025116e+02
1.600000e-07	-2.098306e-06	-4.600498e-09	-1.363875e+01	-3.017032e+02
1.700000e-07	-2.085260e-06	-4.589081e-09	-1.355395e+01	-3.007557e+02
1.800000e-07	-2.071484e-06	-4.570735e-09	-1.346441e+01	-2.997111e+02
1.900000e-07	-2.057049e-06	-4.548882e-09	-1.337059e+01	-2.986075e+02
2.000000e-07	-2.041549e-06	-4.550414e-09	-1.326984e+01	-2.974463e+02
2.100000e-07	-2.024915e-06	-4.490868e-09	-1.316172e+01	-2.961871e+02
2.200000e-07	-2.007590e-06	-4.483142e-09	-1.304911e+01	-2.947744e+02
2.300000e-07	-1.989729e-06	-4.491188e-09	-1.293301e+01	-2.931804e+02
2.400000e-07	-1.971097e-06	-4.448840e-09	-1.281191e+01	-2.914319e+02
2.500000e-07	-1.951711e-06	-4.389373e-09	-1.268590e+01	-2.896041e+02
2.600000e-07	-1.931783e-06	-4.386063e-09	-1.255637e+01	-2.877816e+02
2.700000e-07	-1.911409e-06	-4.379515e-09	-1.242394e+01	-2.860106e+02
2.800000e-07	-1.890516e-06	-4.332168e-09	-1.228814e+01	-2.842712e+02
2.900000e-07	-1.868970e-06	-4.306722e-09	-1.214809e+01	-2.824868e+02
3.000000e-07	-1.846731e-06	-4.282085e-09	-1.200354e+01	-2.805646e+02
3.100000e-07	-1.823817e-06	-4.235967e-09	-1.185460e+01	-2.784438e+02
3.200000e-07	-1.800291e-06	-4.211855e-09	-1.170169e+01	-2.761260e+02
3.300000e-07	-1.776225e-06	-4.193614e-09	-1.154526e+01	-2.736714e+02
3.400000e-07	-1.751723e-06	-4.113542e-09	-1.138600e+01	-2.711674e+02
3.500000e-07	-1.726697e-06	-4.077493e-09	-1.122333e+01	-2.686861e+02
3.600000e-07	-1.700819e-06	-4.076037e-09	-1.105513e+01	-2.662537e+02
3.700000e-07	-1.673879e-06	-4.035228e-09	-1.088003e+01	-2.638432e+02
3.800000e-07	-1.646081e-06	-3.968713e-09	-1.069934e+01	-2.613916e+02
3.900000e-07	-1.617841e-06	-3.946879e-09	-1.051578e+01	-2.588310e+02
4.000000e-07	-1.589363e-06	-3.910614e-09	-1.033068e+01	-2.561181e+02
4.100000e-07	-1.560460e-06	-3.849201e-09	-1.014281e+01	-2.532504e+02
4.200000e-07	-1.530876e-06	-3.821995e-09	-9.950519e+00	-2.502646e+02
4.300000e-07	-1.500653e-06	-3.769075e-09	-9.754074e+00	-2.472177e+02
4.400000e-07	-1.469953e-06	-3.710904e-09	-9.554529e+00	-2.441612e+02
4.500000e-07	-1.438778e-06	-3.677774e-09	-9.351896e+00	-2.411179e+02
4.600000e-07	-1.407062e-06	-3.651131e-09	-9.145739e+00	-2.380739e+02
4.700000e-07	-1.374925e-06	-3.577526e-09	-8.936859e+00	-2.349869e+02
4.800000e-07	-1.342564e-06	-3.517622e-09	-8.726514e+00	-2.318092e+02
4.900000e-07	-1.309898e-06	-3.481641e-09	-8.514185e+00	-2.285114e+02
5.000000e-07	-1.276641e-06	-3.435898e-09	-8.298020e+00	-2.250966e+02
5.100000e-07	-1.242641e-06	-3.383153e-09	-8.077027e+00	-2.215954e+02
5.200000e-07	-1.207913e-06	-3.319182e-09	-7.851295e+00	-2.180474e+02
5.300000e-07	-1.172543e-06	-3.264762e-09	-7.621397e+00	-2.144788e+02
5.400000e-07	-1.136699e-06	-3.213399e-09	-7.388412e+00	-2.108907e+02
5.500000e-07	-1.100553e-06	-3.162085e-09	-7.153469e+00	-2.072634e+02
5.600000e-07	-1.064164e-06	-3.095070e-09	-6.916945e+00	-2.035723e+02
5.700000e-07	-1.027504e-06	-3.036055e-09	-6.678662e+00	-1.998051e+02
5.800000e-07	-9.905343e-07	-2.978398e-09	-6.438360e+00	-1.959667e+02
5.900000e-07	-9.531868e-07	-2.925112e-09	-6.195606e+00	-1.920711e+02
6.000000e-07	-9.154278e-07	-2.872270e-09	-5.950176e+00	-1.881258e+02
6.100000e-07	-8.773387e-07	-2.800444e-09	-5.702602e+00	-1.841212e+02
6.200000e-07	-8.389870e-07	-2.731323e-09	-5.453320e+00	-1.800333e+02
6.300000e-07	-8.003251e-07	-2.672985e-09	-5.202022e+00	-1.758397e+02
6.400000e-07	-7.613856e-07	-2.615267e-09	-4.948919e+00	-1.715375e+02
6.500000e-07	-7.221650e-07	-2.540391e-09	-4.693990e+00	-1.671515e+02
6.600000e-07	-6.826537e-07	-2.469760e-09	-4.437171e+00	-1.627254e+02
6.700000e-07	-6.429140e-07	-2.404393e-09	-4.178868e+00	-1.583003e+02
6.800000e-07	-6.029713e-07	-2.341013e-09	-3.919245e+00	-1.538907e+02
6.900000e-07	-5.628526e-07	-2.274890e-09	-3.658478e+00	-1.494734e+02
7.000000e-07	-5.226041e-07	-2.200176e-09	-3.396867e+00	-1.449948e+02
7.100000e-07	-4.822814e-07	-2.127312e-09	-3.134774e+00	-1.403946e+02
7.200000e-07	-4.418901e-07	-2.058478e-09	-2.872235e+00	-1.356343e+02
7.300000e-07	-4.014475e-07	-1.990067e-09	-2.609363e+00	-1.307167e+02
7.400000e-07	-3.609016e-07	-1.909851e-09	-2.345820e+00	-1.256870e+02
7.500000e-07	-3.202441e-07	-1.828673e-09	-2.081550e+00	-1.206139e+02
7.600000e-07	-2.794842e-07	-1.752523e-09	-1.816615e+00	-1.155585e+02
7.700000e-07	-2.386047e-07	-1.683208e-09	-1.550903e+00	-1.105451e+02
7.800000e-07	-1.976570e-07	-1.609977e-09	-1.284748e+00	-1.055484e+02
7.900000e-07	-1.566315e-07	-1.526461e-09	-1.018087e+00	-1.005026e+02
8.000000e-07	-1.155649e-07	-1.443450e-09	-7.511585e-01	-9.533110e+01
8.100000e-07	-7.445886e-08	-1.365380e-09	-4.839741e-01	-8.998304e+01
8.200000e-07	-3.326049e-08	-1.288057e-09	-2.161894e-01	-8.445890e+01
8.300000e-07	8.016016e-09	-1.200745e-09	5.210319e-02	-7.881138e+01
8.400000e-07	4.925552e-08	-1.110320e-09	3.201553e-01	-7.311976e+01
8.500000e-07	9.037712e-08	-1.023046e-09	5.874410e-01	-6.744987e+01
8.600000e-07	1.314404e-07	-9.436241e-10	8.543473e-01	-6.182041e+01
8.700000e-07	1.725043e-07	-8.627257e-10	1.121258e+00	-5.619386e+01
8.800000e-07	2.135214e-07	-7.716588e-10	1.387865e+00	-5.049730e+01
8.900000e-07	2.544168e-07	-6.762820e-10	1.653680e+00	-4.466169e+01
9.000000e-07	2.951691e-07	-5.844003e-10	1.918565e+00	-3.865790e+01
9.100000e-07	3.358192e-07	-4.966321e-10	2.182787e+00	-3.250976e+01
9.200000e-07	3.764135e-07	-4.015710e-10	2.446645e+00	-2.627797e+01
9.300000e-07	4.169279e-07	-3.027303e-10	2.709984e+00	-2.002568e+01
9.400000e-07	4.573494e-07	-2.061827e-10	2.972719e+00	-1.378627e+01
9.500000e-07	4.976969e-07	-1.157102e-10	3.234973e+00	-7.551413e+00
9.600000e-07	5.379788e-07	-2.370944e-11	3.496801e+00	-1.283821e+00
9.700000e-07	5.781823e-07	7.543119e-11	3.758119e+00	5.055270e+00
9.800000e-07	6.182451e-07	1.776122e-10	4.018523e+00	1.148184e+01
9.900000e-07	6.581543e-07	2.775595e-10	4.277928e+00	1.798168e+01
1.000000e-06	6.978471e-07	3.740258e-10	4.535926e+00	2.452190e+01
1.010000e-06	7.371933e-07	4.750131e-10	4.791673e+00	3.107167e+01
1.020000e-06	7.762176e-07	5.783372e-10	5.045326e+00	3.761847e+01
1.030000e-06	8.149063e-07	6.782798e-10	5.296798e+00	4.417081e+01
1.040000e-06	8.533245e-07	7.719719e-10	5.546512e+00	5.074761e+01
1.050000e-06	8.915816e-07	8.683792e-10	5.795179e+00	5.736269e+01
1.060000e-06	9.295821e-07	9.731004e-10	6.042178e+00	6.401395e+01
1.070000e-06	9.672095e-07	1.080498e-09	6.286751e+00	7.068275e+01
1.080000e-06	1.004419e-06	1.184287e-09	6.528611e+00	7.734241e+01
1.090000e-06	1.041241e-06	1.283897e-09	6.767945e+00	8.397016e+01
1.100000e-06	1.077777e-06	1.384875e-09	7.005429e+00	9.055619e+01
1.110000e-06	1.114128e-06	1.486985e-09	7.241707e+00	9.710598e+01
1.120000e-06	1.150270e-06	1.587180e-09	7.476624e+00	1.036352e+02
1.130000e-06	1.186064e-06	1.682387e-09	7.709278e+00	1.101598e+02
1.140000e-06	1.221281e-06	1.776860e-09	7.938189e+00	1.166851e+02
1.150000e-06	1.255791e-06	1.877648e-09	8.162496e+00	1.231984e+02
1.160000e-06	1.289588e-06	1.983073e-09	8.382172e+00	1.296699e+02
1.170000e-06	1.322730e-06	2.086526e-09	8.597594e+00	1.360618e+02
1.180000e-06	1.355420e-06	2.182253e-09	8.810078e+00	1.423443e+02
1.190000e-06	1.387800e-06	2.273963e-09	9.020542e+00	1.485090e+02
1.200000e-06	1.419866e-06	2.365675e-09	9.228964e+00	1.545738e+02
1.210000e-06	1.451510e-06	2.456386e-09	9.434646e+00	1.605729e+02
1.220000e-06	1.482583e-06	2.545282e-09	9.636621e+00	1.665366e+02
1.230000e-06	1.513078e-06	2.633779e-09	9.834833e+00	1.724716e+02
1.240000e-06	1.543040e-06	2.724047e-09	1.002959e+01	1.783517e+02
1.250000e-06	1.572483e-06	2.817227e-09	1.022096e+01	1.841275e+02
1.260000e-06	1.601423e-06	2.908318e-09	1.040906e+01	1.897489e+02
1.270000e-06	1.629942e-06	2.989943e-09	1.059444e+01	1.951889e+02
1.280000e-06	1.658097e-06	3.065191e-09	1.077744e+01	2.004548e+02
1.290000e-06	1.685741e-06	3.140555e-09	1.095712e+01	2.055817e+02
1.300000e-06	1.712603e-06	3.218235e-09	1.113172e+01	2.106116e+02
1.310000e-06	1.738438e-06	3.293813e-09	1.129965e+01	2.155703e+02
1.320000e-06	1.763365e-06	3.365547e-09	1.146167e+01	2.204559e+02
1.330000e-06	1.787714e-06	3.437114e-09	1.161994e+01	2.252404e+02
1.340000e-06	1.811565e-06	3.510918e-09	1.177497e+01	2.298846e+02
1.350000e-06	1.834830e-06	3.581744e-09	1.192618e+01	2.343538e+02
1.360000e-06	1.857460e-06	3.645063e-09	1.207328e+01	2.386293e+02
1.370000e-06	1.879457e-06	3.703589e-09	1.221625e+01	2.427114e+02
1.380000e-06	1.900781e-06	3.761290e-09	1.235486e+01	2.466173e+02
1.390000e-06	1.921514e-06	3.818792e-09	1.248962e+01	2.503748e+02
1.400000e-06	1.941789e-06	3.873754e-09	1.262140e+01	2.540158e+02
1.410000e-06	1.961521e-06	3.926223e-09	1.274966e+01	2.575670e+02
1.420000e-06	1.980516e-06	3.977806e-09	1.287313e+01	2.610407e+02
1.430000e-06	1.998701e-06	4.030354e-09	1.299133e+01	2.644278e+02
1.440000e-06	2.016208e-06	4.081638e-09	1.310512e+01	2.676996e+02
1.450000e-06	2.033087e-06	4.127401e-09	1.321483e+01	2.708182e+02
1.460000e-06	2.049186e-06	4.168325e-09	1.331948e+01	2.737542e+02
1.470000e-06	2.064409e-06	4.208831e-09	1.341842e+01	2.765008e+02
1.480000e-06	2.078797e-06	4.248739e-09	1.351194e+01	2.790769e+02
1.490000e-06	2.092398e-06	4.285218e-09	1.360035e+01	2.815167e+02
1.500000e-06	2.105250e-06	4.318589e-09	1.368388e+01	2.838523e+02
1.510000e-06	2.117365e-06	4.351520e-09	1.376263e+01	2.860991e+02
1.520000e-06	2.128567e-06	4.384385e-09	1.383544e+01	2.882528e+02
1.530000e-06	2.138649e-06	4.415219e-09	1.390097e+01	2.902979e+02
1.540000e-06	2.147754e-06	4.442958e-09	1.396015e+01	2.922199e+02
1.550000e-06	2.156177e-06	4.469051e-09	1.401490e+01	2.940117e+02
1.560000e-06	2.163987e-06	4.494000e-09	1.406567e+01	2.956722e+02
1.570000e-06	2.171106e-06	4.516893e-09	1.411194e+01	2.972001e+02
1.580000e-06	2.177466e-06	4.537780e-09	1.415328e+01	2.985917e+02
1.590000e-06	2.183020e-06	4.556182e-09	1.418938e+01	2.998460e+02
1.600000e-06	2.187879e-06	4.573402e-09	1.422096e+01	3.009726e+02
1.610000e-06	2.192177e-06	4.589342e-09	1.424890e+01	3.019945e+02
1.620000e-06	2.195805e-06	4.604224e-09	1.427248e+01	3.029392e+02
1.630000e-06	2.198412e-06	4.618051e-09	1.428943e+01	3.038209e+02
1.640000e-06	2.199903e-06	4.630123e-09	1.429912e+01	3.046280e+02
1.650000e-06	2.200599e-06	4.640673e-09	1.430364e+01	3.053253e+02
1.660000e-06	2.200662e-06	4.649493e-09	1.430405e+01	3.058750e+02
1.670000e-06	2.200072e-06	4.655876e-09	1.430022e+01	3.062622e+02
1.680000e-06	2.198785e-06	4.660238e-09	1.429185e+01	3.065099e+02
1.690000e-06	2.196798e-06	4.662958e-09	1.427894e+01	3.066680e+02
1.700000e-06	2.194139e-06	4.664080e-09	1.426165e+01	3.067834e+02
1.710000e-06	2.190897e-06	4.664668e-09	1.424058e+01	3.068691e+02
1.720000e-06	2.187138e-06	4.669264e-09	1.421614e+01	3.068953e+02
1.730000e-06	2.182677e-06	4.667507e-09	1.418715e+01	3.068092e+02
1.740000e-06	2.177080e-06	4.646707e-09	1.415077e+01	3.065724e+02
1.750000e-06	2.170104e-06	4.644866e-09	1.410543e+01	3.061904e+02
1.760000e-06	2.162128e-06	4.658004e-09	1.405358e+01	3.057133e+02
1.770000e-06	2.153855e-06	4.664903e-09	1.399981e+01	3.052060e+02
1.780000e-06	2.145396e-06	4.617902e-09	1.394483e+01	3.047066e+02
1.790000e-06	2.136083e-06	4.612449e-09	1.388430e+01	3.042027e+02
1.800000e-06	2.125608e-06	4.625838e-09	1.381621e+01	3.036393e+02
1.810000e-06	2.114502e-06	4.633452e-09	1.374402e+01	3.029553e+02
1.820000e-06	2.102896e-06	4.597448e-09	1.366858e+01	3.021212e+02
1.830000e-06	2.090052e-06	4.591960e-09	1.358510e+01	3.011541e+02
1.840000e-06	2.075749e-06	4.578314e-09	1.349213e+01	3.000980e+02
1.850000e-06	2.060708e-06	4.532647e-09	1.339437e+01	2.989866e+02
1.860000e-06	2.045241e-06	4.544428e-09	1.329383e+01	2.978130e+02
1.870000e-06	2.029007e-06	4.540584e-09	1.318831e+01	2.965314e+02
1.880000e-06	2.012082e-06	4.495823e-09	1.307830e+01	2.950882e+02
1.890000e-06	1.994625e-06	4.441349e-09	1.296484e+01	2.934641e+02
1.900000e-06	1.976435e-06	4.459135e-09	1.284660e+01	2.916962e+02
1.910000e-06	1.957519e-06	4.432939e-09	1.272365e+01	2.898648e+02
1.920000e-06	1.938115e-06	4.365574e-09	1.259752e+01	2.880511e+02
1.930000e-06	1.918225e-06	4.351652e-09	1.246824e+01	2.862903e+02
1.940000e-06	1.897622e-06	4.348869e-09	1.233433e+01	2.845508e+02
1.950000e-06	1.876052e-06	4.299553e-09	1.219413e+01	2.827495e+02
1.960000e-06	1.853488e-06	4.281061e-09	1.204746e+01	2.807959e+02
1.970000e-06	1.830205e-06	4.248479e-09	1.189612e+01	2.786391e+02
1.980000e-06	1.806412e-06	4.189675e-09	1.174147e+01	2.762923e+02
1.990000e-06	1.782060e-06	4.168976e-09	1.158319e+01	2.738236e+02
2.000000e-06	1.757095e-06	4.164917e-09	1.142092e+01	2.713205e+02
2.010000e-06	1.731549e-06	4.094520e-09	1.125487e+01	2.688489e+02
2.020000e-06	1.705300e-06	4.036452e-09	1.108426e+01	2.664249e+02
2.030000e-06	1.678403e-06	4.033248e-09	1.090943e+01	2.640134e+02
2.040000e-06	1.651147e-06	3.986085e-09	1.073227e+01	2.615482e+02
2.050000e-06	1.623577e-06	3.938180e-09	1.055307e+01	2.589637e+02
2.060000e-06	1.595450e-06	3.913255e-09	1.037025e+01	2.562232e+02
2.070000e-06	1.566552e-06	3.862595e-09	1.018241e+01	2.533320e+02
2.080000e-06	1.536784e-06	3.802425e-09	9.988923e+00	2.503321e+02
2.090000e-06	1.506217e-06	3.779643e-09	9.790241e+00	2.472815e+02
2.100000e-06	1.475085e-06	3.730674e-09	9.587887e+00	2.442279e+02
2.110000e-06	1.443579e-06	3.651139e-09	9.383097e+00	2.411878e+02
2.120000e-06	1.411724e-06	3.618120e-09	9.176048e+00	2.381409e+02
2.130000e-06	1.379344e-06	3.589726e-09	8.965580e+00	2.350421e+02
2.140000e-06	1.346418e-06	3.540001e-09	8.751563e+00	2.318454e+02
2.150000e-06	1.313100e-06	3.481613e-09	8.535000e+00	2.285268e+02
2.160000e-06	1.279428e-06	3.427736e-09	8.316134e+00	2.250949e+02
2.170000e-06	1.245304e-06	3.376398e-09	8.094334e+00	2.215838e+02
2.180000e-06	1.210643e-06	3.327219e-09	7.869044e+00	2.180320e+02
2.190000e-06	1.175568e-06	3.268206e-09	7.641058e+00	2.144618e+02
2.200000e-06	1.140245e-06	3.208197e-09	7.411460e+00	2.108697e+02
2.210000e-06	1.104697e-06	3.160565e-09	7.180404e+00	2.072338e+02
2.220000e-06	1.068915e-06	3.102485e-09	6.947825e+00	2.035307e+02
2.230000e-06	1.032735e-06	3.049349e-09	6.712657e+00	1.997512e+02
2.240000e-06	9.959602e-07	2.990924e-09	6.473628e+00	1.959027e+02
2.250000e-06	9.585699e-07	2.921544e-09	6.230595e+00	1.919993e+02
2.260000e-06	9.205964e-07	2.860771e-09	5.983772e+00	1.880458e+02
2.270000e-06	8.820619e-07	2.812335e-09	5.733302e+00	1.840295e+02
2.280000e-06	8.430987e-07	2.748740e-09	5.480045e+00	1.799252e+02
2.290000e-06	8.038942e-07	2.675038e-09	5.225220e+00	1.757128e+02
2.300000e-06	7.645462e-07	2.611097e-09	4.969463e+00	1.713943e+02
2.310000e-06	7.250923e-07	2.547148e-09	4.713018e+00	1.669988e+02
2.320000e-06	6.854975e-07	2.482389e-09	4.455656e+00	1.625716e+02
2.330000e-06	6.457297e-07	2.411848e-09	4.197169e+00	1.581505e+02
2.340000e-06	6.057729e-07	2.343070e-09	3.937455e+00	1.537435e+02
2.350000e-06	5.656293e-07	2.278313e-09	3.676526e+00	1.493209e+02
2.360000e-06	5.252265e-07	2.214315e-09	3.413913e+00	1.448260e+02
2.370000e-06	4.845610e-07	2.143271e-09	3.149591e+00	1.402001e+02
2.380000e-06	4.437827e-07	2.066233e-09	2.884537e+00	1.354113e+02
2.390000e-06	4.028728e-07	1.989166e-09	2.618627e+00	1.304706e+02
2.400000e-06	3.617845e-07	1.912937e-09	2.351558e+00	1.254291e+02
2.410000e-06	3.205756e-07	1.838503e-09	2.083705e+00	1.203566e+02
2.420000e-06	2.792459e-07	1.758122e-09	1.815067e+00	1.153094e+02
2.430000e-06	2.378479e-07	1.679987e-09	1.545984e+00	1.103035e+02
2.440000e-06	1.964290e-07	1.606052e-09	1.276766e+00	1.053049e+02
2.450000e-06	1.549478e-07	1.532467e-09	1.007143e+00	1.002431e+02
2.460000e-06	1.133934e-07	1.453244e-09	7.370443e-01	9.504375e+01
2.470000e-06	7.180482e-08	1.368579e-09	4.667231e-01	8.966375e+01
2.480000e-06	3.021699e-08	1.284082e-09	1.964070e-01	8.411367e+01
2.490000e-06	-1.134784e-08	1.198621e-09	-7.375969e-02	7.845348e+01
2.500000e-06	-5.290194e-08	1.112797e-09	-3.438566e-01	7.276312e+01
2.510000e-06	-9.447393e-08	1.023044e-09	-6.140697e-01	6.710195e+01
2.520000e-06	-1.360319e-07	9.345804e-10	-8.841916e-01	6.147839e+01
2.530000e-06	-1.774937e-07	8.498922e-10	-1.153689e+00	5.584633e+01
2.540000e-06	-2.188891e-07	7.669422e-10	-1.422754e+00	5.013042e+01
2.550000e-06	-2.602744e-07	6.784566e-10	-1.691754e+00	4.426657e+01
2.560000e-06	-3.015977e-07	5.835361e-10	-1.960351e+00	3.823502e+01
2.570000e-06	-3.428446e-07	4.891722e-10	-2.228451e+00	3.206811e+01
2.580000e-06	-3.839774e-07	3.970882e-10	-2.495809e+00	2.582973e+01
2.590000e-06	-4.249764e-07	3.039352e-10	-2.762298e+00	1.957967e+01
2.600000e-06	-4.657700e-07	2.045557e-10	-3.027452e+00	1.334400e+01
2.610000e-06	-5.063161e-07	1.056673e-10	-3.290997e+00	7.107653e+00
2.620000e-06	-5.466412e-07	1.116791e-11	-3.553105e+00	8.309155e-01
2.630000e-06	-5.867576e-07	-8.015376e-11	-3.813858e+00	-5.522330e+00
2.640000e-06	-6.266631e-07	-1.756485e-10	-4.073239e+00	-1.196262e+01
2.650000e-06	-6.663604e-07	-2.777549e-10	-4.331267e+00	-1.847112e+01
2.660000e-06	-7.059103e-07	-3.795105e-10	-4.588337e+00	-2.501374e+01
2.670000e-06	-7.453477e-07	-4.766807e-10	-4.844675e+00	-3.156204e+01
2.680000e-06	-7.846969e-07	-5.739027e-10	-5.100440e+00	-3.810753e+01
2.690000e-06	-8.239174e-07	-6.774580e-10	-5.355369e+00	-4.466161e+01
2.700000e-06	-8.629155e-07	-7.820520e-10	-5.608852e+00	-5.124341e+01
2.710000e-06	-9.015569e-07	-8.837617e-10	-5.860017e+00	-5.786445e+01
2.720000e-06	-9.397342e-07	-9.824867e-10	-6.108165e+00	-6.451940e+01
2.730000e-06	-9.773806e-07	-1.080937e-09	-6.352862e+00	-7.118739e+01
2.740000e-06	-1.014421e-06	-1.181776e-09	-6.593618e+00	-7.784154e+01
2.750000e-06	-1.050860e-06	-1.282267e-09	-6.830473e+00	-8.446092e+01
2.760000e-06	-1.086836e-06	-1.379862e-09	-7.064312e+00	-9.103849e+01
2.770000e-06	-1.122488e-06	-1.477151e-09	-7.296044e+00	-9.758211e+01
2.780000e-06	-1.157908e-06	-1.578788e-09	-7.526273e+00	-1.041083e+02
2.790000e-06	-1.193057e-06	-1.682779e-09	-7.754736e+00	-1.106320e+02
2.800000e-06	-1.227756e-06	-1.783919e-09	-7.980273e+00	-1.171554e+02
2.810000e-06	-1.261993e-06	-1.879833e-09	-8.202811e+00	-1.236627e+02
2.820000e-06	-1.295816e-06	-1.975251e-09	-8.422653e+00	-1.301215e+02
2.830000e-06	-1.329253e-06	-2.072603e-09	-8.639990e+00	-1.364944e+02
2.840000e-06	-1.362303e-06	-2.167539e-09	-8.854814e+00	-1.427544e+02
2.850000e-06	-1.394823e-06	-2.258337e-09	-9.066193e+00	-1.488982e+02
2.860000e-06	-1.426819e-06	-2.349370e-09	-9.274161e+00	-1.549474e+02
2.870000e-06	-1.458442e-06	-2.444508e-09	-9.479706e+00	-1.609372e+02
2.880000e-06	-1.489723e-06	-2.540645e-09	-9.683028e+00	-1.668950e+02
2.890000e-06	-1.520473e-06	-2.632517e-09	-9.882899e+00	-1.728218e+02
2.900000e-06	-1.550468e-06	-2.717669e-09	-1.007787e+01	-1.786861e+02
2.910000e-06	-1.579565e-06	-2.800610e-09	-1.026699e+01	-1.844364e+02
2.920000e-06	-1.607824e-06	-2.886178e-09	-1.045067e+01	-1.900253e+02
2.930000e-06	-1.635549e-06	-2.972031e-09	-1.063088e+01	-1.954315e+02
2.940000e-06	-1.662914e-06	-3.053343e-09	-1.080875e+01	-2.006683e+02
