# Temperatura_=_20.0
# Concentracion g/m^3_=_10000.0
# C_Vs_to_Am_M_A/Vsm_=_65563218390.804596
# pendiente_HvsI_1/m_=_3716.3
# ordenada_HvsI_A/m_=_1297.0
# frecuencia_Hz_=_300953.6507165574

Tiempo_(s)	Campo_(V.s)	Magnetizacion_(V.s)	Campo_(kA/m)	Magnetizacion_(A/m)
0.000000e+00	-5.481319e-06	-9.701203e-09	-3.827303e+01	-6.997207e+02
1.000000e-08	-5.480165e-06	-9.700488e-09	-3.826498e+01	-7.010043e+02
2.000000e-08	-5.476986e-06	-9.690584e-09	-3.824278e+01	-7.020369e+02
3.000000e-08	-5.472029e-06	-9.680528e-09	-3.820816e+01	-7.028182e+02
4.000000e-08	-5.465477e-06	-9.676598e-09	-3.816242e+01	-7.033478e+02
5.000000e-08	-5.457324e-06	-9.672676e-09	-3.810549e+01	-7.036256e+02
6.000000e-08	-5.447261e-06	-9.664429e-09	-3.803522e+01	-7.036514e+02
7.000000e-08	-5.435058e-06	-9.648344e-09	-3.795002e+01	-7.034253e+02
8.000000e-08	-5.420874e-06	-9.628459e-09	-3.785098e+01	-7.029474e+02
9.000000e-08	-5.404432e-06	-9.637187e-09	-3.773617e+01	-7.022177e+02
1.000000e-07	-5.385611e-06	-9.630478e-09	-3.760476e+01	-7.012366e+02
1.100000e-07	-5.364778e-06	-9.599161e-09	-3.745929e+01	-7.000045e+02
1.200000e-07	-5.342138e-06	-9.580766e-09	-3.730120e+01	-6.985217e+02
1.300000e-07	-5.317919e-06	-9.527997e-09	-3.713210e+01	-6.967887e+02
1.400000e-07	-5.292238e-06	-9.522672e-09	-3.695278e+01	-6.948063e+02
1.500000e-07	-5.264785e-06	-9.568059e-09	-3.676110e+01	-6.925751e+02
1.600000e-07	-5.235595e-06	-9.481384e-09	-3.655728e+01	-6.900959e+02
1.700000e-07	-5.204847e-06	-9.469295e-09	-3.634258e+01	-6.873696e+02
1.800000e-07	-5.172169e-06	-9.483436e-09	-3.611441e+01	-6.843971e+02
1.900000e-07	-5.137385e-06	-9.385329e-09	-3.587153e+01	-6.811796e+02
2.000000e-07	-5.101067e-06	-9.409877e-09	-3.561794e+01	-6.777182e+02
2.100000e-07	-5.063181e-06	-9.406386e-09	-3.535340e+01	-6.740140e+02
2.200000e-07	-5.023450e-06	-9.326690e-09	-3.507599e+01	-6.700686e+02
2.300000e-07	-4.981859e-06	-9.318933e-09	-3.478557e+01	-6.658831e+02
2.400000e-07	-4.938262e-06	-9.289431e-09	-3.448116e+01	-6.614592e+02
2.500000e-07	-4.892853e-06	-9.247984e-09	-3.416410e+01	-6.567984e+02
2.600000e-07	-4.845603e-06	-9.204072e-09	-3.383418e+01	-6.519025e+02
2.700000e-07	-4.796275e-06	-9.117781e-09	-3.348975e+01	-6.467730e+02
2.800000e-07	-4.744888e-06	-9.098136e-09	-3.313094e+01	-6.414119e+02
2.900000e-07	-4.691647e-06	-9.074369e-09	-3.275919e+01	-6.358211e+02
3.000000e-07	-4.636721e-06	-9.036200e-09	-3.237567e+01	-6.300026e+02
3.100000e-07	-4.580171e-06	-9.003973e-09	-3.198081e+01	-6.239585e+02
3.200000e-07	-4.521770e-06	-8.932567e-09	-3.157303e+01	-6.176909e+02
3.300000e-07	-4.461651e-06	-8.874532e-09	-3.115325e+01	-6.112020e+02
3.400000e-07	-4.400122e-06	-8.824405e-09	-3.072363e+01	-6.044942e+02
3.500000e-07	-4.337144e-06	-8.772955e-09	-3.028389e+01	-5.975699e+02
3.600000e-07	-4.272693e-06	-8.694665e-09	-2.983386e+01	-5.904316e+02
3.700000e-07	-4.206509e-06	-8.629694e-09	-2.937173e+01	-5.830817e+02
3.800000e-07	-4.138671e-06	-8.600485e-09	-2.889806e+01	-5.755230e+02
3.900000e-07	-4.069412e-06	-8.555179e-09	-2.841446e+01	-5.677581e+02
4.000000e-07	-3.998736e-06	-8.497277e-09	-2.792097e+01	-5.597899e+02
4.100000e-07	-3.926806e-06	-8.406561e-09	-2.741872e+01	-5.516211e+02
4.200000e-07	-3.853503e-06	-8.320612e-09	-2.690689e+01	-5.432546e+02
4.300000e-07	-3.778522e-06	-8.264293e-09	-2.638334e+01	-5.346936e+02
4.400000e-07	-3.701934e-06	-8.192568e-09	-2.584857e+01	-5.259409e+02
4.500000e-07	-3.623845e-06	-8.103086e-09	-2.530331e+01	-5.169998e+02
4.600000e-07	-3.544150e-06	-8.012911e-09	-2.474685e+01	-5.078735e+02
4.700000e-07	-3.462962e-06	-7.940873e-09	-2.417995e+01	-4.985652e+02
4.800000e-07	-3.380645e-06	-7.879190e-09	-2.360518e+01	-4.890782e+02
4.900000e-07	-3.297288e-06	-7.794969e-09	-2.302314e+01	-4.794159e+02
5.000000e-07	-3.212915e-06	-7.686395e-09	-2.243402e+01	-4.695818e+02
5.100000e-07	-3.127567e-06	-7.576347e-09	-2.183808e+01	-4.595794e+02
5.200000e-07	-3.041272e-06	-7.488338e-09	-2.123553e+01	-4.494123e+02
5.300000e-07	-2.954051e-06	-7.399057e-09	-2.062651e+01	-4.390841e+02
5.400000e-07	-2.865877e-06	-7.287553e-09	-2.001084e+01	-4.285985e+02
5.500000e-07	-2.776635e-06	-7.169976e-09	-1.938771e+01	-4.179593e+02
5.600000e-07	-2.686033e-06	-7.060783e-09	-1.875509e+01	-4.071702e+02
5.700000e-07	-2.594282e-06	-6.966714e-09	-1.811444e+01	-3.962351e+02
5.800000e-07	-2.501741e-06	-6.859586e-09	-1.746828e+01	-3.851579e+02
5.900000e-07	-2.408352e-06	-6.726975e-09	-1.681620e+01	-3.739426e+02
6.000000e-07	-2.314089e-06	-6.586490e-09	-1.615801e+01	-3.625931e+02
6.100000e-07	-2.219127e-06	-6.460078e-09	-1.549494e+01	-3.511136e+02
6.200000e-07	-2.123495e-06	-6.340612e-09	-1.482720e+01	-3.395082e+02
6.300000e-07	-2.027215e-06	-6.202609e-09	-1.415492e+01	-3.277809e+02
6.400000e-07	-1.930209e-06	-6.048331e-09	-1.347759e+01	-3.159360e+02
6.500000e-07	-1.832246e-06	-5.898629e-09	-1.279356e+01	-3.039778e+02
6.600000e-07	-1.733304e-06	-5.766705e-09	-1.210271e+01	-2.919104e+02
6.700000e-07	-1.633632e-06	-5.627231e-09	-1.140675e+01	-2.797383e+02
6.800000e-07	-1.533493e-06	-5.461688e-09	-1.070754e+01	-2.674656e+02
6.900000e-07	-1.432986e-06	-5.282271e-09	-1.000575e+01	-2.550970e+02
7.000000e-07	-1.332092e-06	-5.113179e-09	-9.301264e+00	-2.426367e+02
7.100000e-07	-1.230729e-06	-4.951156e-09	-8.593503e+00	-2.300892e+02
7.200000e-07	-1.128870e-06	-4.772361e-09	-7.882275e+00	-2.174590e+02
7.300000e-07	-1.026571e-06	-4.573631e-09	-7.167982e+00	-2.047506e+02
7.400000e-07	-9.239515e-07	-4.373155e-09	-6.451444e+00	-1.919686e+02
7.500000e-07	-8.210558e-07	-4.185792e-09	-5.732980e+00	-1.791176e+02
7.600000e-07	-7.178374e-07	-3.994632e-09	-5.012263e+00	-1.662020e+02
7.700000e-07	-6.143442e-07	-3.783315e-09	-4.289627e+00	-1.532266e+02
7.800000e-07	-5.106748e-07	-3.556845e-09	-3.565761e+00	-1.401959e+02
7.900000e-07	-4.069087e-07	-3.334590e-09	-2.841219e+00	-1.271147e+02
8.000000e-07	-3.030494e-07	-3.117757e-09	-2.116027e+00	-1.139876e+02
8.100000e-07	-1.990479e-07	-2.884953e-09	-1.389842e+00	-1.008193e+02
8.200000e-07	-9.494675e-08	-2.627180e-09	-6.629608e-01	-8.761457e+01
8.300000e-07	9.168702e-09	-2.358489e-09	6.401999e-02	-7.437802e+01
8.400000e-07	1.132971e-07	-2.096976e-09	7.910911e-01	-6.111443e+01
8.500000e-07	2.174392e-07	-1.835956e-09	1.518258e+00	-4.782854e+01
8.600000e-07	3.215534e-07	-1.557746e-09	2.245230e+00	-3.452511e+01
8.700000e-07	4.255202e-07	-1.260451e-09	2.971173e+00	-2.120889e+01
8.800000e-07	5.292913e-07	-9.618910e-10	3.695749e+00	-7.884627e+00
8.900000e-07	6.328782e-07	-6.701205e-10	4.419040e+00	5.442900e+00
9.000000e-07	7.362748e-07	-3.681351e-10	5.141001e+00	1.876893e+01
9.100000e-07	8.394638e-07	-3.855320e-11	5.861513e+00	3.208871e+01
9.200000e-07	9.423595e-07	3.074799e-10	6.579977e+00	4.539747e+01
9.300000e-07	1.044878e-06	6.456215e-10	7.295804e+00	5.869045e+01
9.400000e-07	1.147011e-06	9.763162e-10	8.008944e+00	7.196290e+01
9.500000e-07	1.248798e-06	1.316151e-09	8.719670e+00	8.521008e+01
9.600000e-07	1.350135e-06	1.669758e-09	9.427249e+00	9.842725e+01
9.700000e-07	1.451003e-06	2.019254e-09	1.013156e+01	1.116097e+02
9.800000e-07	1.551502e-06	2.353229e-09	1.083329e+01	1.247527e+02
9.900000e-07	1.651600e-06	2.685481e-09	1.153221e+01	1.378515e+02
1.000000e-06	1.751088e-06	3.030553e-09	1.222689e+01	1.509016e+02
1.010000e-06	1.849754e-06	3.379980e-09	1.291581e+01	1.638981e+02
1.020000e-06	1.947563e-06	3.709498e-09	1.359876e+01	1.768365e+02
1.030000e-06	2.044548e-06	4.013033e-09	1.427596e+01	1.897122e+02
1.040000e-06	2.140784e-06	4.306785e-09	1.494791e+01	2.025204e+02
1.050000e-06	2.236304e-06	4.600677e-09	1.561488e+01	2.152568e+02
1.060000e-06	2.331035e-06	4.880301e-09	1.627633e+01	2.279166e+02
1.070000e-06	2.424970e-06	5.132745e-09	1.693223e+01	2.404955e+02
1.080000e-06	2.518164e-06	5.368276e-09	1.758295e+01	2.529888e+02
1.090000e-06	2.610666e-06	5.606442e-09	1.822884e+01	2.653921e+02
1.100000e-06	2.702351e-06	5.848325e-09	1.886903e+01	2.777010e+02
1.110000e-06	2.792864e-06	6.073978e-09	1.950103e+01	2.899112e+02
1.120000e-06	2.882127e-06	6.277014e-09	2.012431e+01	3.020181e+02
1.130000e-06	2.970385e-06	6.468062e-09	2.074056e+01	3.140175e+02
1.140000e-06	3.057652e-06	6.657777e-09	2.134990e+01	3.259051e+02
1.150000e-06	3.143886e-06	6.839479e-09	2.195203e+01	3.376767e+02
1.160000e-06	3.229116e-06	6.999879e-09	2.254714e+01	3.493281e+02
1.170000e-06	3.313359e-06	7.143756e-09	2.313536e+01	3.608550e+02
1.180000e-06	3.396542e-06	7.289693e-09	2.371618e+01	3.722533e+02
1.190000e-06	3.478436e-06	7.441530e-09	2.428800e+01	3.835191e+02
1.200000e-06	3.559036e-06	7.584357e-09	2.485079e+01	3.946482e+02
1.210000e-06	3.638301e-06	7.708458e-09	2.540425e+01	4.056368e+02
1.220000e-06	3.716174e-06	7.823606e-09	2.594799e+01	4.164807e+02
1.230000e-06	3.792772e-06	7.943184e-09	2.648284e+01	4.271763e+02
1.240000e-06	3.867956e-06	8.059665e-09	2.700780e+01	4.377196e+02
1.250000e-06	3.941488e-06	8.159731e-09	2.752124e+01	4.481069e+02
1.260000e-06	4.013465e-06	8.245965e-09	2.802382e+01	4.583344e+02
1.270000e-06	4.084075e-06	8.335190e-09	2.851685e+01	4.683986e+02
1.280000e-06	4.153354e-06	8.431711e-09	2.900059e+01	4.782959e+02
1.290000e-06	4.221278e-06	8.521689e-09	2.947486e+01	4.880226e+02
1.300000e-06	4.287547e-06	8.597353e-09	2.993758e+01	4.975753e+02
1.310000e-06	4.352126e-06	8.668699e-09	3.038850e+01	5.069506e+02
1.320000e-06	4.415259e-06	8.745741e-09	3.082932e+01	5.161451e+02
1.330000e-06	4.476986e-06	8.822952e-09	3.126032e+01	5.251556e+02
1.340000e-06	4.537333e-06	8.887723e-09	3.168170e+01	5.339789e+02
1.350000e-06	4.596077e-06	8.939486e-09	3.209188e+01	5.426117e+02
1.360000e-06	4.652999e-06	8.992069e-09	3.248933e+01	5.510510e+02
1.370000e-06	4.708188e-06	9.050724e-09	3.287468e+01	5.592938e+02
1.380000e-06	4.761652e-06	9.107670e-09	3.324799e+01	5.673372e+02
1.390000e-06	4.813190e-06	9.154459e-09	3.360785e+01	5.751782e+02
1.400000e-06	4.862696e-06	9.196707e-09	3.395353e+01	5.828140e+02
1.410000e-06	4.910352e-06	9.243654e-09	3.428628e+01	5.902420e+02
1.420000e-06	4.956341e-06	9.291148e-09	3.460740e+01	5.974595e+02
1.430000e-06	5.000714e-06	9.331353e-09	3.491723e+01	6.044638e+02
1.440000e-06	5.043187e-06	9.362561e-09	3.521380e+01	6.112526e+02
1.450000e-06	5.083744e-06	9.392628e-09	3.549698e+01	6.178233e+02
1.460000e-06	5.122623e-06	9.427246e-09	3.576845e+01	6.241737e+02
1.470000e-06	5.159843e-06	9.462128e-09	3.602834e+01	6.303013e+02
1.480000e-06	5.195276e-06	9.490297e-09	3.627575e+01	6.362042e+02
1.490000e-06	5.228716e-06	9.512652e-09	3.650924e+01	6.418801e+02
1.500000e-06	5.260329e-06	9.536160e-09	3.672998e+01	6.473270e+02
1.510000e-06	5.290292e-06	9.562207e-09	3.693919e+01	6.525430e+02
1.520000e-06	5.318567e-06	9.586207e-09	3.713663e+01	6.575262e+02
1.530000e-06	5.344835e-06	9.602099e-09	3.732004e+01	6.622748e+02
1.540000e-06	5.369001e-06	9.612309e-09	3.748878e+01	6.667872e+02
1.550000e-06	5.391297e-06	9.625186e-09	3.764446e+01	6.710617e+02
1.560000e-06	5.411884e-06	9.643818e-09	3.778821e+01	6.750968e+02
1.570000e-06	5.430711e-06	9.660755e-09	3.791966e+01	6.788910e+02
1.580000e-06	5.447491e-06	9.670415e-09	3.803683e+01	6.824430e+02
1.590000e-06	5.462182e-06	9.677611e-09	3.813941e+01	6.857516e+02
1.600000e-06	5.474821e-06	9.687374e-09	3.822766e+01	6.888155e+02
1.610000e-06	5.485209e-06	9.697075e-09	3.830019e+01	6.916336e+02
1.620000e-06	5.493492e-06	9.700071e-09	3.835803e+01	6.942051e+02
1.630000e-06	5.499948e-06	9.698160e-09	3.840311e+01	6.965288e+02
1.640000e-06	5.504655e-06	9.699027e-09	3.843598e+01	6.986040e+02
1.650000e-06	5.507411e-06	9.704953e-09	3.845522e+01	7.004300e+02
1.660000e-06	5.508096e-06	9.709598e-09	3.846000e+01	7.020061e+02
1.670000e-06	5.506995e-06	9.707135e-09	3.845231e+01	7.033317e+02
1.680000e-06	5.504232e-06	9.702841e-09	3.843302e+01	7.044064e+02
1.690000e-06	5.499663e-06	9.699819e-09	3.840112e+01	7.052298e+02
1.700000e-06	5.493139e-06	9.695685e-09	3.835556e+01	7.058016e+02
1.710000e-06	5.484822e-06	9.685093e-09	3.829749e+01	7.061216e+02
1.720000e-06	5.474864e-06	9.672181e-09	3.822796e+01	7.061896e+02
1.730000e-06	5.463150e-06	9.672951e-09	3.814617e+01	7.060057e+02
1.740000e-06	5.449416e-06	9.673058e-09	3.805027e+01	7.055699e+02
1.750000e-06	5.433611e-06	9.647280e-09	3.793991e+01	7.048824e+02
1.760000e-06	5.415404e-06	9.638305e-09	3.781279e+01	7.039435e+02
1.770000e-06	5.394320e-06	9.612672e-09	3.766557e+01	7.027534e+02
1.780000e-06	5.370925e-06	9.611675e-09	3.750221e+01	7.013125e+02
1.790000e-06	5.346314e-06	9.615116e-09	3.733037e+01	6.996215e+02
1.800000e-06	5.320957e-06	9.518646e-09	3.715331e+01	6.976809e+02
1.810000e-06	5.294030e-06	9.548530e-09	3.696529e+01	6.954914e+02
1.820000e-06	5.264711e-06	9.554359e-09	3.676058e+01	6.930538e+02
1.830000e-06	5.233711e-06	9.475377e-09	3.654412e+01	6.903689e+02
1.840000e-06	5.201097e-06	9.542624e-09	3.631639e+01	6.874378e+02
1.850000e-06	5.166499e-06	9.487770e-09	3.607481e+01	6.842614e+02
1.860000e-06	5.130253e-06	9.371896e-09	3.582173e+01	6.808410e+02
1.870000e-06	5.092066e-06	9.428001e-09	3.555509e+01	6.771776e+02
1.880000e-06	5.051989e-06	9.379324e-09	3.527526e+01	6.732728e+02
1.890000e-06	5.010267e-06	9.322695e-09	3.498394e+01	6.691277e+02
1.900000e-06	4.966695e-06	9.318684e-09	3.467969e+01	6.647440e+02
1.910000e-06	4.921507e-06	9.246352e-09	3.436418e+01	6.601232e+02
1.920000e-06	4.874581e-06	9.286250e-09	3.403651e+01	6.552669e+02
1.930000e-06	4.825707e-06	9.241833e-09	3.369525e+01	6.501769e+02
1.940000e-06	4.775100e-06	9.161796e-09	3.334189e+01	6.448550e+02
1.950000e-06	4.722452e-06	9.138732e-09	3.297428e+01	6.393031e+02
1.960000e-06	4.667823e-06	9.034902e-09	3.259284e+01	6.335232e+02
1.970000e-06	4.611514e-06	9.026545e-09	3.219966e+01	6.275174e+02
1.980000e-06	4.553540e-06	9.002458e-09	3.179486e+01	6.212878e+02
1.990000e-06	4.494124e-06	8.935973e-09	3.137999e+01	6.148366e+02
2.000000e-06	4.433033e-06	8.893789e-09	3.095343e+01	6.081662e+02
2.010000e-06	4.370172e-06	8.818067e-09	3.051451e+01	6.012789e+02
2.020000e-06	4.305775e-06	8.816510e-09	3.006486e+01	5.941771e+02
2.030000e-06	4.239888e-06	8.739031e-09	2.960480e+01	5.868636e+02
2.040000e-06	4.172591e-06	8.642902e-09	2.913491e+01	5.793407e+02
2.050000e-06	4.103642e-06	8.581775e-09	2.865347e+01	5.716114e+02
2.060000e-06	4.033050e-06	8.512702e-09	2.816057e+01	5.636782e+02
2.070000e-06	3.961063e-06	8.494595e-09	2.765792e+01	5.555441e+02
2.080000e-06	3.887673e-06	8.392888e-09	2.714548e+01	5.472119e+02
2.090000e-06	3.812827e-06	8.311135e-09	2.662287e+01	5.386847e+02
2.100000e-06	3.736405e-06	8.246538e-09	2.608926e+01	5.299654e+02
2.110000e-06	3.658416e-06	8.183966e-09	2.554470e+01	5.210572e+02
2.120000e-06	3.579069e-06	8.123137e-09	2.499067e+01	5.119634e+02
2.130000e-06	3.498514e-06	7.995895e-09	2.442820e+01	5.026871e+02
2.140000e-06	3.416746e-06	7.908863e-09	2.385726e+01	4.932316e+02
2.150000e-06	3.333869e-06	7.825205e-09	2.327857e+01	4.836004e+02
2.160000e-06	3.249918e-06	7.756391e-09	2.269239e+01	4.737968e+02
2.170000e-06	3.164607e-06	7.660210e-09	2.209671e+01	4.638245e+02
2.180000e-06	3.077938e-06	7.539638e-09	2.149154e+01	4.536869e+02
2.190000e-06	2.990197e-06	7.447564e-09	2.087890e+01	4.433877e+02
2.200000e-06	2.901540e-06	7.353672e-09	2.025986e+01	4.329306e+02
2.210000e-06	2.811996e-06	7.263337e-09	1.963462e+01	4.223192e+02
2.220000e-06	2.721501e-06	7.131501e-09	1.900274e+01	4.115575e+02
2.230000e-06	2.630191e-06	7.001717e-09	1.836517e+01	4.006492e+02
2.240000e-06	2.538106e-06	6.890856e-09	1.772220e+01	3.895983e+02
2.250000e-06	2.444985e-06	6.788630e-09	1.707198e+01	3.784087e+02
2.260000e-06	2.350677e-06	6.672584e-09	1.641348e+01	3.670844e+02
2.270000e-06	2.255421e-06	6.528065e-09	1.574836e+01	3.556295e+02
2.280000e-06	2.159487e-06	6.393406e-09	1.507851e+01	3.440480e+02
2.290000e-06	2.062927e-06	6.269416e-09	1.440428e+01	3.323441e+02
2.300000e-06	1.965723e-06	6.143274e-09	1.372556e+01	3.205219e+02
2.310000e-06	1.867794e-06	5.986830e-09	1.304177e+01	3.085858e+02
2.320000e-06	1.769196e-06	5.817607e-09	1.235332e+01	2.965400e+02
2.330000e-06	1.670129e-06	5.662941e-09	1.166159e+01	2.843887e+02
2.340000e-06	1.570699e-06	5.520031e-09	1.096733e+01	2.721364e+02
2.350000e-06	1.470794e-06	5.366795e-09	1.026975e+01	2.597874e+02
2.360000e-06	1.370171e-06	5.189532e-09	9.567149e+00	2.473462e+02
2.370000e-06	1.268789e-06	5.008831e-09	8.859255e+00	2.348171e+02
2.380000e-06	1.166918e-06	4.837886e-09	8.147944e+00	2.222046e+02
2.390000e-06	1.064625e-06	4.666403e-09	7.433693e+00	2.095134e+02
2.400000e-06	9.617832e-07	4.471925e-09	6.715602e+00	1.967478e+02
2.410000e-06	8.585290e-07	4.261078e-09	5.994635e+00	1.839125e+02
2.420000e-06	7.550093e-07	4.055952e-09	5.271814e+00	1.710121e+02
2.430000e-06	6.513170e-07	3.860428e-09	4.547788e+00	1.580512e+02
2.440000e-06	5.474432e-07	3.656218e-09	3.822494e+00	1.450343e+02
2.450000e-06	4.433874e-07	3.426871e-09	3.095930e+00	1.319663e+02
2.460000e-06	3.392626e-07	3.186363e-09	2.368884e+00	1.188517e+02
2.470000e-06	2.350537e-07	2.953511e-09	1.641251e+00	1.056952e+02
2.480000e-06	1.307550e-07	2.720797e-09	9.129900e-01	9.250155e+01
2.490000e-06	2.638950e-08	2.467930e-09	1.842633e-01	7.927546e+01
2.500000e-06	-7.795867e-08	2.192942e-09	-5.443425e-01	6.602166e+01
2.510000e-06	-1.822512e-07	1.917213e-09	-1.272559e+00	5.274488e+01
2.520000e-06	-2.864767e-07	1.651873e-09	-2.000309e+00	3.944987e+01
2.530000e-06	-3.905578e-07	1.380416e-09	-2.727050e+00	2.614139e+01
2.540000e-06	-4.945205e-07	1.083114e-09	-3.452964e+00	1.282420e+01
2.550000e-06	-5.983507e-07	7.673408e-10	-4.177954e+00	-4.969380e-01
2.560000e-06	-7.019924e-07	4.561198e-10	-4.901627e+00	-1.381727e+01
2.570000e-06	-8.054492e-07	1.505503e-10	-5.624008e+00	-2.713201e+01
2.580000e-06	-9.085654e-07	-1.708988e-10	-6.344012e+00	-4.043643e+01
2.590000e-06	-1.011247e-06	-5.176196e-10	-7.060979e+00	-5.372574e+01
2.600000e-06	-1.113515e-06	-8.690364e-10	-7.775065e+00	-6.699520e+01
2.610000e-06	-1.215245e-06	-1.209097e-09	-8.485385e+00	-8.024007e+01
2.620000e-06	-1.316372e-06	-1.547366e-09	-9.191503e+00	-9.345561e+01
2.630000e-06	-1.416903e-06	-1.898293e-09	-9.893454e+00	-1.066371e+02
2.640000e-06	-1.516867e-06	-2.256508e-09	-1.059145e+01	-1.197798e+02
2.650000e-06	-1.616361e-06	-2.598784e-09	-1.128616e+01	-1.328790e+02
2.660000e-06	-1.715380e-06	-2.921139e-09	-1.197755e+01	-1.459301e+02
2.670000e-06	-1.813848e-06	-3.243830e-09	-1.266510e+01	-1.589284e+02
2.680000e-06	-1.911704e-06	-3.577146e-09	-1.334837e+01	-1.718692e+02
2.690000e-06	-2.008873e-06	-3.905024e-09	-1.402685e+01	-1.847478e+02
2.700000e-06	-2.105401e-06	-4.207906e-09	-1.470085e+01	-1.975598e+02
2.710000e-06	-2.201300e-06	-4.490288e-09	-1.537047e+01	-2.103005e+02
2.720000e-06	-2.296566e-06	-4.768181e-09	-1.603566e+01	-2.229653e+02
2.730000e-06	-2.391083e-06	-5.043444e-09	-1.669562e+01	-2.355498e+02
2.740000e-06	-2.484550e-06	-5.298387e-09	-1.734825e+01	-2.480494e+02
2.750000e-06	-2.576889e-06	-5.527974e-09	-1.799300e+01	-2.604597e+02
2.760000e-06	-2.668218e-06	-5.750631e-09	-1.863069e+01	-2.727761e+02
2.770000e-06	-2.758632e-06	-5.977645e-09	-1.926201e+01	-2.849944e+02
2.780000e-06	-2.848050e-06	-6.198403e-09	-1.988637e+01	-2.971101e+02
2.790000e-06	-2.936465e-06	-6.397147e-09	-2.050372e+01	-3.091190e+02
2.800000e-06	-3.024019e-06	-6.578629e-09	-2.111506e+01	-3.210166e+02
2.810000e-06	-3.110619e-06	-6.757096e-09	-2.171974e+01	-3.327988e+02
2.820000e-06	-3.195906e-06	-6.932915e-09	-2.231525e+01	-3.444614e+02
2.830000e-06	-3.279868e-06	-7.092090e-09	-2.290151e+01	-3.560001e+02
2.840000e-06	-3.362770e-06	-7.229920e-09	-2.348037e+01	-3.674109e+02
2.850000e-06	-3.444599e-06	-7.360681e-09	-2.405174e+01	-3.786896e+02
2.860000e-06	-3.525235e-06	-7.497932e-09	-2.461478e+01	-3.898323e+02
2.870000e-06	-3.604669e-06	-7.635310e-09	-2.516942e+01	-4.008349e+02
2.880000e-06	-3.682731e-06	-7.759107e-09	-2.571448e+01	-4.116936e+02
2.890000e-06	-3.759190e-06	-7.868867e-09	-2.624835e+01	-4.224044e+02
2.900000e-06	-3.834185e-06	-7.977363e-09	-2.677200e+01	-4.329634e+02
2.910000e-06	-3.907758e-06	-8.090431e-09	-2.728572e+01	-4.433670e+02
2.920000e-06	-3.979949e-06	-8.196555e-09	-2.778979e+01	-4.536115e+02
2.930000e-06	-4.050873e-06	-8.287264e-09	-2.828501e+01	-4.636930e+02
2.940000e-06	-4.120224e-06	-8.367791e-09	-2.876925e+01	-4.736081e+02
