# Temperatura_=_20.0
# Concentracion g/m^3_=_10000.0
# C_Vs_to_Am_M_A/Vsm_=_65563218390.804596
# pendiente_HvsI_1/m_=_3716.3
# ordenada_HvsI_A/m_=_1297.0
# frecuencia_Hz_=_212983.25156162106

Tiempo_(s)	Campo_(V.s)	Magnetizacion_(V.s)	Campo_(kA/m)	Magnetizacion_(A/m)
0.000000e+00	-8.805930e-07	-1.390201e-09	-6.865598e+00	-8.812061e+01
1.000000e-08	-8.806292e-07	-1.361613e-09	-6.865881e+00	-8.808856e+01
2.000000e-08	-8.805125e-07	-1.358662e-09	-6.864971e+00	-8.804373e+01
3.000000e-08	-8.801907e-07	-1.352780e-09	-6.862462e+00	-8.799682e+01
4.000000e-08	-8.796488e-07	-1.336415e-09	-6.858237e+00	-8.795350e+01
5.000000e-08	-8.788146e-07	-1.345997e-09	-6.851733e+00	-8.791224e+01
6.000000e-08	-8.776987e-07	-1.344825e-09	-6.843032e+00	-8.786490e+01
7.000000e-08	-8.764128e-07	-1.335978e-09	-6.833007e+00	-8.779980e+01
8.000000e-08	-8.750235e-07	-1.337401e-09	-6.822175e+00	-8.770626e+01
9.000000e-08	-8.735415e-07	-1.339855e-09	-6.810621e+00	-8.757878e+01
1.000000e-07	-8.719632e-07	-1.337213e-09	-6.798316e+00	-8.741939e+01
1.100000e-07	-8.702772e-07	-1.328769e-09	-6.785170e+00	-8.723721e+01
1.200000e-07	-8.684890e-07	-1.327759e-09	-6.771229e+00	-8.704525e+01
1.300000e-07	-8.665698e-07	-1.333277e-09	-6.756266e+00	-8.685574e+01
1.400000e-07	-8.644750e-07	-1.322695e-09	-6.739933e+00	-8.667571e+01
1.500000e-07	-8.622242e-07	-1.307858e-09	-6.722385e+00	-8.650441e+01
1.600000e-07	-8.598235e-07	-1.303180e-09	-6.703668e+00	-8.633364e+01
1.700000e-07	-8.572398e-07	-1.308660e-09	-6.683524e+00	-8.615083e+01
1.800000e-07	-8.544803e-07	-1.305720e-09	-6.662009e+00	-8.594369e+01
1.900000e-07	-8.515874e-07	-1.291317e-09	-6.639454e+00	-8.570473e+01
2.000000e-07	-8.485829e-07	-1.284036e-09	-6.616029e+00	-8.543390e+01
2.100000e-07	-8.454677e-07	-1.285374e-09	-6.591742e+00	-8.513828e+01
2.200000e-07	-8.422490e-07	-1.284482e-09	-6.566647e+00	-8.482907e+01
2.300000e-07	-8.389027e-07	-1.272249e-09	-6.540557e+00	-8.451694e+01
2.400000e-07	-8.353769e-07	-1.257793e-09	-6.513068e+00	-8.420746e+01
2.500000e-07	-8.316341e-07	-1.257010e-09	-6.483887e+00	-8.389851e+01
2.600000e-07	-8.276449e-07	-1.260511e-09	-6.452785e+00	-8.358052e+01
2.700000e-07	-8.233942e-07	-1.255581e-09	-6.419644e+00	-8.323971e+01
2.800000e-07	-8.189462e-07	-1.244659e-09	-6.384965e+00	-8.286303e+01
2.900000e-07	-8.143637e-07	-1.232104e-09	-6.349237e+00	-8.244301e+01
3.000000e-07	-8.096494e-07	-1.226494e-09	-6.312482e+00	-8.198089e+01
3.100000e-07	-8.047952e-07	-1.219028e-09	-6.274636e+00	-8.148666e+01
3.200000e-07	-7.997811e-07	-1.210297e-09	-6.235544e+00	-8.097607e+01
3.300000e-07	-7.946191e-07	-1.201397e-09	-6.195297e+00	-8.046561e+01
3.400000e-07	-7.893160e-07	-1.195251e-09	-6.153951e+00	-7.996718e+01
3.500000e-07	-7.838621e-07	-1.192638e-09	-6.111430e+00	-7.948438e+01
3.600000e-07	-7.782549e-07	-1.183830e-09	-6.067713e+00	-7.901155e+01
3.700000e-07	-7.724755e-07	-1.173980e-09	-6.022654e+00	-7.853594e+01
3.800000e-07	-7.665315e-07	-1.163581e-09	-5.976311e+00	-7.804215e+01
3.900000e-07	-7.604072e-07	-1.156423e-09	-5.928562e+00	-7.751709e+01
4.000000e-07	-7.540456e-07	-1.152219e-09	-5.878964e+00	-7.695400e+01
4.100000e-07	-7.474830e-07	-1.145524e-09	-5.827798e+00	-7.635394e+01
4.200000e-07	-7.408164e-07	-1.135925e-09	-5.775821e+00	-7.572452e+01
4.300000e-07	-7.340522e-07	-1.124300e-09	-5.723084e+00	-7.507650e+01
4.400000e-07	-7.271633e-07	-1.117331e-09	-5.669374e+00	-7.441957e+01
4.500000e-07	-7.201580e-07	-1.110504e-09	-5.614757e+00	-7.375896e+01
4.600000e-07	-7.130648e-07	-1.096985e-09	-5.559454e+00	-7.309409e+01
4.700000e-07	-7.058894e-07	-1.084727e-09	-5.503511e+00	-7.241962e+01
4.800000e-07	-6.986121e-07	-1.076371e-09	-5.446773e+00	-7.172843e+01
4.900000e-07	-6.911737e-07	-1.068754e-09	-5.388779e+00	-7.101517e+01
5.000000e-07	-6.835613e-07	-1.054787e-09	-5.329429e+00	-7.027908e+01
5.100000e-07	-6.758491e-07	-1.040357e-09	-5.269300e+00	-6.952490e+01
5.200000e-07	-6.680408e-07	-1.032636e-09	-5.208421e+00	-6.876145e+01
5.300000e-07	-6.601350e-07	-1.022846e-09	-5.146784e+00	-6.799851e+01
5.400000e-07	-6.521718e-07	-1.011264e-09	-5.084698e+00	-6.724320e+01
5.500000e-07	-6.441565e-07	-9.996231e-10	-5.022206e+00	-6.649711e+01
5.600000e-07	-6.360786e-07	-9.892376e-10	-4.959227e+00	-6.575543e+01
5.700000e-07	-6.278908e-07	-9.798608e-10	-4.895390e+00	-6.500835e+01
5.800000e-07	-6.195651e-07	-9.680766e-10	-4.830478e+00	-6.424420e+01
5.900000e-07	-6.111032e-07	-9.558452e-10	-4.764505e+00	-6.345324e+01
6.000000e-07	-6.025256e-07	-9.440151e-10	-4.697629e+00	-6.263065e+01
6.100000e-07	-5.938848e-07	-9.322122e-10	-4.630260e+00	-6.177773e+01
6.200000e-07	-5.851572e-07	-9.190988e-10	-4.562215e+00	-6.090086e+01
6.300000e-07	-5.763243e-07	-9.047043e-10	-4.493348e+00	-6.000868e+01
6.400000e-07	-5.673782e-07	-8.903179e-10	-4.423600e+00	-5.910865e+01
6.500000e-07	-5.583147e-07	-8.746669e-10	-4.352935e+00	-5.820436e+01
6.600000e-07	-5.491841e-07	-8.600762e-10	-4.281748e+00	-5.729450e+01
6.700000e-07	-5.399729e-07	-8.460221e-10	-4.209932e+00	-5.637409e+01
6.800000e-07	-5.306507e-07	-8.313520e-10	-4.137251e+00	-5.543727e+01
6.900000e-07	-5.212305e-07	-8.171170e-10	-4.063806e+00	-5.448070e+01
7.000000e-07	-5.117350e-07	-8.020579e-10	-3.989774e+00	-5.350609e+01
7.100000e-07	-5.021856e-07	-7.883414e-10	-3.915321e+00	-5.252075e+01
7.200000e-07	-4.925907e-07	-7.736408e-10	-3.840514e+00	-5.153583e+01
7.300000e-07	-4.829415e-07	-7.583318e-10	-3.765284e+00	-5.056280e+01
7.400000e-07	-4.732181e-07	-7.432371e-10	-3.689474e+00	-4.960922e+01
7.500000e-07	-4.633937e-07	-7.263824e-10	-3.612878e+00	-4.867556e+01
7.600000e-07	-4.534384e-07	-7.104600e-10	-3.535261e+00	-4.775416e+01
7.700000e-07	-4.433865e-07	-6.939858e-10	-3.456890e+00	-4.683095e+01
7.800000e-07	-4.332359e-07	-6.780322e-10	-3.377751e+00	-4.588945e+01
7.900000e-07	-4.229514e-07	-6.641444e-10	-3.297567e+00	-4.491586e+01
8.000000e-07	-4.125330e-07	-6.502195e-10	-3.216339e+00	-4.390343e+01
8.100000e-07	-4.019800e-07	-6.355061e-10	-3.134062e+00	-4.285475e+01
8.200000e-07	-3.913102e-07	-6.187191e-10	-3.050874e+00	-4.178100e+01
8.300000e-07	-3.805308e-07	-6.014445e-10	-2.966832e+00	-4.069850e+01
8.400000e-07	-3.696500e-07	-5.851160e-10	-2.881999e+00	-3.962357e+01
8.500000e-07	-3.587090e-07	-5.690022e-10	-2.796697e+00	-3.856744e+01
8.600000e-07	-3.477257e-07	-5.516758e-10	-2.711065e+00	-3.753300e+01
8.700000e-07	-3.366851e-07	-5.348521e-10	-2.624986e+00	-3.651417e+01
8.800000e-07	-3.255975e-07	-5.216445e-10	-2.538541e+00	-3.549837e+01
8.900000e-07	-3.144814e-07	-5.080443e-10	-2.451874e+00	-3.447094e+01
9.000000e-07	-3.033406e-07	-4.927535e-10	-2.365014e+00	-3.342001e+01
9.100000e-07	-2.921703e-07	-4.768516e-10	-2.277924e+00	-3.234030e+01
9.200000e-07	-2.809827e-07	-4.593582e-10	-2.190699e+00	-3.123443e+01
9.300000e-07	-2.697717e-07	-4.429898e-10	-2.103292e+00	-3.011159e+01
9.400000e-07	-2.585294e-07	-4.264407e-10	-2.015640e+00	-2.898404e+01
9.500000e-07	-2.472665e-07	-4.081222e-10	-1.927829e+00	-2.786290e+01
9.600000e-07	-2.359503e-07	-3.899764e-10	-1.839601e+00	-2.675459e+01
9.700000e-07	-2.245930e-07	-3.742664e-10	-1.751054e+00	-2.565927e+01
9.800000e-07	-2.132061e-07	-3.610270e-10	-1.662275e+00	-2.457153e+01
9.900000e-07	-2.017632e-07	-3.461997e-10	-1.573059e+00	-2.348301e+01
1.000000e-06	-1.902756e-07	-3.299166e-10	-1.483496e+00	-2.238577e+01
1.010000e-06	-1.787654e-07	-3.140704e-10	-1.393755e+00	-2.127516e+01
1.020000e-06	-1.672143e-07	-2.995119e-10	-1.303696e+00	-2.015105e+01
1.030000e-06	-1.555995e-07	-2.844682e-10	-1.213142e+00	-1.901721e+01
1.040000e-06	-1.439777e-07	-2.673542e-10	-1.122531e+00	-1.787914e+01
1.050000e-06	-1.323234e-07	-2.503825e-10	-1.031667e+00	-1.674143e+01
1.060000e-06	-1.206045e-07	-2.339588e-10	-9.403005e-01	-1.560575e+01
1.070000e-06	-1.088738e-07	-2.183214e-10	-8.488412e-01	-1.447028e+01
1.080000e-06	-9.713643e-08	-2.016359e-10	-7.573302e-01	-1.333081e+01
1.090000e-06	-8.537848e-08	-1.845268e-10	-6.656587e-01	-1.218292e+01
1.100000e-06	-7.360897e-08	-1.698311e-10	-5.738969e-01	-1.102429e+01
1.110000e-06	-6.184099e-08	-1.540601e-10	-4.821472e-01	-9.856059e+00
1.120000e-06	-5.004368e-08	-1.368936e-10	-3.901687e-01	-8.682589e+00
1.130000e-06	-3.821395e-08	-1.204346e-10	-2.979375e-01	-7.509730e+00
1.140000e-06	-2.639171e-08	-1.046667e-10	-2.057646e-01	-6.342232e+00
1.150000e-06	-1.457183e-08	-8.920285e-11	-1.136102e-01	-5.181490e+00
1.160000e-06	-2.767176e-09	-7.349137e-11	-2.157446e-02	-4.024651e+00
1.170000e-06	9.028033e-09	-5.665740e-11	7.038762e-02	-2.865599e+00
1.180000e-06	2.082599e-08	-3.935967e-11	1.623711e-01	-1.697557e+00
1.190000e-06	3.260969e-08	-2.208269e-11	2.542435e-01	-5.163318e-01
1.200000e-06	4.438633e-08	-4.311612e-12	3.460608e-01	6.771603e-01
1.210000e-06	5.614378e-08	1.226166e-11	4.377285e-01	1.876211e+00
1.220000e-06	6.787745e-08	2.884396e-11	5.292108e-01	3.069981e+00
1.230000e-06	7.961807e-08	4.654618e-11	6.207473e-01	4.247047e+00
1.240000e-06	9.135319e-08	6.388976e-11	7.122408e-01	5.399588e+00
1.250000e-06	1.030914e-07	8.079681e-11	8.037583e-01	6.526591e+00
1.260000e-06	1.148137e-07	9.741693e-11	8.951520e-01	7.634730e+00
1.270000e-06	1.264612e-07	1.142667e-10	9.859628e-01	8.736388e+00
1.280000e-06	1.380730e-07	1.325153e-10	1.076495e+00	9.845373e+00
1.290000e-06	1.496862e-07	1.504950e-10	1.167038e+00	1.097182e+01
1.300000e-06	1.612733e-07	1.670939e-10	1.257377e+00	1.211819e+01
1.310000e-06	1.728010e-07	1.828518e-10	1.347254e+00	1.327796e+01
1.320000e-06	1.843005e-07	2.001999e-10	1.436911e+00	1.443771e+01
1.330000e-06	1.957926e-07	2.206203e-10	1.526509e+00	1.558196e+01
1.340000e-06	2.072361e-07	2.396685e-10	1.615729e+00	1.669918e+01
1.350000e-06	2.186429e-07	2.554562e-10	1.704663e+00	1.778672e+01
1.360000e-06	2.300228e-07	2.704198e-10	1.793387e+00	1.885270e+01
1.370000e-06	2.413463e-07	2.861333e-10	1.881671e+00	1.991415e+01
1.380000e-06	2.526271e-07	3.032428e-10	1.969623e+00	2.099163e+01
1.390000e-06	2.638887e-07	3.209693e-10	2.057425e+00	2.210234e+01
1.400000e-06	2.751253e-07	3.383510e-10	2.145031e+00	2.325392e+01
1.410000e-06	2.863282e-07	3.561921e-10	2.232376e+00	2.444131e+01
1.420000e-06	2.975095e-07	3.753149e-10	2.319551e+00	2.564782e+01
1.430000e-06	3.086666e-07	3.948498e-10	2.406538e+00	2.685005e+01
1.440000e-06	3.197967e-07	4.123638e-10	2.493315e+00	2.802520e+01
1.450000e-06	3.309106e-07	4.286092e-10	2.579965e+00	2.915803e+01
1.460000e-06	3.420089e-07	4.451168e-10	2.666494e+00	3.024528e+01
1.470000e-06	3.530759e-07	4.619802e-10	2.752778e+00	3.129595e+01
1.480000e-06	3.640808e-07	4.783874e-10	2.838578e+00	3.232752e+01
1.490000e-06	3.750238e-07	4.945076e-10	2.923897e+00	3.335949e+01
1.500000e-06	3.858574e-07	5.116660e-10	3.008361e+00	3.440662e+01
1.510000e-06	3.965908e-07	5.290562e-10	3.092045e+00	3.547426e+01
1.520000e-06	4.072173e-07	5.459228e-10	3.174895e+00	3.655734e+01
1.530000e-06	4.176888e-07	5.614014e-10	3.256537e+00	3.764315e+01
1.540000e-06	4.280109e-07	5.766410e-10	3.337013e+00	3.871678e+01
1.550000e-06	4.381949e-07	5.926079e-10	3.416414e+00	3.976694e+01
1.560000e-06	4.482538e-07	6.085241e-10	3.494838e+00	4.079004e+01
1.570000e-06	4.581874e-07	6.245081e-10	3.572286e+00	4.179107e+01
1.580000e-06	4.680131e-07	6.396917e-10	3.648893e+00	4.278101e+01
1.590000e-06	4.777531e-07	6.537716e-10	3.724832e+00	4.377201e+01
1.600000e-06	4.874351e-07	6.671152e-10	3.800318e+00	4.477221e+01
1.610000e-06	4.970409e-07	6.801928e-10	3.875211e+00	4.578236e+01
1.620000e-06	5.065777e-07	6.945147e-10	3.949565e+00	4.679554e+01
1.630000e-06	5.160597e-07	7.100221e-10	4.023491e+00	4.779986e+01
1.640000e-06	5.254933e-07	7.245250e-10	4.097041e+00	4.878333e+01
1.650000e-06	5.348297e-07	7.379449e-10	4.169833e+00	4.973859e+01
1.660000e-06	5.440518e-07	7.521922e-10	4.241734e+00	5.066593e+01
1.670000e-06	5.531860e-07	7.671979e-10	4.312949e+00	5.157315e+01
1.680000e-06	5.622131e-07	7.805997e-10	4.383330e+00	5.247253e+01
1.690000e-06	5.711448e-07	7.927471e-10	4.452966e+00	5.337602e+01
1.700000e-06	5.799802e-07	8.047371e-10	4.521852e+00	5.429056e+01
1.710000e-06	5.887386e-07	8.175153e-10	4.590137e+00	5.521548e+01
1.720000e-06	5.974416e-07	8.304288e-10	4.657991e+00	5.614280e+01
1.730000e-06	6.060505e-07	8.420263e-10	4.725111e+00	5.706050e+01
1.740000e-06	6.145554e-07	8.545296e-10	4.791420e+00	5.795727e+01
1.750000e-06	6.229401e-07	8.682451e-10	4.856792e+00	5.882699e+01
1.760000e-06	6.311955e-07	8.816116e-10	4.921155e+00	5.967108e+01
1.770000e-06	6.393421e-07	8.935189e-10	4.984671e+00	6.049781e+01
1.780000e-06	6.473843e-07	9.042206e-10	5.047372e+00	6.131897e+01
1.790000e-06	6.553529e-07	9.158980e-10	5.109500e+00	6.214502e+01
1.800000e-06	6.632719e-07	9.289748e-10	5.171241e+00	6.298093e+01
1.810000e-06	6.711108e-07	9.408325e-10	5.232357e+00	6.382406e+01
1.820000e-06	6.788691e-07	9.521118e-10	5.292845e+00	6.466514e+01
1.830000e-06	6.865342e-07	9.646895e-10	5.352607e+00	6.549178e+01
1.840000e-06	6.940535e-07	9.787628e-10	5.411232e+00	6.629326e+01
1.850000e-06	7.014079e-07	9.910239e-10	5.468570e+00	6.706451e+01
1.860000e-06	7.086227e-07	1.000038e-09	5.524821e+00	6.780788e+01
1.870000e-06	7.156900e-07	1.009951e-09	5.579922e+00	6.853189e+01
1.880000e-06	7.226134e-07	1.022431e-09	5.633900e+00	6.924757e+01
1.890000e-06	7.294516e-07	1.034660e-09	5.687215e+00	6.996381e+01
1.900000e-06	7.362020e-07	1.045169e-09	5.739845e+00	7.068370e+01
1.910000e-06	7.428218e-07	1.055603e-09	5.791457e+00	7.140328e+01
1.920000e-06	7.492894e-07	1.066623e-09	5.841882e+00	7.211322e+01
1.930000e-06	7.556087e-07	1.077478e-09	5.891150e+00	7.280284e+01
1.940000e-06	7.617383e-07	1.086860e-09	5.938940e+00	7.346483e+01
1.950000e-06	7.676895e-07	1.095775e-09	5.985339e+00	7.409865e+01
1.960000e-06	7.734839e-07	1.106447e-09	6.030516e+00	7.471132e+01
1.970000e-06	7.791343e-07	1.118946e-09	6.074569e+00	7.531505e+01
1.980000e-06	7.846680e-07	1.130998e-09	6.117713e+00	7.592258e+01
1.990000e-06	7.900806e-07	1.142366e-09	6.159913e+00	7.654204e+01
2.000000e-06	7.953422e-07	1.154080e-09	6.200935e+00	7.717327e+01
2.010000e-06	8.004630e-07	1.166148e-09	6.240860e+00	7.780708e+01
2.020000e-06	8.054356e-07	1.176475e-09	6.279629e+00	7.842795e+01
2.030000e-06	8.102539e-07	1.184239e-09	6.317195e+00	7.901916e+01
2.040000e-06	8.149554e-07	1.192040e-09	6.353851e+00	7.956846e+01
2.050000e-06	8.195135e-07	1.200655e-09	6.389388e+00	8.007237e+01
2.060000e-06	8.238811e-07	1.208666e-09	6.423441e+00	8.053730e+01
2.070000e-06	8.280567e-07	1.215049e-09	6.455996e+00	8.097724e+01
2.080000e-06	8.320201e-07	1.221878e-09	6.486897e+00	8.140878e+01
2.090000e-06	8.357180e-07	1.231249e-09	6.515727e+00	8.184529e+01
2.100000e-06	8.392001e-07	1.242166e-09	6.542876e+00	8.229248e+01
2.110000e-06	8.425327e-07	1.250757e-09	6.568859e+00	8.274669e+01
2.120000e-06	8.457515e-07	1.256184e-09	6.593955e+00	8.319674e+01
2.130000e-06	8.488719e-07	1.262698e-09	6.618283e+00	8.362823e+01
2.140000e-06	8.518979e-07	1.270270e-09	6.641875e+00	8.402891e+01
2.150000e-06	8.548145e-07	1.277596e-09	6.664614e+00	8.439290e+01
2.160000e-06	8.575663e-07	1.284136e-09	6.686069e+00	8.472244e+01
2.170000e-06	8.601251e-07	1.291033e-09	6.706019e+00	8.502648e+01
2.180000e-06	8.625401e-07	1.299816e-09	6.724848e+00	8.531703e+01
2.190000e-06	8.648341e-07	1.306647e-09	6.742733e+00	8.560451e+01
2.200000e-06	8.669700e-07	1.310678e-09	6.759386e+00	8.589416e+01
2.210000e-06	8.689586e-07	1.314436e-09	6.774890e+00	8.618463e+01
2.220000e-06	8.708200e-07	1.318776e-09	6.789402e+00	8.646919e+01
2.230000e-06	8.725451e-07	1.322966e-09	6.802852e+00	8.673889e+01
2.240000e-06	8.741601e-07	1.325013e-09	6.815444e+00	8.698629e+01
2.250000e-06	8.756770e-07	1.327013e-09	6.827270e+00	8.720815e+01
2.260000e-06	8.770721e-07	1.331295e-09	6.838148e+00	8.740606e+01
2.270000e-06	8.783290e-07	1.336507e-09	6.847947e+00	8.758489e+01
2.280000e-06	8.793866e-07	1.337877e-09	6.856192e+00	8.774972e+01
2.290000e-06	8.802186e-07	1.342138e-09	6.862680e+00	8.790277e+01
2.300000e-06	8.808082e-07	1.348806e-09	6.867276e+00	8.804171e+01
2.310000e-06	8.811588e-07	1.353722e-09	6.870009e+00	8.815999e+01
2.320000e-06	8.813124e-07	1.361158e-09	6.871208e+00	8.824938e+01
2.330000e-06	8.813435e-07	1.360808e-09	6.871450e+00	8.830347e+01
2.340000e-06	8.813075e-07	1.340424e-09	6.871169e+00	8.832080e+01
2.350000e-06	8.811800e-07	1.328494e-09	6.870175e+00	8.830622e+01
2.360000e-06	8.809198e-07	1.351513e-09	6.868147e+00	8.826979e+01
2.370000e-06	8.805328e-07	1.355549e-09	6.865129e+00	8.822354e+01
2.380000e-06	8.800136e-07	1.356071e-09	6.861081e+00	8.817723e+01
2.390000e-06	8.793006e-07	1.358229e-09	6.855522e+00	8.813482e+01
2.400000e-06	8.783793e-07	1.348373e-09	6.848339e+00	8.809298e+01
2.410000e-06	8.773248e-07	1.347283e-09	6.840118e+00	8.804230e+01
2.420000e-06	8.761775e-07	1.345603e-09	6.831173e+00	8.797092e+01
2.430000e-06	8.748878e-07	1.346272e-09	6.821117e+00	8.786910e+01
2.440000e-06	8.734348e-07	1.338868e-09	6.809789e+00	8.773311e+01
2.450000e-06	8.718571e-07	1.334735e-09	6.797488e+00	8.756691e+01
2.460000e-06	8.701901e-07	1.336508e-09	6.784492e+00	8.738098e+01
2.470000e-06	8.684168e-07	1.333373e-09	6.770666e+00	8.718858e+01
2.480000e-06	8.665111e-07	1.323444e-09	6.755808e+00	8.700103e+01
2.490000e-06	8.644344e-07	1.321480e-09	6.739617e+00	8.682354e+01
2.500000e-06	8.621514e-07	1.327201e-09	6.721817e+00	8.665335e+01
2.510000e-06	8.596383e-07	1.326516e-09	6.702223e+00	8.648079e+01
2.520000e-06	8.568745e-07	1.321600e-09	6.680675e+00	8.629289e+01
2.530000e-06	8.538775e-07	1.320364e-09	6.657309e+00	8.607820e+01
2.540000e-06	8.507273e-07	1.315598e-09	6.632748e+00	8.583094e+01
2.550000e-06	8.474939e-07	1.308518e-09	6.607539e+00	8.555298e+01
2.560000e-06	8.441510e-07	1.303559e-09	6.581476e+00	8.525281e+01
2.570000e-06	8.406774e-07	1.301723e-09	6.554394e+00	8.494197e+01
2.580000e-06	8.370647e-07	1.301740e-09	6.526227e+00	8.463022e+01
2.590000e-06	8.332939e-07	1.298599e-09	6.496828e+00	8.432136e+01
2.600000e-06	8.293679e-07	1.295214e-09	6.466218e+00	8.401124e+01
2.610000e-06	8.252968e-07	1.287436e-09	6.434478e+00	8.368887e+01
2.620000e-06	8.210944e-07	1.281899e-09	6.401714e+00	8.334014e+01
2.630000e-06	8.167695e-07	1.277821e-09	6.367994e+00	8.295298e+01
2.640000e-06	8.122833e-07	1.274637e-09	6.333018e+00	8.252192e+01
2.650000e-06	8.076217e-07	1.270717e-09	6.296673e+00	8.205050e+01
2.660000e-06	8.028376e-07	1.264513e-09	6.259373e+00	8.155055e+01
2.670000e-06	7.979142e-07	1.257789e-09	6.220988e+00	8.103851e+01
2.680000e-06	7.928114e-07	1.248729e-09	6.181203e+00	8.053018e+01
2.690000e-06	7.874973e-07	1.241078e-09	6.139772e+00	8.003566e+01
2.700000e-06	7.819700e-07	1.235294e-09	6.096678e+00	7.955618e+01
2.710000e-06	7.761992e-07	1.228682e-09	6.051685e+00	7.908401e+01
2.720000e-06	7.702184e-07	1.223116e-09	6.005056e+00	7.860526e+01
2.730000e-06	7.640783e-07	1.217007e-09	5.957184e+00	7.810464e+01
2.740000e-06	7.577805e-07	1.209173e-09	5.908083e+00	7.757037e+01
2.750000e-06	7.513811e-07	1.201354e-09	5.858190e+00	7.699761e+01
2.760000e-06	7.449137e-07	1.192603e-09	5.807766e+00	7.638927e+01
2.770000e-06	7.383785e-07	1.185612e-09	5.756814e+00	7.575413e+01
2.780000e-06	7.317473e-07	1.177835e-09	5.705114e+00	7.510307e+01
2.790000e-06	7.249697e-07	1.167838e-09	5.652272e+00	7.444492e+01
2.800000e-06	7.180235e-07	1.155890e-09	5.598115e+00	7.378348e+01
2.810000e-06	7.109358e-07	1.145680e-09	5.542856e+00	7.311681e+01
2.820000e-06	7.037446e-07	1.136710e-09	5.486789e+00	7.243878e+01
2.830000e-06	6.964733e-07	1.125503e-09	5.430098e+00	7.174239e+01
2.840000e-06	6.890865e-07	1.115433e-09	5.372506e+00	7.102325e+01
2.850000e-06	6.815857e-07	1.105356e-09	5.314026e+00	7.028196e+01
2.860000e-06	6.739996e-07	1.093804e-09	5.254880e+00	6.952450e+01
2.870000e-06	6.662817e-07	1.081656e-09	5.194707e+00	6.876027e+01
2.880000e-06	6.584392e-07	1.070170e-09	5.133563e+00	6.799871e+01
2.890000e-06	6.505230e-07	1.060498e-09	5.071843e+00	6.724578e+01
2.900000e-06	6.425301e-07	1.049675e-09	5.009526e+00	6.650144e+01
2.910000e-06	6.344798e-07	1.037585e-09	4.946761e+00	6.575943e+01
2.920000e-06	6.263794e-07	1.024657e-09	4.883606e+00	6.500914e+01
2.930000e-06	6.181806e-07	1.010914e-09	4.819684e+00	6.423901e+01
2.940000e-06	6.098397e-07	9.971184e-10	4.754653e+00	6.344032e+01
2.950000e-06	6.013597e-07	9.833136e-10	4.688538e+00	6.260976e+01
