# Temperatura_=_20.0
# Concentracion g/m^3_=_10000.0
# C_Vs_to_Am_M_A/Vsm_=_65563218390.804596
# pendiente_HvsI_1/m_=_3716.3
# ordenada_HvsI_A/m_=_1297.0
# frecuencia_Hz_=_212980.10002752906

Tiempo_(s)	Campo_(V.s)	Magnetizacion_(V.s)	Campo_(kA/m)	Magnetizacion_(A/m)
0.000000e+00	-8.804709e-07	-1.304398e-09	-6.862173e+00	-8.645026e+01
1.000000e-08	-8.805278e-07	-1.288821e-09	-6.862616e+00	-8.642194e+01
2.000000e-08	-8.804786e-07	-1.285771e-09	-6.862233e+00	-8.636687e+01
3.000000e-08	-8.802539e-07	-1.288583e-09	-6.860482e+00	-8.630547e+01
4.000000e-08	-8.797933e-07	-1.292657e-09	-6.856892e+00	-8.625299e+01
5.000000e-08	-8.790774e-07	-1.296960e-09	-6.851312e+00	-8.621372e+01
6.000000e-08	-8.781293e-07	-1.294975e-09	-6.843923e+00	-8.617973e+01
7.000000e-08	-8.769995e-07	-1.296304e-09	-6.835118e+00	-8.613470e+01
8.000000e-08	-8.757050e-07	-1.299426e-09	-6.825029e+00	-8.606123e+01
9.000000e-08	-8.742602e-07	-1.296310e-09	-6.813769e+00	-8.594849e+01
1.000000e-07	-8.727084e-07	-1.286568e-09	-6.801674e+00	-8.579728e+01
1.100000e-07	-8.710626e-07	-1.282847e-09	-6.788847e+00	-8.562029e+01
1.200000e-07	-8.693136e-07	-1.282825e-09	-6.775216e+00	-8.543737e+01
1.300000e-07	-8.674191e-07	-1.274465e-09	-6.760451e+00	-8.526772e+01
1.400000e-07	-8.653680e-07	-1.262599e-09	-6.744465e+00	-8.512199e+01
1.500000e-07	-8.631676e-07	-1.261951e-09	-6.727315e+00	-8.499742e+01
1.600000e-07	-8.608112e-07	-1.266570e-09	-6.708950e+00	-8.487808e+01
1.700000e-07	-8.582892e-07	-1.263370e-09	-6.689294e+00	-8.474003e+01
1.800000e-07	-8.555900e-07	-1.260834e-09	-6.668258e+00	-8.455965e+01
1.900000e-07	-8.527317e-07	-1.266161e-09	-6.645980e+00	-8.432193e+01
2.000000e-07	-8.497367e-07	-1.265266e-09	-6.622638e+00	-8.402563e+01
2.100000e-07	-8.466076e-07	-1.250543e-09	-6.598251e+00	-8.368341e+01
2.200000e-07	-8.433850e-07	-1.231146e-09	-6.573135e+00	-8.331694e+01
2.300000e-07	-8.400932e-07	-1.219163e-09	-6.547479e+00	-8.294896e+01
2.400000e-07	-8.366633e-07	-1.222312e-09	-6.520747e+00	-8.259526e+01
2.500000e-07	-8.330312e-07	-1.228920e-09	-6.492440e+00	-8.225960e+01
2.600000e-07	-8.291599e-07	-1.230833e-09	-6.462267e+00	-8.193338e+01
2.700000e-07	-8.250617e-07	-1.220299e-09	-6.430328e+00	-8.160002e+01
2.800000e-07	-8.207254e-07	-1.207571e-09	-6.396532e+00	-8.124213e+01
2.900000e-07	-8.161816e-07	-1.201697e-09	-6.361118e+00	-8.084870e+01
3.000000e-07	-8.115048e-07	-1.195269e-09	-6.324669e+00	-8.041942e+01
3.100000e-07	-8.066924e-07	-1.186836e-09	-6.287161e+00	-7.996467e+01
3.200000e-07	-8.017536e-07	-1.177594e-09	-6.248670e+00	-7.950114e+01
3.300000e-07	-7.966787e-07	-1.175423e-09	-6.209117e+00	-7.904504e+01
3.400000e-07	-7.914331e-07	-1.174289e-09	-6.168235e+00	-7.860550e+01
3.500000e-07	-7.860345e-07	-1.165618e-09	-6.126159e+00	-7.818079e+01
3.600000e-07	-7.804922e-07	-1.152850e-09	-6.082964e+00	-7.775878e+01
3.700000e-07	-7.747936e-07	-1.143320e-09	-6.038550e+00	-7.732128e+01
3.800000e-07	-7.689262e-07	-1.143097e-09	-5.992821e+00	-7.685060e+01
3.900000e-07	-7.628914e-07	-1.140425e-09	-5.945788e+00	-7.633571e+01
4.000000e-07	-7.566629e-07	-1.128015e-09	-5.897244e+00	-7.577568e+01
4.100000e-07	-7.502084e-07	-1.114683e-09	-5.846939e+00	-7.517908e+01
4.200000e-07	-7.435748e-07	-1.106802e-09	-5.795238e+00	-7.455990e+01
4.300000e-07	-7.367969e-07	-1.103343e-09	-5.742413e+00	-7.393155e+01
4.400000e-07	-7.299255e-07	-1.094566e-09	-5.688860e+00	-7.330151e+01
4.500000e-07	-7.229844e-07	-1.082796e-09	-5.634762e+00	-7.266874e+01
4.600000e-07	-7.159424e-07	-1.074723e-09	-5.579878e+00	-7.202480e+01
4.700000e-07	-7.088110e-07	-1.067305e-09	-5.524298e+00	-7.135819e+01
4.800000e-07	-7.015919e-07	-1.055814e-09	-5.468034e+00	-7.066011e+01
4.900000e-07	-6.942232e-07	-1.037997e-09	-5.410604e+00	-6.992924e+01
5.000000e-07	-6.866647e-07	-1.024056e-09	-5.351695e+00	-6.917355e+01
5.100000e-07	-6.789364e-07	-1.016928e-09	-5.291463e+00	-6.840832e+01
5.200000e-07	-6.710866e-07	-1.008528e-09	-5.230283e+00	-6.765099e+01
5.300000e-07	-6.631698e-07	-9.953999e-10	-5.168582e+00	-6.691477e+01
5.400000e-07	-6.551948e-07	-9.803210e-10	-5.106426e+00	-6.620350e+01
5.500000e-07	-6.471562e-07	-9.702560e-10	-5.043775e+00	-6.550961e+01
5.600000e-07	-6.390678e-07	-9.632424e-10	-4.980737e+00	-6.481625e+01
5.700000e-07	-6.309017e-07	-9.527236e-10	-4.917093e+00	-6.410266e+01
5.800000e-07	-6.226288e-07	-9.385876e-10	-4.852615e+00	-6.335112e+01
5.900000e-07	-6.142448e-07	-9.258344e-10	-4.787272e+00	-6.255273e+01
6.000000e-07	-6.057375e-07	-9.162921e-10	-4.720969e+00	-6.171020e+01
6.100000e-07	-5.971125e-07	-9.028357e-10	-4.653748e+00	-6.083649e+01
6.200000e-07	-5.883748e-07	-8.843150e-10	-4.585648e+00	-5.994992e+01
6.300000e-07	-5.795429e-07	-8.671250e-10	-4.516814e+00	-5.906751e+01
6.400000e-07	-5.706226e-07	-8.551803e-10	-4.447292e+00	-5.819895e+01
6.500000e-07	-5.616052e-07	-8.455381e-10	-4.377012e+00	-5.734341e+01
6.600000e-07	-5.524953e-07	-8.307023e-10	-4.306012e+00	-5.649024e+01
6.700000e-07	-5.432524e-07	-8.136762e-10	-4.233975e+00	-5.562321e+01
6.800000e-07	-5.338784e-07	-8.001077e-10	-4.160917e+00	-5.472689e+01
6.900000e-07	-5.244352e-07	-7.893373e-10	-4.087318e+00	-5.379259e+01
7.000000e-07	-5.149484e-07	-7.762512e-10	-4.013381e+00	-5.282198e+01
7.100000e-07	-5.053993e-07	-7.584174e-10	-3.938958e+00	-5.182694e+01
7.200000e-07	-4.957845e-07	-7.424076e-10	-3.864022e+00	-5.082574e+01
7.300000e-07	-4.861177e-07	-7.291713e-10	-3.788681e+00	-4.983705e+01
7.400000e-07	-4.763962e-07	-7.149380e-10	-3.712915e+00	-4.887354e+01
7.500000e-07	-4.666115e-07	-6.970894e-10	-3.636655e+00	-4.793775e+01
7.600000e-07	-4.567487e-07	-6.796208e-10	-3.559787e+00	-4.702117e+01
7.700000e-07	-4.467687e-07	-6.665085e-10	-3.482005e+00	-4.610716e+01
7.800000e-07	-4.366732e-07	-6.528993e-10	-3.403324e+00	-4.517649e+01
7.900000e-07	-4.264629e-07	-6.374949e-10	-3.323746e+00	-4.421372e+01
8.000000e-07	-4.160891e-07	-6.218441e-10	-3.242896e+00	-4.321219e+01
8.100000e-07	-4.056092e-07	-6.071459e-10	-3.161218e+00	-4.217609e+01
8.200000e-07	-3.950309e-07	-5.926388e-10	-3.078773e+00	-4.111884e+01
8.300000e-07	-3.842922e-07	-5.753991e-10	-2.995079e+00	-4.005868e+01
8.400000e-07	-3.734323e-07	-5.568863e-10	-2.910439e+00	-3.901258e+01
8.500000e-07	-3.624987e-07	-5.400358e-10	-2.825226e+00	-3.799096e+01
8.600000e-07	-3.514727e-07	-5.255502e-10	-2.739292e+00	-3.699448e+01
8.700000e-07	-3.403600e-07	-5.122563e-10	-2.652682e+00	-3.601417e+01
8.800000e-07	-3.292123e-07	-4.985332e-10	-2.565799e+00	-3.503459e+01
8.900000e-07	-3.180474e-07	-4.851331e-10	-2.478783e+00	-3.403883e+01
9.000000e-07	-3.068560e-07	-4.716612e-10	-2.391560e+00	-3.301378e+01
9.100000e-07	-2.956454e-07	-4.568094e-10	-2.304187e+00	-3.195389e+01
9.200000e-07	-2.844293e-07	-4.399260e-10	-2.216772e+00	-3.086230e+01
9.300000e-07	-2.732021e-07	-4.222676e-10	-2.129270e+00	-2.974919e+01
9.400000e-07	-2.619524e-07	-4.060932e-10	-2.041592e+00	-2.862806e+01
9.500000e-07	-2.506661e-07	-3.896147e-10	-1.953630e+00	-2.751126e+01
9.600000e-07	-2.393333e-07	-3.730200e-10	-1.865305e+00	-2.640641e+01
9.700000e-07	-2.279663e-07	-3.579585e-10	-1.776713e+00	-2.531472e+01
9.800000e-07	-2.165661e-07	-3.436338e-10	-1.687863e+00	-2.423167e+01
9.900000e-07	-2.051518e-07	-3.294477e-10	-1.598902e+00	-2.314953e+01
1.000000e-06	-1.937212e-07	-3.137281e-10	-1.509816e+00	-2.206071e+01
1.010000e-06	-1.822533e-07	-2.962372e-10	-1.420437e+00	-2.096064e+01
1.020000e-06	-1.707410e-07	-2.778251e-10	-1.330713e+00	-1.984910e+01
1.030000e-06	-1.591698e-07	-2.616597e-10	-1.240530e+00	-1.872967e+01
1.040000e-06	-1.475521e-07	-2.485819e-10	-1.149985e+00	-1.760772e+01
1.050000e-06	-1.359080e-07	-2.343590e-10	-1.059234e+00	-1.648773e+01
1.060000e-06	-1.242507e-07	-2.180470e-10	-9.683791e-01	-1.537120e+01
1.070000e-06	-1.125582e-07	-2.007415e-10	-8.772506e-01	-1.425600e+01
1.080000e-06	-1.008259e-07	-1.849278e-10	-7.858123e-01	-1.313735e+01
1.090000e-06	-8.906747e-08	-1.702572e-10	-6.941699e-01	-1.201006e+01
1.100000e-06	-7.729093e-08	-1.548217e-10	-6.023865e-01	-1.087110e+01
1.110000e-06	-6.553024e-08	-1.392027e-10	-5.107265e-01	-9.721214e+00
1.120000e-06	-5.377618e-08	-1.230485e-10	-4.191183e-01	-8.565029e+00
1.130000e-06	-4.199172e-08	-1.067786e-10	-3.272731e-01	-7.409367e+00
1.140000e-06	-3.019907e-08	-8.940007e-11	-2.353641e-01	-6.260444e+00
1.150000e-06	-1.839744e-08	-7.275087e-11	-1.433851e-01	-5.121060e+00
1.160000e-06	-6.577130e-09	-5.845665e-11	-5.126053e-02	-3.989010e+00
1.170000e-06	5.241896e-09	-4.382886e-11	4.085405e-02	-2.857478e+00
1.180000e-06	1.704861e-08	-2.817860e-11	1.328727e-01	-1.717435e+00
1.190000e-06	2.884087e-08	-1.223783e-11	2.247787e-01	-5.612379e-01
1.200000e-06	4.062612e-08	4.097205e-12	3.166300e-01	6.139504e-01
1.210000e-06	5.240914e-08	2.265540e-11	4.084639e-01	1.804295e+00
1.220000e-06	6.417565e-08	4.222177e-11	5.001692e-01	2.999858e+00
1.230000e-06	7.593567e-08	6.103595e-11	5.918239e-01	4.187557e+00
1.240000e-06	8.768218e-08	7.806257e-11	6.833733e-01	5.355508e+00
1.250000e-06	9.940291e-08	9.453731e-11	7.747218e-01	6.497155e+00
1.260000e-06	1.110991e-07	1.109828e-10	8.658789e-01	7.613565e+00
1.270000e-06	1.227666e-07	1.251910e-10	9.568126e-01	8.712900e+00
1.280000e-06	1.344121e-07	1.397971e-10	1.047575e+00	9.807158e+00
1.290000e-06	1.460151e-07	1.574310e-10	1.138006e+00	1.090733e+01
1.300000e-06	1.575884e-07	1.759998e-10	1.228205e+00	1.201885e+01
1.310000e-06	1.691289e-07	1.927354e-10	1.318149e+00	1.313917e+01
1.320000e-06	1.806368e-07	2.085512e-10	1.407839e+00	1.425854e+01
1.330000e-06	1.921250e-07	2.247088e-10	1.497375e+00	1.536388e+01
1.340000e-06	2.035672e-07	2.409901e-10	1.586553e+00	1.644438e+01
1.350000e-06	2.149762e-07	2.567878e-10	1.675471e+00	1.749666e+01
1.360000e-06	2.263504e-07	2.722108e-10	1.764119e+00	1.852731e+01
1.370000e-06	2.376754e-07	2.883663e-10	1.852383e+00	1.955178e+01
1.380000e-06	2.489742e-07	3.047092e-10	1.940443e+00	2.058951e+01
1.390000e-06	2.602509e-07	3.205818e-10	2.028332e+00	2.165718e+01
1.400000e-06	2.715094e-07	3.357564e-10	2.116077e+00	2.276232e+01
1.410000e-06	2.827576e-07	3.505635e-10	2.203743e+00	2.389997e+01
1.420000e-06	2.939820e-07	3.671343e-10	2.291223e+00	2.505363e+01
1.430000e-06	3.051893e-07	3.855281e-10	2.378570e+00	2.620060e+01
1.440000e-06	3.163822e-07	4.031597e-10	2.465805e+00	2.731969e+01
1.450000e-06	3.275570e-07	4.181394e-10	2.552899e+00	2.839875e+01
1.460000e-06	3.387154e-07	4.312697e-10	2.639865e+00	2.943904e+01
1.470000e-06	3.498254e-07	4.460946e-10	2.726453e+00	3.045486e+01
1.480000e-06	3.608546e-07	4.640542e-10	2.812412e+00	3.146827e+01
1.490000e-06	3.717972e-07	4.824122e-10	2.897696e+00	3.250094e+01
1.500000e-06	3.826628e-07	4.986174e-10	2.982380e+00	3.356588e+01
1.510000e-06	3.933951e-07	5.137414e-10	3.066024e+00	3.466233e+01
1.520000e-06	4.039687e-07	5.295335e-10	3.148432e+00	3.577564e+01
1.530000e-06	4.143979e-07	5.443516e-10	3.229715e+00	3.688230e+01
1.540000e-06	4.246609e-07	5.580740e-10	3.309702e+00	3.795831e+01
1.550000e-06	4.348076e-07	5.729285e-10	3.388783e+00	3.898776e+01
1.560000e-06	4.448711e-07	5.887943e-10	3.467215e+00	3.996853e+01
1.570000e-06	4.548341e-07	6.045961e-10	3.544865e+00	4.091281e+01
1.580000e-06	4.646895e-07	6.187592e-10	3.621675e+00	4.184238e+01
1.590000e-06	4.744595e-07	6.318189e-10	3.697820e+00	4.278035e+01
1.600000e-06	4.841590e-07	6.451827e-10	3.773416e+00	4.374253e+01
1.610000e-06	4.938059e-07	6.590560e-10	3.848601e+00	4.473174e+01
1.620000e-06	5.034090e-07	6.731620e-10	3.923446e+00	4.573706e+01
1.630000e-06	5.129452e-07	6.871955e-10	3.997768e+00	4.673843e+01
1.640000e-06	5.224099e-07	7.020635e-10	4.071534e+00	4.771464e+01
1.650000e-06	5.317887e-07	7.168350e-10	4.144630e+00	4.865169e+01
1.660000e-06	5.410831e-07	7.306117e-10	4.217068e+00	4.954823e+01
1.670000e-06	5.502691e-07	7.429196e-10	4.288662e+00	5.041596e+01
1.680000e-06	5.593363e-07	7.551036e-10	4.359329e+00	5.127491e+01
1.690000e-06	5.683094e-07	7.681271e-10	4.429263e+00	5.214544e+01
1.700000e-06	5.771775e-07	7.819851e-10	4.498379e+00	5.304013e+01
1.710000e-06	5.859546e-07	7.949077e-10	4.566785e+00	5.395874e+01
1.720000e-06	5.946684e-07	8.056796e-10	4.634699e+00	5.488831e+01
1.730000e-06	6.032988e-07	8.165801e-10	4.701962e+00	5.580823e+01
1.740000e-06	6.118259e-07	8.291390e-10	4.768420e+00	5.669845e+01
1.750000e-06	6.202286e-07	8.425966e-10	4.833909e+00	5.754742e+01
1.760000e-06	6.285066e-07	8.555725e-10	4.898425e+00	5.835678e+01
1.770000e-06	6.366858e-07	8.693318e-10	4.962172e+00	5.914083e+01
1.780000e-06	6.447842e-07	8.837908e-10	5.025289e+00	5.992096e+01
1.790000e-06	6.528305e-07	8.956443e-10	5.088000e+00	6.071731e+01
1.800000e-06	6.608273e-07	9.047671e-10	5.150325e+00	6.154082e+01
1.810000e-06	6.687357e-07	9.137091e-10	5.211961e+00	6.238887e+01
1.820000e-06	6.765344e-07	9.249738e-10	5.272742e+00	6.324624e+01
1.830000e-06	6.841957e-07	9.393838e-10	5.332452e+00	6.409094e+01
1.840000e-06	6.917246e-07	9.546301e-10	5.391131e+00	6.490264e+01
1.850000e-06	6.991341e-07	9.689666e-10	5.448879e+00	6.567041e+01
1.860000e-06	7.063854e-07	9.819322e-10	5.505394e+00	6.639661e+01
1.870000e-06	7.135017e-07	9.936138e-10	5.560856e+00	6.709555e+01
1.880000e-06	7.204945e-07	1.003255e-09	5.615356e+00	6.778737e+01
1.890000e-06	7.274150e-07	1.011461e-09	5.669293e+00	6.848971e+01
1.900000e-06	7.342414e-07	1.020430e-09	5.722496e+00	6.921049e+01
1.910000e-06	7.409130e-07	1.031549e-09	5.774493e+00	6.994476e+01
1.920000e-06	7.474497e-07	1.044609e-09	5.825439e+00	7.067687e+01
1.930000e-06	7.538225e-07	1.056707e-09	5.875107e+00	7.138713e+01
1.940000e-06	7.600041e-07	1.067636e-09	5.923284e+00	7.206019e+01
1.950000e-06	7.659769e-07	1.080470e-09	5.969835e+00	7.269172e+01
1.960000e-06	7.717828e-07	1.093631e-09	6.015085e+00	7.329071e+01
1.970000e-06	7.774809e-07	1.103003e-09	6.059494e+00	7.387607e+01
1.980000e-06	7.830743e-07	1.110679e-09	6.103088e+00	7.446905e+01
1.990000e-06	7.885449e-07	1.120880e-09	6.145725e+00	7.508430e+01
2.000000e-06	7.938468e-07	1.132999e-09	6.187046e+00	7.572323e+01
2.010000e-06	7.989787e-07	1.144611e-09	6.227043e+00	7.637241e+01
2.020000e-06	8.039640e-07	1.155213e-09	6.265898e+00	7.700795e+01
2.030000e-06	8.088348e-07	1.166509e-09	6.303859e+00	7.760416e+01
2.040000e-06	8.136011e-07	1.178116e-09	6.341006e+00	7.814337e+01
2.050000e-06	8.182162e-07	1.186208e-09	6.376975e+00	7.862295e+01
2.060000e-06	8.226747e-07	1.190480e-09	6.411724e+00	7.905675e+01
2.070000e-06	8.269590e-07	1.194938e-09	6.445115e+00	7.947026e+01
2.080000e-06	8.309781e-07	1.202023e-09	6.476438e+00	7.989111e+01
2.090000e-06	8.347244e-07	1.211273e-09	6.505636e+00	8.033858e+01
2.100000e-06	8.382715e-07	1.220343e-09	6.533281e+00	8.081598e+01
2.110000e-06	8.416612e-07	1.228907e-09	6.559700e+00	8.130905e+01
2.120000e-06	8.449450e-07	1.238237e-09	6.585293e+00	8.179083e+01
2.130000e-06	8.481423e-07	1.246594e-09	6.610212e+00	8.223154e+01
2.140000e-06	8.512500e-07	1.251520e-09	6.634433e+00	8.260952e+01
2.150000e-06	8.542187e-07	1.254281e-09	6.657570e+00	8.291926e+01
2.160000e-06	8.569997e-07	1.258900e-09	6.679245e+00	8.317358e+01
2.170000e-06	8.596251e-07	1.265798e-09	6.699706e+00	8.339895e+01
2.180000e-06	8.621068e-07	1.272455e-09	6.719048e+00	8.362599e+01
2.190000e-06	8.644441e-07	1.277535e-09	6.737264e+00	8.387847e+01
2.200000e-06	8.666468e-07	1.281898e-09	6.754431e+00	8.416522e+01
2.210000e-06	8.686863e-07	1.286962e-09	6.770327e+00	8.447752e+01
2.220000e-06	8.705609e-07	1.290545e-09	6.784937e+00	8.479321e+01
2.230000e-06	8.723200e-07	1.292430e-09	6.798647e+00	8.508543e+01
2.240000e-06	8.739856e-07	1.294519e-09	6.811629e+00	8.533279e+01
2.250000e-06	8.755631e-07	1.298416e-09	6.823923e+00	8.552701e+01
2.260000e-06	8.770281e-07	1.305798e-09	6.835341e+00	8.567517e+01
2.270000e-06	8.783307e-07	1.313525e-09	6.845493e+00	8.579599e+01
2.280000e-06	8.794398e-07	1.318153e-09	6.854137e+00	8.591173e+01
2.290000e-06	8.803244e-07	1.319331e-09	6.861031e+00	8.603900e+01
2.300000e-06	8.809538e-07	1.318478e-09	6.865936e+00	8.618219e+01
2.310000e-06	8.813456e-07	1.312701e-09	6.868990e+00	8.633188e+01
2.320000e-06	8.815691e-07	1.302043e-09	6.870732e+00	8.646890e+01
2.330000e-06	8.816612e-07	1.298892e-09	6.871450e+00	8.657209e+01
2.340000e-06	8.816544e-07	1.316523e-09	6.871397e+00	8.662676e+01
2.350000e-06	8.815518e-07	1.340943e-09	6.870597e+00	8.663044e+01
2.360000e-06	8.813054e-07	1.348193e-09	6.868677e+00	8.659354e+01
2.370000e-06	8.809179e-07	1.342009e-09	6.865657e+00	8.653504e+01
2.380000e-06	8.803999e-07	1.333007e-09	6.861620e+00	8.647481e+01
2.390000e-06	8.797153e-07	1.325104e-09	6.856284e+00	8.642573e+01
2.400000e-06	8.788409e-07	1.320200e-09	6.849469e+00	8.638896e+01
2.410000e-06	8.778160e-07	1.314692e-09	6.841482e+00	8.635392e+01
2.420000e-06	8.766831e-07	1.308020e-09	6.832652e+00	8.630329e+01
2.430000e-06	8.754307e-07	1.306510e-09	6.822891e+00	8.622061e+01
2.440000e-06	8.740608e-07	1.312669e-09	6.812214e+00	8.609768e+01
2.450000e-06	8.725878e-07	1.319534e-09	6.800734e+00	8.593845e+01
2.460000e-06	8.710073e-07	1.315165e-09	6.788416e+00	8.575800e+01
2.470000e-06	8.693116e-07	1.304961e-09	6.775200e+00	8.557681e+01
2.480000e-06	8.674513e-07	1.300919e-09	6.760701e+00	8.541262e+01
2.490000e-06	8.653804e-07	1.307091e-09	6.744562e+00	8.527300e+01
2.500000e-06	8.630870e-07	1.310750e-09	6.726687e+00	8.515168e+01
2.510000e-06	8.605730e-07	1.307329e-09	6.707094e+00	8.503005e+01
2.520000e-06	8.578134e-07	1.300279e-09	6.685586e+00	8.488343e+01
2.530000e-06	8.548379e-07	1.291281e-09	6.662396e+00	8.468964e+01
2.540000e-06	8.517274e-07	1.286106e-09	6.638154e+00	8.443681e+01
2.550000e-06	8.485129e-07	1.282424e-09	6.613101e+00	8.412738e+01
2.560000e-06	8.452032e-07	1.282424e-09	6.587306e+00	8.377688e+01
2.570000e-06	8.417937e-07	1.282746e-09	6.560733e+00	8.340805e+01
2.580000e-06	8.382526e-07	1.279390e-09	6.533134e+00	8.304259e+01
2.590000e-06	8.345426e-07	1.268775e-09	6.504219e+00	8.269356e+01
2.600000e-06	8.306689e-07	1.256280e-09	6.474029e+00	8.236148e+01
2.610000e-06	8.266621e-07	1.251451e-09	6.442801e+00	8.203520e+01
2.620000e-06	8.225236e-07	1.251432e-09	6.410546e+00	8.169721e+01
2.630000e-06	8.182347e-07	1.249411e-09	6.377120e+00	8.133110e+01
2.640000e-06	8.138100e-07	1.243108e-09	6.342634e+00	8.092828e+01
2.650000e-06	8.092427e-07	1.237594e-09	6.307038e+00	8.049131e+01
2.660000e-06	8.045175e-07	1.232904e-09	6.270211e+00	8.003270e+01
2.670000e-06	7.996608e-07	1.224359e-09	6.232359e+00	7.956969e+01
2.680000e-06	7.946297e-07	1.213867e-09	6.193148e+00	7.911727e+01
2.690000e-06	7.893690e-07	1.207368e-09	6.152147e+00	7.868205e+01
2.700000e-06	7.838848e-07	1.207074e-09	6.109405e+00	7.825950e+01
2.710000e-06	7.781808e-07	1.205409e-09	6.064949e+00	7.783542e+01
2.720000e-06	7.722679e-07	1.195082e-09	6.018866e+00	7.739112e+01
2.730000e-06	7.661623e-07	1.182773e-09	5.971280e+00	7.691006e+01
2.740000e-06	7.599101e-07	1.175342e-09	5.922552e+00	7.638357e+01
2.750000e-06	7.535662e-07	1.172743e-09	5.873109e+00	7.581329e+01
2.760000e-06	7.471514e-07	1.167502e-09	5.823113e+00	7.520965e+01
2.770000e-06	7.406647e-07	1.155090e-09	5.772558e+00	7.458708e+01
2.780000e-06	7.340809e-07	1.143757e-09	5.721245e+00	7.395792e+01
2.790000e-06	7.273459e-07	1.135818e-09	5.668755e+00	7.332764e+01
2.800000e-06	7.204721e-07	1.126482e-09	5.615182e+00	7.269309e+01
2.810000e-06	7.134719e-07	1.114220e-09	5.560624e+00	7.204456e+01
2.820000e-06	7.063285e-07	1.103824e-09	5.504950e+00	7.137069e+01
2.830000e-06	6.990800e-07	1.097779e-09	5.448457e+00	7.066417e+01
2.840000e-06	6.917458e-07	1.091029e-09	5.391297e+00	6.992601e+01
2.850000e-06	6.843059e-07	1.079265e-09	5.333311e+00	6.916631e+01
2.860000e-06	6.767289e-07	1.062969e-09	5.274258e+00	6.840149e+01
2.870000e-06	6.690124e-07	1.050330e-09	5.214117e+00	6.764849e+01
2.880000e-06	6.611901e-07	1.042610e-09	5.153152e+00	6.691860e+01
2.890000e-06	6.533015e-07	1.032492e-09	5.091671e+00	6.621281e+01
2.900000e-06	6.453712e-07	1.019916e-09	5.029864e+00	6.552090e+01
2.910000e-06	6.373901e-07	1.007073e-09	4.967661e+00	6.482443e+01
2.920000e-06	6.293178e-07	9.959547e-10	4.904748e+00	6.410277e+01
2.930000e-06	6.211347e-07	9.835883e-10	4.840971e+00	6.333991e+01
2.940000e-06	6.128387e-07	9.692937e-10	4.776313e+00	6.252978e+01
2.950000e-06	6.043528e-07	9.572954e-10	4.710177e+00	6.167793e+01
