# Temperatura_=_20.0
# Concentracion g/m^3_=_10000.0
# C_Vs_to_Am_M_A/Vsm_=_65563218390.804596
# pendiente_HvsI_1/m_=_3716.3
# ordenada_HvsI_A/m_=_1297.0
# frecuencia_Hz_=_212983.8939271255

Tiempo_(s)	Campo_(V.s)	Magnetizacion_(V.s)	Campo_(kA/m)	Magnetizacion_(A/m)
0.000000e+00	-8.803992e-07	-1.363664e-09	-6.860765e+00	-8.747469e+01
1.000000e-08	-8.805357e-07	-1.314526e-09	-6.861829e+00	-8.747653e+01
2.000000e-08	-8.805919e-07	-1.289100e-09	-6.862266e+00	-8.745177e+01
3.000000e-08	-8.804760e-07	-1.342588e-09	-6.861363e+00	-8.742392e+01
4.000000e-08	-8.801488e-07	-1.329616e-09	-6.858813e+00	-8.741165e+01
5.000000e-08	-8.795589e-07	-1.328582e-09	-6.854217e+00	-8.742150e+01
6.000000e-08	-8.786647e-07	-1.342813e-09	-6.847248e+00	-8.744518e+01
7.000000e-08	-8.775439e-07	-1.331540e-09	-6.838514e+00	-8.746264e+01
8.000000e-08	-8.762734e-07	-1.333106e-09	-6.828613e+00	-8.744972e+01
9.000000e-08	-8.748922e-07	-1.340867e-09	-6.817850e+00	-8.738751e+01
1.000000e-07	-8.734174e-07	-1.335158e-09	-6.806357e+00	-8.726982e+01
1.100000e-07	-8.718491e-07	-1.324136e-09	-6.794136e+00	-8.710599e+01
1.200000e-07	-8.702049e-07	-1.320034e-09	-6.781323e+00	-8.691779e+01
1.300000e-07	-8.684325e-07	-1.327746e-09	-6.767511e+00	-8.673167e+01
1.400000e-07	-8.664711e-07	-1.322492e-09	-6.752226e+00	-8.656898e+01
1.500000e-07	-8.643616e-07	-1.298087e-09	-6.735787e+00	-8.643797e+01
1.600000e-07	-8.621178e-07	-1.302830e-09	-6.718302e+00	-8.633043e+01
1.700000e-07	-8.597147e-07	-1.317297e-09	-6.699575e+00	-8.622414e+01
1.800000e-07	-8.571451e-07	-1.313005e-09	-6.679551e+00	-8.609043e+01
1.900000e-07	-8.543912e-07	-1.302098e-09	-6.658090e+00	-8.590401e+01
2.000000e-07	-8.514857e-07	-1.306330e-09	-6.635448e+00	-8.565159e+01
2.100000e-07	-8.484622e-07	-1.311350e-09	-6.611886e+00	-8.533625e+01
2.200000e-07	-8.453394e-07	-1.294287e-09	-6.587551e+00	-8.497614e+01
2.300000e-07	-8.421249e-07	-1.264472e-09	-6.562502e+00	-8.459805e+01
2.400000e-07	-8.387653e-07	-1.256519e-09	-6.536321e+00	-8.422814e+01
2.500000e-07	-8.352193e-07	-1.266003e-09	-6.508687e+00	-8.388331e+01
2.600000e-07	-8.314675e-07	-1.282533e-09	-6.479451e+00	-8.356605e+01
2.700000e-07	-8.274722e-07	-1.276314e-09	-6.448316e+00	-8.326452e+01
2.800000e-07	-8.232434e-07	-1.254146e-09	-6.415362e+00	-8.295746e+01
2.900000e-07	-8.188453e-07	-1.243173e-09	-6.381088e+00	-8.262221e+01
3.000000e-07	-8.142592e-07	-1.238275e-09	-6.345350e+00	-8.224268e+01
3.100000e-07	-8.095109e-07	-1.238675e-09	-6.308347e+00	-8.181455e+01
3.200000e-07	-8.046716e-07	-1.224753e-09	-6.270636e+00	-8.134611e+01
3.300000e-07	-7.996788e-07	-1.216656e-09	-6.231728e+00	-8.085450e+01
3.400000e-07	-7.945079e-07	-1.215079e-09	-6.191432e+00	-8.035913e+01
3.500000e-07	-7.891647e-07	-1.211190e-09	-6.149794e+00	-7.987466e+01
3.600000e-07	-7.836783e-07	-1.201181e-09	-6.107040e+00	-7.940614e+01
3.700000e-07	-7.780878e-07	-1.182534e-09	-6.063474e+00	-7.894780e+01
3.800000e-07	-7.723267e-07	-1.175706e-09	-6.018579e+00	-7.848581e+01
3.900000e-07	-7.663420e-07	-1.176710e-09	-5.971941e+00	-7.800364e+01
4.000000e-07	-7.601637e-07	-1.173813e-09	-5.923795e+00	-7.748792e+01
4.100000e-07	-7.538084e-07	-1.160316e-09	-5.874270e+00	-7.693272e+01
4.200000e-07	-7.472879e-07	-1.139552e-09	-5.823457e+00	-7.634067e+01
4.300000e-07	-7.406350e-07	-1.131150e-09	-5.771612e+00	-7.572089e+01
4.400000e-07	-7.338460e-07	-1.129118e-09	-5.718707e+00	-7.508461e+01
4.500000e-07	-7.269494e-07	-1.122025e-09	-5.664963e+00	-7.444053e+01
4.600000e-07	-7.199636e-07	-1.107979e-09	-5.610524e+00	-7.379154e+01
4.700000e-07	-7.128862e-07	-1.094442e-09	-5.555371e+00	-7.313423e+01
4.800000e-07	-7.057126e-07	-1.091406e-09	-5.499469e+00	-7.246103e+01
4.900000e-07	-6.983990e-07	-1.079358e-09	-5.442476e+00	-7.176429e+01
5.000000e-07	-6.909140e-07	-1.058955e-09	-5.384147e+00	-7.104027e+01
5.100000e-07	-6.832732e-07	-1.042443e-09	-5.324604e+00	-7.029159e+01
5.200000e-07	-6.755031e-07	-1.038259e-09	-5.264053e+00	-6.952702e+01
5.300000e-07	-6.676365e-07	-1.037269e-09	-5.202750e+00	-6.875859e+01
5.400000e-07	-6.597181e-07	-1.020661e-09	-5.141044e+00	-6.799721e+01
5.500000e-07	-6.517663e-07	-1.002235e-09	-5.079077e+00	-6.724835e+01
5.600000e-07	-6.437628e-07	-9.912529e-10	-5.016707e+00	-6.650967e+01
5.700000e-07	-6.356568e-07	-9.847567e-10	-4.953539e+00	-6.577135e+01
5.800000e-07	-6.274433e-07	-9.743574e-10	-4.889533e+00	-6.501935e+01
5.900000e-07	-6.191157e-07	-9.578662e-10	-4.824638e+00	-6.424024e+01
6.000000e-07	-6.106497e-07	-9.467005e-10	-4.758664e+00	-6.342597e+01
6.100000e-07	-6.020716e-07	-9.375255e-10	-4.691817e+00	-6.257675e+01
6.200000e-07	-5.934120e-07	-9.242003e-10	-4.624334e+00	-6.170098e+01
6.300000e-07	-5.846896e-07	-9.046643e-10	-4.556363e+00	-6.081213e+01
6.400000e-07	-5.758539e-07	-8.861505e-10	-4.487508e+00	-5.992380e+01
6.500000e-07	-5.668834e-07	-8.776860e-10	-4.417603e+00	-5.904466e+01
6.600000e-07	-5.578111e-07	-8.700606e-10	-4.346904e+00	-5.817523e+01
6.700000e-07	-5.486387e-07	-8.573085e-10	-4.275425e+00	-5.730767e+01
6.800000e-07	-5.393652e-07	-8.394623e-10	-4.203159e+00	-5.642885e+01
6.900000e-07	-5.300163e-07	-8.239877e-10	-4.130305e+00	-5.552537e+01
7.000000e-07	-5.205968e-07	-8.141004e-10	-4.056901e+00	-5.458901e+01
7.100000e-07	-5.110916e-07	-7.996629e-10	-3.982829e+00	-5.362033e+01
7.200000e-07	-5.015204e-07	-7.822149e-10	-3.908242e+00	-5.262908e+01
7.300000e-07	-4.919006e-07	-7.649053e-10	-3.833277e+00	-5.163129e+01
7.400000e-07	-4.822394e-07	-7.537746e-10	-3.757990e+00	-5.064380e+01
7.500000e-07	-4.725293e-07	-7.426912e-10	-3.682321e+00	-4.967832e+01
7.600000e-07	-4.627064e-07	-7.242367e-10	-3.605773e+00	-4.873707e+01
7.700000e-07	-4.527528e-07	-7.076468e-10	-3.528207e+00	-4.781168e+01
7.800000e-07	-4.427037e-07	-6.942339e-10	-3.449896e+00	-4.688580e+01
7.900000e-07	-4.325193e-07	-6.819943e-10	-3.370531e+00	-4.594064e+01
8.000000e-07	-4.221789e-07	-6.665259e-10	-3.289951e+00	-4.496136e+01
8.100000e-07	-4.117421e-07	-6.473334e-10	-3.208619e+00	-4.394225e+01
8.200000e-07	-4.012040e-07	-6.297787e-10	-3.126498e+00	-4.288879e+01
8.300000e-07	-3.905230e-07	-6.148036e-10	-3.043263e+00	-4.181573e+01
8.400000e-07	-3.797273e-07	-6.001479e-10	-2.959135e+00	-4.074210e+01
8.500000e-07	-3.688466e-07	-5.833875e-10	-2.874343e+00	-3.968474e+01
8.600000e-07	-3.578751e-07	-5.685830e-10	-2.788845e+00	-3.865272e+01
8.700000e-07	-3.468386e-07	-5.557021e-10	-2.702840e+00	-3.764461e+01
8.800000e-07	-3.357604e-07	-5.410779e-10	-2.616510e+00	-3.664949e+01
8.900000e-07	-3.246449e-07	-5.259716e-10	-2.529889e+00	-3.565126e+01
9.000000e-07	-3.135138e-07	-5.078211e-10	-2.443147e+00	-3.463455e+01
9.100000e-07	-3.023667e-07	-4.938140e-10	-2.356280e+00	-3.359009e+01
9.200000e-07	-2.912055e-07	-4.819358e-10	-2.269303e+00	-3.251752e+01
9.300000e-07	-2.800210e-07	-4.661831e-10	-2.182145e+00	-3.142478e+01
9.400000e-07	-2.688120e-07	-4.498705e-10	-2.094795e+00	-3.032440e+01
9.500000e-07	-2.575874e-07	-4.319385e-10	-2.007324e+00	-2.922822e+01
9.600000e-07	-2.463312e-07	-4.155237e-10	-1.919607e+00	-2.814275e+01
9.700000e-07	-2.350302e-07	-4.000477e-10	-1.831541e+00	-2.706686e+01
9.800000e-07	-2.236675e-07	-3.844016e-10	-1.742993e+00	-2.599273e+01
9.900000e-07	-2.122506e-07	-3.696425e-10	-1.654024e+00	-2.490961e+01
1.000000e-06	-2.007963e-07	-3.533672e-10	-1.564763e+00	-2.380873e+01
1.010000e-06	-1.892967e-07	-3.364763e-10	-1.475149e+00	-2.268743e+01
1.020000e-06	-1.777485e-07	-3.185863e-10	-1.385157e+00	-2.155064e+01
1.030000e-06	-1.661706e-07	-3.005234e-10	-1.294932e+00	-2.040919e+01
1.040000e-06	-1.545633e-07	-2.849174e-10	-1.204479e+00	-1.927542e+01
1.050000e-06	-1.429097e-07	-2.689973e-10	-1.113665e+00	-1.815805e+01
1.060000e-06	-1.312276e-07	-2.526169e-10	-1.022629e+00	-1.705824e+01
1.070000e-06	-1.195241e-07	-2.355851e-10	-9.314263e-01	-1.596863e+01
1.080000e-06	-1.078088e-07	-2.186689e-10	-8.401315e-01	-1.487583e+01
1.090000e-06	-9.608547e-08	-2.017191e-10	-7.487737e-01	-1.376545e+01
1.100000e-06	-8.432506e-08	-1.848761e-10	-6.571274e-01	-1.262773e+01
1.110000e-06	-7.254395e-08	-1.689893e-10	-5.653197e-01	-1.146149e+01
1.120000e-06	-6.077045e-08	-1.511446e-10	-4.735712e-01	-1.027473e+01
1.130000e-06	-4.899345e-08	-1.337486e-10	-3.817956e-01	-9.081460e+00
1.140000e-06	-3.721019e-08	-1.171875e-10	-2.899711e-01	-7.896042e+00
1.150000e-06	-2.539969e-08	-1.008173e-10	-1.979344e-01	-6.727170e+00
1.160000e-06	-1.356196e-08	-8.430639e-11	-1.056855e-01	-5.573989e+00
1.170000e-06	-1.732469e-09	-6.875039e-11	-1.350077e-02	-4.426063e+00
1.180000e-06	1.007025e-08	-5.299444e-11	7.847529e-02	-3.267364e+00
1.190000e-06	2.187184e-08	-3.430948e-11	1.704426e-01	-2.082868e+00
1.200000e-06	3.367361e-08	-1.449614e-11	2.624113e-01	-8.651873e-01
1.210000e-06	4.545709e-08	6.438207e-12	3.542375e-01	3.814579e-01
1.220000e-06	5.724196e-08	2.509406e-11	4.460745e-01	1.641686e+00
1.230000e-06	6.903233e-08	4.253826e-11	5.379543e-01	2.893875e+00
1.240000e-06	8.079761e-08	5.931073e-11	6.296387e-01	4.117821e+00
1.250000e-06	9.254056e-08	7.715246e-11	7.211490e-01	5.302224e+00
1.260000e-06	1.042596e-07	9.546820e-11	8.124730e-01	6.449002e+00
1.270000e-06	1.159447e-07	1.115823e-10	9.035327e-01	7.572589e+00
1.280000e-06	1.276217e-07	1.261528e-10	9.945288e-01	8.694268e+00
1.290000e-06	1.392663e-07	1.426366e-10	1.085273e+00	9.833571e+00
1.300000e-06	1.508812e-07	1.611057e-10	1.175786e+00	1.100007e+01
1.310000e-06	1.624775e-07	1.779365e-10	1.266153e+00	1.218883e+01
1.320000e-06	1.740525e-07	1.946952e-10	1.356354e+00	1.338158e+01
1.330000e-06	1.855795e-07	2.117125e-10	1.446182e+00	1.455337e+01
1.340000e-06	1.970528e-07	2.291668e-10	1.535591e+00	1.568241e+01
1.350000e-06	2.085101e-07	2.450770e-10	1.624875e+00	1.675945e+01
1.360000e-06	2.199255e-07	2.598521e-10	1.713833e+00	1.779273e+01
1.370000e-06	2.312804e-07	2.744443e-10	1.802319e+00	1.880662e+01
1.380000e-06	2.426076e-07	2.890747e-10	1.890590e+00	1.983387e+01
1.390000e-06	2.539072e-07	3.049505e-10	1.978645e+00	2.090415e+01
1.400000e-06	2.651654e-07	3.225521e-10	2.066378e+00	2.203311e+01
1.410000e-06	2.764023e-07	3.401207e-10	2.153945e+00	2.321601e+01
1.420000e-06	2.876161e-07	3.577454e-10	2.241331e+00	2.442860e+01
1.430000e-06	2.987959e-07	3.757292e-10	2.328453e+00	2.563507e+01
1.440000e-06	3.099479e-07	3.934419e-10	2.415358e+00	2.680058e+01
1.450000e-06	3.210833e-07	4.093110e-10	2.502134e+00	2.790359e+01
1.460000e-06	3.322006e-07	4.227532e-10	2.588769e+00	2.894369e+01
1.470000e-06	3.432780e-07	4.363095e-10	2.675093e+00	2.994186e+01
1.480000e-06	3.543209e-07	4.515072e-10	2.761148e+00	3.093292e+01
1.490000e-06	3.653236e-07	4.688857e-10	2.846890e+00	3.195293e+01
1.500000e-06	3.762455e-07	4.866014e-10	2.932002e+00	3.302609e+01
1.510000e-06	3.870536e-07	5.036973e-10	3.016227e+00	3.415589e+01
1.520000e-06	3.977385e-07	5.203271e-10	3.099492e+00	3.532394e+01
1.530000e-06	4.083255e-07	5.365039e-10	3.181995e+00	3.649664e+01
1.540000e-06	4.187994e-07	5.522124e-10	3.263615e+00	3.763751e+01
1.550000e-06	4.291136e-07	5.676921e-10	3.343991e+00	3.872030e+01
1.560000e-06	4.392651e-07	5.835640e-10	3.423100e+00	3.973823e+01
1.570000e-06	4.492939e-07	5.991949e-10	3.501252e+00	4.070577e+01
1.580000e-06	4.591995e-07	6.142819e-10	3.578445e+00	4.165259e+01
1.590000e-06	4.689993e-07	6.292218e-10	3.654813e+00	4.261181e+01
1.600000e-06	4.787286e-07	6.435376e-10	3.730631e+00	4.360720e+01
1.610000e-06	4.883911e-07	6.575109e-10	3.805929e+00	4.464411e+01
1.620000e-06	4.979955e-07	6.732033e-10	3.880774e+00	4.570753e+01
1.630000e-06	5.075436e-07	6.897870e-10	3.955180e+00	4.676795e+01
1.640000e-06	5.170328e-07	7.053113e-10	4.029127e+00	4.779270e+01
1.650000e-06	5.264416e-07	7.192312e-10	4.102448e+00	4.875849e+01
1.660000e-06	5.357722e-07	7.329207e-10	4.175159e+00	4.966027e+01
1.670000e-06	5.450108e-07	7.457883e-10	4.247154e+00	5.051318e+01
1.680000e-06	5.541222e-07	7.573663e-10	4.318157e+00	5.134685e+01
1.690000e-06	5.631228e-07	7.692904e-10	4.388297e+00	5.219438e+01
1.700000e-06	5.720347e-07	7.823881e-10	4.457745e+00	5.308007e+01
1.710000e-06	5.808566e-07	7.968107e-10	4.526493e+00	5.401078e+01
1.720000e-06	5.896104e-07	8.118013e-10	4.594709e+00	5.497395e+01
1.730000e-06	5.983011e-07	8.260271e-10	4.662434e+00	5.594288e+01
1.740000e-06	6.068945e-07	8.380893e-10	4.729400e+00	5.688725e+01
1.750000e-06	6.153653e-07	8.500731e-10	4.795412e+00	5.778468e+01
1.760000e-06	6.237168e-07	8.633463e-10	4.860493e+00	5.862882e+01
1.770000e-06	6.319276e-07	8.760447e-10	4.924478e+00	5.943112e+01
1.780000e-06	6.400199e-07	8.873931e-10	4.987540e+00	6.021566e+01
1.790000e-06	6.480566e-07	8.979315e-10	5.050168e+00	6.100918e+01
1.800000e-06	6.560444e-07	9.108499e-10	5.112416e+00	6.183041e+01
1.810000e-06	6.639784e-07	9.259739e-10	5.174244e+00	6.268266e+01
1.820000e-06	6.718629e-07	9.401874e-10	5.235686e+00	6.355269e+01
1.830000e-06	6.796500e-07	9.531835e-10	5.296369e+00	6.441600e+01
1.840000e-06	6.873056e-07	9.653975e-10	5.356027e+00	6.524635e+01
1.850000e-06	6.948050e-07	9.779085e-10	5.414468e+00	6.602582e+01
1.860000e-06	7.021453e-07	9.889296e-10	5.471670e+00	6.675135e+01
1.870000e-06	7.093525e-07	9.972347e-10	5.527834e+00	6.743535e+01
1.880000e-06	7.164034e-07	1.006113e-09	5.582780e+00	6.810027e+01
1.890000e-06	7.233435e-07	1.018472e-09	5.636863e+00	6.876948e+01
1.900000e-06	7.301761e-07	1.032344e-09	5.690108e+00	6.945813e+01
1.910000e-06	7.369087e-07	1.044861e-09	5.742573e+00	7.016759e+01
1.920000e-06	7.435766e-07	1.055841e-09	5.794535e+00	7.088571e+01
1.930000e-06	7.501026e-07	1.066333e-09	5.845391e+00	7.159259e+01
1.940000e-06	7.564467e-07	1.076903e-09	5.894829e+00	7.226946e+01
1.950000e-06	7.626000e-07	1.086176e-09	5.942781e+00	7.290692e+01
1.960000e-06	7.685454e-07	1.093894e-09	5.989112e+00	7.350921e+01
1.970000e-06	7.743153e-07	1.102573e-09	6.034076e+00	7.409273e+01
1.980000e-06	7.799501e-07	1.114552e-09	6.077987e+00	7.467928e+01
1.990000e-06	7.854772e-07	1.127573e-09	6.121058e+00	7.528688e+01
2.000000e-06	7.908816e-07	1.139451e-09	6.163173e+00	7.592174e+01
2.010000e-06	7.961420e-07	1.150458e-09	6.204167e+00	7.657485e+01
2.020000e-06	8.012475e-07	1.161303e-09	6.243952e+00	7.722452e+01
2.030000e-06	8.061916e-07	1.171473e-09	6.282481e+00	7.784414e+01
2.040000e-06	8.110042e-07	1.180143e-09	6.319984e+00	7.841215e+01
2.050000e-06	8.157122e-07	1.186886e-09	6.356673e+00	7.892029e+01
2.060000e-06	8.202889e-07	1.192013e-09	6.392338e+00	7.937698e+01
2.070000e-06	8.246692e-07	1.198825e-09	6.426473e+00	7.980440e+01
2.080000e-06	8.288164e-07	1.206948e-09	6.458791e+00	8.023020e+01
2.090000e-06	8.327237e-07	1.215388e-09	6.489240e+00	8.067719e+01
2.100000e-06	8.363771e-07	1.224737e-09	6.517710e+00	8.115469e+01
2.110000e-06	8.398155e-07	1.234349e-09	6.544505e+00	8.165502e+01
2.120000e-06	8.431264e-07	1.242008e-09	6.570306e+00	8.215639e+01
2.130000e-06	8.463522e-07	1.248460e-09	6.595443e+00	8.263106e+01
2.140000e-06	8.494898e-07	1.255517e-09	6.619895e+00	8.305569e+01
2.150000e-06	8.525228e-07	1.262066e-09	6.643530e+00	8.341987e+01
2.160000e-06	8.554196e-07	1.267522e-09	6.666104e+00	8.372967e+01
2.170000e-06	8.581682e-07	1.272793e-09	6.687523e+00	8.400501e+01
2.180000e-06	8.607583e-07	1.279159e-09	6.707707e+00	8.427171e+01
2.190000e-06	8.631801e-07	1.286369e-09	6.726580e+00	8.455168e+01
2.200000e-06	8.654605e-07	1.293027e-09	6.744351e+00	8.485476e+01
2.210000e-06	8.676006e-07	1.298244e-09	6.761028e+00	8.517542e+01
2.220000e-06	8.695645e-07	1.302796e-09	6.776332e+00	8.549552e+01
2.230000e-06	8.713652e-07	1.308038e-09	6.790365e+00	8.579184e+01
2.240000e-06	8.730590e-07	1.312145e-09	6.803564e+00	8.604542e+01
2.250000e-06	8.746678e-07	1.313504e-09	6.816101e+00	8.624903e+01
2.260000e-06	8.761944e-07	1.315971e-09	6.827998e+00	8.640985e+01
2.270000e-06	8.776390e-07	1.321985e-09	6.839255e+00	8.654641e+01
2.280000e-06	8.789263e-07	1.329270e-09	6.849287e+00	8.668102e+01
2.290000e-06	8.799762e-07	1.332901e-09	6.857469e+00	8.683076e+01
2.300000e-06	8.807673e-07	1.337547e-09	6.863634e+00	8.700059e+01
2.310000e-06	8.812990e-07	1.330540e-09	6.867777e+00	8.718121e+01
2.320000e-06	8.815988e-07	1.320587e-09	6.870113e+00	8.735267e+01
2.330000e-06	8.817404e-07	1.313747e-09	6.871217e+00	8.749208e+01
2.340000e-06	8.817704e-07	1.312959e-09	6.871450e+00	8.758261e+01
2.350000e-06	8.816960e-07	1.333114e-09	6.870870e+00	8.762013e+01
2.360000e-06	8.815251e-07	1.370863e-09	6.869539e+00	8.761491e+01
2.370000e-06	8.812464e-07	1.376291e-09	6.867367e+00	8.758773e+01
2.380000e-06	8.808226e-07	1.333437e-09	6.864064e+00	8.756187e+01
2.390000e-06	8.802256e-07	1.336436e-09	6.859412e+00	8.755404e+01
2.400000e-06	8.794578e-07	1.337363e-09	6.853429e+00	8.756783e+01
2.410000e-06	8.785217e-07	1.336763e-09	6.846134e+00	8.759219e+01
2.420000e-06	8.774627e-07	1.340083e-09	6.837881e+00	8.760554e+01
2.430000e-06	8.763220e-07	1.330110e-09	6.828992e+00	8.758401e+01
2.440000e-06	8.750422e-07	1.333153e-09	6.819019e+00	8.751077e+01
2.450000e-06	8.735938e-07	1.339197e-09	6.807732e+00	8.738269e+01
2.460000e-06	8.720293e-07	1.344542e-09	6.795540e+00	8.721202e+01
2.470000e-06	8.703693e-07	1.337258e-09	6.782604e+00	8.702221e+01
2.480000e-06	8.685975e-07	1.321289e-09	6.768797e+00	8.683945e+01
2.490000e-06	8.666787e-07	1.316309e-09	6.753844e+00	8.668301e+01
2.500000e-06	8.645677e-07	1.332703e-09	6.737394e+00	8.655793e+01
2.510000e-06	8.622511e-07	1.337976e-09	6.719341e+00	8.645282e+01
2.520000e-06	8.596719e-07	1.328012e-09	6.699241e+00	8.634343e+01
2.530000e-06	8.568133e-07	1.318407e-09	6.676965e+00	8.620099e+01
2.540000e-06	8.537757e-07	1.316121e-09	6.653294e+00	8.600200e+01
2.550000e-06	8.506279e-07	1.306687e-09	6.628764e+00	8.573627e+01
2.560000e-06	8.473863e-07	1.308205e-09	6.603502e+00	8.541019e+01
2.570000e-06	8.440440e-07	1.309854e-09	6.577457e+00	8.504428e+01
2.580000e-06	8.405704e-07	1.309728e-09	6.550388e+00	8.466598e+01
2.590000e-06	8.369602e-07	1.304563e-09	6.522254e+00	8.430021e+01
2.600000e-06	8.331909e-07	1.290834e-09	6.492880e+00	8.396125e+01
2.610000e-06	8.292533e-07	1.280592e-09	6.462195e+00	8.364855e+01
2.620000e-06	8.251990e-07	1.275420e-09	6.430602e+00	8.334784e+01
2.630000e-06	8.210314e-07	1.280150e-09	6.398124e+00	8.303691e+01
2.640000e-06	8.167149e-07	1.279399e-09	6.364487e+00	8.269383e+01
2.650000e-06	8.122341e-07	1.271937e-09	6.329569e+00	8.230456e+01
2.660000e-06	8.075891e-07	1.263928e-09	6.293371e+00	8.186741e+01
2.670000e-06	8.027902e-07	1.254859e-09	6.255974e+00	8.139284e+01
2.680000e-06	7.978491e-07	1.246479e-09	6.217469e+00	8.089905e+01
2.690000e-06	7.927267e-07	1.237629e-09	6.177552e+00	8.040500e+01
2.700000e-06	7.873787e-07	1.232969e-09	6.135876e+00	7.992373e+01
2.710000e-06	7.817878e-07	1.234254e-09	6.092307e+00	7.945809e+01
2.720000e-06	7.759928e-07	1.228192e-09	6.047148e+00	7.900036e+01
2.730000e-06	7.700066e-07	1.217011e-09	6.000499e+00	7.853570e+01
2.740000e-06	7.638139e-07	1.203184e-09	5.952240e+00	7.804775e+01
2.750000e-06	7.574830e-07	1.196241e-09	5.902905e+00	7.752440e+01
2.760000e-06	7.510878e-07	1.195074e-09	5.853069e+00	7.696142e+01
2.770000e-06	7.446213e-07	1.188628e-09	5.802676e+00	7.636302e+01
2.780000e-06	7.380650e-07	1.178972e-09	5.751584e+00	7.573911e+01
2.790000e-06	7.313910e-07	1.166241e-09	5.699575e+00	7.510079e+01
2.800000e-06	7.245841e-07	1.157389e-09	5.646531e+00	7.445577e+01
2.810000e-06	7.176330e-07	1.146627e-09	5.592363e+00	7.380564e+01
2.820000e-06	7.105435e-07	1.134891e-09	5.537115e+00	7.314588e+01
2.830000e-06	7.033548e-07	1.125746e-09	5.481096e+00	7.246857e+01
2.840000e-06	6.960695e-07	1.118123e-09	5.424322e+00	7.176655e+01
2.850000e-06	6.886848e-07	1.112504e-09	5.366775e+00	7.103723e+01
2.860000e-06	6.811663e-07	1.099151e-09	5.308185e+00	7.028457e+01
2.870000e-06	6.735006e-07	1.081668e-09	5.248447e+00	6.951830e+01
2.880000e-06	6.657339e-07	1.069645e-09	5.187924e+00	6.875059e+01
2.890000e-06	6.578708e-07	1.061353e-09	5.126648e+00	6.799156e+01
2.900000e-06	6.499272e-07	1.052577e-09	5.064745e+00	6.724525e+01
2.910000e-06	6.419354e-07	1.037603e-09	5.002467e+00	6.650768e+01
2.920000e-06	6.339004e-07	1.024390e-09	4.939852e+00	6.576787e+01
2.930000e-06	6.257918e-07	1.016102e-09	4.876663e+00	6.501148e+01
2.940000e-06	6.175686e-07	1.005338e-09	4.812581e+00	6.422580e+01
2.950000e-06	6.092109e-07	9.907038e-10	4.747452e+00	6.340430e+01
