# Temperatura_=_20.0
# Concentracion g/m^3_=_10000.0
# C_Vs_to_Am_M_A/Vsm_=_65563218390.804596
# pendiente_HvsI_1/m_=_3716.3
# ordenada_HvsI_A/m_=_1297.0
# frecuencia_Hz_=_212984.415477881

Tiempo_(s)	Campo_(V.s)	Magnetizacion_(V.s)	Campo_(kA/m)	Magnetizacion_(A/m)
0.000000e+00	-8.802305e-07	-1.332339e-09	-6.864983e+00	-8.935649e+01
1.000000e-08	-8.803063e-07	-1.402699e-09	-6.865575e+00	-8.939835e+01
2.000000e-08	-8.802496e-07	-1.400920e-09	-6.865132e+00	-8.941876e+01
3.000000e-08	-8.800195e-07	-1.367959e-09	-6.863338e+00	-8.940887e+01
4.000000e-08	-8.795863e-07	-1.371584e-09	-6.859959e+00	-8.936410e+01
5.000000e-08	-8.788783e-07	-1.342600e-09	-6.854438e+00	-8.928582e+01
6.000000e-08	-8.778723e-07	-1.340662e-09	-6.846591e+00	-8.918117e+01
7.000000e-08	-8.766974e-07	-1.346648e-09	-6.837429e+00	-8.906102e+01
8.000000e-08	-8.754172e-07	-1.340105e-09	-6.827444e+00	-8.893679e+01
9.000000e-08	-8.740215e-07	-1.338888e-09	-6.816559e+00	-8.881719e+01
1.000000e-07	-8.725194e-07	-1.337988e-09	-6.804844e+00	-8.870594e+01
1.100000e-07	-8.709109e-07	-1.338406e-09	-6.792299e+00	-8.860104e+01
1.200000e-07	-8.691860e-07	-1.336697e-09	-6.778846e+00	-8.849582e+01
1.300000e-07	-8.673418e-07	-1.325205e-09	-6.764463e+00	-8.838121e+01
1.400000e-07	-8.653547e-07	-1.326787e-09	-6.748966e+00	-8.824844e+01
1.500000e-07	-8.632003e-07	-1.338097e-09	-6.732163e+00	-8.809128e+01
1.600000e-07	-8.608760e-07	-1.337091e-09	-6.714036e+00	-8.790705e+01
1.700000e-07	-8.583776e-07	-1.319269e-09	-6.694551e+00	-8.769640e+01
1.800000e-07	-8.557349e-07	-1.316689e-09	-6.673941e+00	-8.746205e+01
1.900000e-07	-8.529364e-07	-1.317974e-09	-6.652114e+00	-8.720715e+01
2.000000e-07	-8.499988e-07	-1.294997e-09	-6.629204e+00	-8.693400e+01
2.100000e-07	-8.469468e-07	-1.277628e-09	-6.605401e+00	-8.664357e+01
2.200000e-07	-8.437752e-07	-1.280208e-09	-6.580666e+00	-8.633587e+01
2.300000e-07	-8.404731e-07	-1.298349e-09	-6.554913e+00	-8.601078e+01
2.400000e-07	-8.370100e-07	-1.297532e-09	-6.527904e+00	-8.566896e+01
2.500000e-07	-8.333723e-07	-1.279444e-09	-6.499533e+00	-8.531211e+01
2.600000e-07	-8.295385e-07	-1.263075e-09	-6.469633e+00	-8.494247e+01
2.700000e-07	-8.254710e-07	-1.256909e-09	-6.437910e+00	-8.456172e+01
2.800000e-07	-8.211851e-07	-1.258964e-09	-6.404484e+00	-8.416977e+01
2.900000e-07	-8.167182e-07	-1.255247e-09	-6.369647e+00	-8.376416e+01
3.000000e-07	-8.120718e-07	-1.245281e-09	-6.333408e+00	-8.334037e+01
3.100000e-07	-8.072810e-07	-1.235601e-09	-6.296045e+00	-8.289335e+01
3.200000e-07	-8.023636e-07	-1.228051e-09	-6.257694e+00	-8.241958e+01
3.300000e-07	-7.972877e-07	-1.222876e-09	-6.218106e+00	-8.191905e+01
3.400000e-07	-7.920530e-07	-1.215266e-09	-6.177281e+00	-8.139624e+01
3.500000e-07	-7.866777e-07	-1.207840e-09	-6.135358e+00	-8.085956e+01
3.600000e-07	-7.811462e-07	-1.203382e-09	-6.092218e+00	-8.031918e+01
3.700000e-07	-7.754928e-07	-1.197999e-09	-6.048126e+00	-7.978392e+01
3.800000e-07	-7.696973e-07	-1.189996e-09	-6.002927e+00	-7.925816e+01
3.900000e-07	-7.636783e-07	-1.172760e-09	-5.955984e+00	-7.873995e+01
4.000000e-07	-7.574548e-07	-1.157354e-09	-5.907447e+00	-7.822108e+01
4.100000e-07	-7.510393e-07	-1.152737e-09	-5.857412e+00	-7.768917e+01
4.200000e-07	-7.444372e-07	-1.155525e-09	-5.805921e+00	-7.713126e+01
4.300000e-07	-7.377204e-07	-1.150728e-09	-5.753537e+00	-7.653769e+01
4.400000e-07	-7.309168e-07	-1.133600e-09	-5.700475e+00	-7.590490e+01
4.500000e-07	-7.240026e-07	-1.121462e-09	-5.646550e+00	-7.523639e+01
4.600000e-07	-7.169971e-07	-1.115988e-09	-5.591914e+00	-7.454119e+01
4.700000e-07	-7.098992e-07	-1.106841e-09	-5.536557e+00	-7.383075e+01
4.800000e-07	-7.026549e-07	-1.089655e-09	-5.480058e+00	-7.311513e+01
4.900000e-07	-6.952829e-07	-1.075829e-09	-5.422563e+00	-7.239989e+01
5.000000e-07	-6.878070e-07	-1.072637e-09	-5.364258e+00	-7.168485e+01
5.100000e-07	-6.801943e-07	-1.064084e-09	-5.304887e+00	-7.096492e+01
5.200000e-07	-6.724566e-07	-1.047536e-09	-5.244539e+00	-7.023273e+01
5.300000e-07	-6.646159e-07	-1.032434e-09	-5.183389e+00	-6.948196e+01
5.400000e-07	-6.566947e-07	-1.022724e-09	-5.121611e+00	-6.870994e+01
5.500000e-07	-6.487244e-07	-1.015545e-09	-5.059450e+00	-6.791874e+01
5.600000e-07	-6.406880e-07	-1.002128e-09	-4.996773e+00	-6.711413e+01
5.700000e-07	-6.325604e-07	-9.849916e-10	-4.933386e+00	-6.630304e+01
5.800000e-07	-6.243245e-07	-9.705288e-10	-4.869153e+00	-6.549048e+01
5.900000e-07	-6.159798e-07	-9.601289e-10	-4.804073e+00	-6.467716e+01
6.000000e-07	-6.075221e-07	-9.487315e-10	-4.738110e+00	-6.385881e+01
6.100000e-07	-5.989492e-07	-9.352144e-10	-4.671250e+00	-6.302753e+01
6.200000e-07	-5.902676e-07	-9.227571e-10	-4.603541e+00	-6.217456e+01
6.300000e-07	-5.815040e-07	-9.087501e-10	-4.535193e+00	-6.129360e+01
6.400000e-07	-5.726684e-07	-8.943899e-10	-4.466284e+00	-6.038323e+01
6.500000e-07	-5.637223e-07	-8.771881e-10	-4.396512e+00	-5.944758e+01
6.600000e-07	-5.546282e-07	-8.579569e-10	-4.325586e+00	-5.849506e+01
6.700000e-07	-5.454010e-07	-8.427140e-10	-4.253623e+00	-5.753548e+01
6.800000e-07	-5.360980e-07	-8.304663e-10	-4.181068e+00	-5.657687e+01
6.900000e-07	-5.267093e-07	-8.184724e-10	-4.107845e+00	-5.562305e+01
7.000000e-07	-5.172382e-07	-8.026001e-10	-4.033979e+00	-5.467293e+01
7.100000e-07	-5.077196e-07	-7.859011e-10	-3.959743e+00	-5.372166e+01
7.200000e-07	-4.981452e-07	-7.722536e-10	-3.885072e+00	-5.276322e+01
7.300000e-07	-4.884960e-07	-7.574842e-10	-3.809817e+00	-5.179314e+01
7.400000e-07	-4.787701e-07	-7.416243e-10	-3.733964e+00	-5.081045e+01
7.500000e-07	-4.689743e-07	-7.241530e-10	-3.657565e+00	-4.981785e+01
7.600000e-07	-4.590869e-07	-7.080667e-10	-3.580453e+00	-4.882021e+01
7.700000e-07	-4.490817e-07	-6.947641e-10	-3.502422e+00	-4.782195e+01
7.800000e-07	-4.389810e-07	-6.791114e-10	-3.423646e+00	-4.682451e+01
7.900000e-07	-4.287515e-07	-6.622744e-10	-3.343865e+00	-4.582501e+01
8.000000e-07	-4.183781e-07	-6.469889e-10	-3.262962e+00	-4.481687e+01
8.100000e-07	-4.078893e-07	-6.333128e-10	-3.181159e+00	-4.379209e+01
8.200000e-07	-3.972719e-07	-6.178284e-10	-3.098353e+00	-4.274470e+01
8.300000e-07	-3.865304e-07	-5.992432e-10	-3.014580e+00	-4.167368e+01
8.400000e-07	-3.756947e-07	-5.806234e-10	-2.930071e+00	-4.058439e+01
8.500000e-07	-3.647702e-07	-5.642379e-10	-2.844870e+00	-3.948766e+01
8.600000e-07	-3.537760e-07	-5.493298e-10	-2.759125e+00	-3.839673e+01
8.700000e-07	-3.427438e-07	-5.339253e-10	-2.673084e+00	-3.732297e+01
8.800000e-07	-3.316744e-07	-5.175826e-10	-2.586753e+00	-3.627188e+01
8.900000e-07	-3.205819e-07	-5.029648e-10	-2.500242e+00	-3.524084e+01
9.000000e-07	-3.094746e-07	-4.892730e-10	-2.413616e+00	-3.421941e+01
9.100000e-07	-2.983463e-07	-4.743580e-10	-2.326825e+00	-3.319224e+01
9.200000e-07	-2.871925e-07	-4.580127e-10	-2.239835e+00	-3.214362e+01
9.300000e-07	-2.760158e-07	-4.419958e-10	-2.152668e+00	-3.106226e+01
9.400000e-07	-2.648081e-07	-4.277033e-10	-2.065258e+00	-2.994458e+01
9.500000e-07	-2.535575e-07	-4.107489e-10	-1.977514e+00	-2.879568e+01
9.600000e-07	-2.422613e-07	-3.913336e-10	-1.889414e+00	-2.762746e+01
9.700000e-07	-2.309268e-07	-3.735737e-10	-1.801015e+00	-2.645495e+01
9.800000e-07	-2.195601e-07	-3.593589e-10	-1.712365e+00	-2.529179e+01
9.900000e-07	-2.081356e-07	-3.457160e-10	-1.623265e+00	-2.414655e+01
1.000000e-06	-1.966703e-07	-3.296033e-10	-1.533846e+00	-2.302099e+01
1.010000e-06	-1.851884e-07	-3.117806e-10	-1.444298e+00	-2.191050e+01
1.020000e-06	-1.736754e-07	-2.940090e-10	-1.354507e+00	-2.080651e+01
1.030000e-06	-1.621156e-07	-2.791539e-10	-1.264352e+00	-1.969978e+01
1.040000e-06	-1.504872e-07	-2.645288e-10	-1.173661e+00	-1.858332e+01
1.050000e-06	-1.388245e-07	-2.482182e-10	-1.082703e+00	-1.745423e+01
1.060000e-06	-1.271463e-07	-2.333915e-10	-9.916237e-01	-1.631368e+01
1.070000e-06	-1.154465e-07	-2.187634e-10	-9.003759e-01	-1.516564e+01
1.080000e-06	-1.037318e-07	-2.034167e-10	-8.090117e-01	-1.401476e+01
1.090000e-06	-9.198435e-08	-1.863755e-10	-7.173928e-01	-1.286444e+01
1.100000e-06	-8.021839e-08	-1.689055e-10	-6.256292e-01	-1.171561e+01
1.110000e-06	-6.843385e-08	-1.531339e-10	-5.337207e-01	-1.056669e+01
1.120000e-06	-5.664247e-08	-1.382506e-10	-4.417588e-01	-9.414419e+00
1.130000e-06	-4.484355e-08	-1.233179e-10	-3.497382e-01	-8.255113e+00
1.140000e-06	-3.303540e-08	-1.059784e-10	-2.576456e-01	-7.085864e+00
1.150000e-06	-2.123475e-08	-8.842946e-11	-1.656114e-01	-5.905211e+00
1.160000e-06	-9.426766e-09	-7.234160e-11	-7.352005e-02	-4.713239e+00
1.170000e-06	2.389851e-09	-5.565587e-11	1.863863e-02	-3.511249e+00
1.180000e-06	1.420338e-08	-3.712672e-11	1.107732e-01	-2.301355e+00
1.190000e-06	2.600323e-08	-1.904860e-11	2.028011e-01	-1.086235e+00
1.200000e-06	3.778576e-08	-2.623800e-12	2.946940e-01	1.308494e-01
1.210000e-06	4.956327e-08	1.468322e-11	3.865476e-01	1.345933e+00
1.220000e-06	6.134473e-08	3.269843e-11	4.784321e-01	2.554379e+00
1.230000e-06	7.310065e-08	5.210948e-11	5.701174e-01	3.751311e+00
1.240000e-06	8.484146e-08	7.161767e-11	6.616849e-01	4.932474e+00
1.250000e-06	9.656729e-08	8.931884e-11	7.531355e-01	6.095322e+00
1.260000e-06	1.082623e-07	1.063607e-10	8.443458e-01	7.239902e+00
1.270000e-06	1.199427e-07	1.226931e-10	9.354419e-01	8.369109e+00
1.280000e-06	1.315796e-07	1.383519e-10	1.026199e+00	9.488052e+00
1.290000e-06	1.431791e-07	1.535071e-10	1.116664e+00	1.060264e+01
1.300000e-06	1.547615e-07	1.694712e-10	1.206997e+00	1.171777e+01
1.310000e-06	1.663027e-07	1.871821e-10	1.297007e+00	1.283589e+01
1.320000e-06	1.778087e-07	2.047559e-10	1.386743e+00	1.395629e+01
1.330000e-06	1.892853e-07	2.221023e-10	1.476250e+00	1.507581e+01
1.340000e-06	2.007518e-07	2.391368e-10	1.565678e+00	1.619034e+01
1.350000e-06	2.121685e-07	2.568228e-10	1.654718e+00	1.729701e+01
1.360000e-06	2.235231e-07	2.741380e-10	1.743274e+00	1.839590e+01
1.370000e-06	2.348309e-07	2.894544e-10	1.831464e+00	1.949065e+01
1.380000e-06	2.460992e-07	3.035413e-10	1.919346e+00	2.058769e+01
1.390000e-06	2.573752e-07	3.189447e-10	2.007288e+00	2.169420e+01
1.400000e-06	2.686340e-07	3.364199e-10	2.095097e+00	2.281543e+01
1.410000e-06	2.798416e-07	3.542905e-10	2.182506e+00	2.395262e+01
1.420000e-06	2.910045e-07	3.720673e-10	2.269566e+00	2.510206e+01
1.430000e-06	3.021438e-07	3.905543e-10	2.356442e+00	2.625594e+01
1.440000e-06	3.132769e-07	4.104198e-10	2.443270e+00	2.740476e+01
1.450000e-06	3.243970e-07	4.281254e-10	2.529996e+00	2.854042e+01
1.460000e-06	3.354767e-07	4.432149e-10	2.616407e+00	2.965895e+01
1.470000e-06	3.465224e-07	4.585093e-10	2.702554e+00	3.076185e+01
1.480000e-06	3.575324e-07	4.751409e-10	2.788422e+00	3.185548e+01
1.490000e-06	3.684928e-07	4.926662e-10	2.873903e+00	3.294874e+01
1.500000e-06	3.793990e-07	5.098353e-10	2.958961e+00	3.404967e+01
1.510000e-06	3.902376e-07	5.268909e-10	3.043492e+00	3.516238e+01
1.520000e-06	4.009258e-07	5.443667e-10	3.126851e+00	3.628523e+01
1.530000e-06	4.114369e-07	5.602338e-10	3.208827e+00	3.741106e+01
1.540000e-06	4.218426e-07	5.732829e-10	3.289982e+00	3.852936e+01
1.550000e-06	4.321160e-07	5.872742e-10	3.370105e+00	3.962961e+01
1.560000e-06	4.422234e-07	6.053264e-10	3.448934e+00	4.070469e+01
1.570000e-06	4.521891e-07	6.238304e-10	3.526657e+00	4.175311e+01
1.580000e-06	4.620508e-07	6.388968e-10	3.603569e+00	4.277928e+01
1.590000e-06	4.718359e-07	6.510984e-10	3.679884e+00	4.379187e+01
1.600000e-06	4.815507e-07	6.645695e-10	3.755650e+00	4.480071e+01
1.610000e-06	4.911935e-07	6.791793e-10	3.830855e+00	4.581352e+01
1.620000e-06	5.007820e-07	6.937785e-10	3.905636e+00	4.683339e+01
1.630000e-06	5.103146e-07	7.097186e-10	3.979982e+00	4.785803e+01
1.640000e-06	5.197458e-07	7.269085e-10	4.053536e+00	4.888082e+01
1.650000e-06	5.290951e-07	7.430936e-10	4.126452e+00	4.989326e+01
1.660000e-06	5.383850e-07	7.573471e-10	4.198905e+00	5.088791e+01
1.670000e-06	5.475808e-07	7.711272e-10	4.270623e+00	5.186070e+01
1.680000e-06	5.566689e-07	7.842984e-10	4.341502e+00	5.281197e+01
1.690000e-06	5.656521e-07	7.972393e-10	4.411563e+00	5.374588e+01
1.700000e-06	5.745320e-07	8.103405e-10	4.480818e+00	5.466871e+01
1.710000e-06	5.833360e-07	8.223082e-10	4.549481e+00	5.558650e+01
1.720000e-06	5.920587e-07	8.345033e-10	4.617510e+00	5.650323e+01
1.730000e-06	6.006776e-07	8.470714e-10	4.684730e+00	5.741987e+01
1.740000e-06	6.091929e-07	8.600045e-10	4.751141e+00	5.833468e+01
1.750000e-06	6.175946e-07	8.738528e-10	4.816666e+00	5.924440e+01
1.760000e-06	6.258792e-07	8.870053e-10	4.881279e+00	6.014576e+01
1.770000e-06	6.340558e-07	9.000410e-10	4.945048e+00	6.103667e+01
1.780000e-06	6.421415e-07	9.120835e-10	5.008109e+00	6.191666e+01
1.790000e-06	6.501668e-07	9.227765e-10	5.070699e+00	6.278641e+01
1.800000e-06	6.581347e-07	9.341732e-10	5.132842e+00	6.364678e+01
1.810000e-06	6.660310e-07	9.460133e-10	5.194426e+00	6.449776e+01
1.820000e-06	6.738410e-07	9.584058e-10	5.255337e+00	6.533788e+01
1.830000e-06	6.815645e-07	9.722320e-10	5.315573e+00	6.616445e+01
1.840000e-06	6.891554e-07	9.862522e-10	5.374774e+00	6.697445e+01
1.850000e-06	6.965853e-07	9.990854e-10	5.432721e+00	6.776571e+01
1.860000e-06	7.038699e-07	1.009720e-09	5.489534e+00	6.853797e+01
1.870000e-06	7.110010e-07	1.019606e-09	5.545150e+00	6.929318e+01
1.880000e-06	7.179956e-07	1.029914e-09	5.599702e+00	7.003501e+01
1.890000e-06	7.248720e-07	1.040658e-09	5.653331e+00	7.076755e+01
1.900000e-06	7.316620e-07	1.051651e-09	5.706287e+00	7.149393e+01
1.910000e-06	7.383951e-07	1.063477e-09	5.758799e+00	7.221510e+01
1.920000e-06	7.450147e-07	1.077038e-09	5.810426e+00	7.292953e+01
1.930000e-06	7.514530e-07	1.090452e-09	5.860638e+00	7.363383e+01
1.940000e-06	7.576988e-07	1.102021e-09	5.909349e+00	7.432413e+01
1.950000e-06	7.637522e-07	1.112814e-09	5.956561e+00	7.499763e+01
1.960000e-06	7.696333e-07	1.124207e-09	6.002427e+00	7.565380e+01
1.970000e-06	7.753686e-07	1.134081e-09	6.047157e+00	7.629467e+01
1.980000e-06	7.809667e-07	1.143236e-09	6.090818e+00	7.692400e+01
1.990000e-06	7.864312e-07	1.153135e-09	6.133436e+00	7.754567e+01
2.000000e-06	7.917838e-07	1.163763e-09	6.175181e+00	7.816184e+01
2.010000e-06	7.969984e-07	1.174817e-09	6.215850e+00	7.877156e+01
2.020000e-06	8.020532e-07	1.186572e-09	6.255273e+00	7.937044e+01
2.030000e-06	8.069677e-07	1.198611e-09	6.293602e+00	7.995153e+01
2.040000e-06	8.117458e-07	1.208888e-09	6.330866e+00	8.050741e+01
2.050000e-06	8.164032e-07	1.217124e-09	6.367190e+00	8.103246e+01
2.060000e-06	8.209244e-07	1.223721e-09	6.402450e+00	8.152502e+01
2.070000e-06	8.252517e-07	1.229326e-09	6.436200e+00	8.198819e+01
2.080000e-06	8.293356e-07	1.235125e-09	6.468051e+00	8.242933e+01
2.090000e-06	8.331450e-07	1.242904e-09	6.497760e+00	8.285802e+01
2.100000e-06	8.367093e-07	1.253017e-09	6.525558e+00	8.328332e+01
2.110000e-06	8.401131e-07	1.264121e-09	6.552105e+00	8.371101e+01
2.120000e-06	8.434037e-07	1.273039e-09	6.577769e+00	8.414179e+01
2.130000e-06	8.465903e-07	1.278954e-09	6.602621e+00	8.457102e+01
2.140000e-06	8.496751e-07	1.283750e-09	6.626680e+00	8.499020e+01
2.150000e-06	8.526433e-07	1.288607e-09	6.649829e+00	8.538960e+01
2.160000e-06	8.554897e-07	1.294559e-09	6.672028e+00	8.576147e+01
2.170000e-06	8.581979e-07	1.302219e-09	6.693149e+00	8.610253e+01
2.180000e-06	8.607404e-07	1.311030e-09	6.712978e+00	8.641519e+01
2.190000e-06	8.631311e-07	1.319348e-09	6.731624e+00	8.670684e+01
2.200000e-06	8.653762e-07	1.324684e-09	6.749134e+00	8.698757e+01
2.210000e-06	8.674683e-07	1.326561e-09	6.765450e+00	8.726689e+01
2.220000e-06	8.694158e-07	1.328562e-09	6.780638e+00	8.755053e+01
2.230000e-06	8.712151e-07	1.332463e-09	6.794671e+00	8.783832e+01
2.240000e-06	8.728989e-07	1.336951e-09	6.807803e+00	8.812385e+01
2.250000e-06	8.744572e-07	1.341112e-09	6.819957e+00	8.839612e+01
2.260000e-06	8.759067e-07	1.345278e-09	6.831262e+00	8.864259e+01
2.270000e-06	8.772536e-07	1.348909e-09	6.841766e+00	8.885280e+01
2.280000e-06	8.784124e-07	1.352458e-09	6.850804e+00	8.902140e+01
2.290000e-06	8.793353e-07	1.349917e-09	6.858001e+00	8.914961e+01
2.300000e-06	8.800652e-07	1.348301e-09	6.863694e+00	8.924469e+01
2.310000e-06	8.806010e-07	1.360014e-09	6.867873e+00	8.931753e+01
2.320000e-06	8.809095e-07	1.371682e-09	6.870279e+00	8.937916e+01
2.330000e-06	8.810519e-07	1.383306e-09	6.871390e+00	8.943732e+01
2.340000e-06	8.810596e-07	1.394679e-09	6.871450e+00	8.949410e+01
2.350000e-06	8.809434e-07	1.379909e-09	6.870543e+00	8.954554e+01
2.360000e-06	8.807133e-07	1.322018e-09	6.868749e+00	8.958310e+01
2.370000e-06	8.803763e-07	1.331949e-09	6.866121e+00	8.959676e+01
2.380000e-06	8.799143e-07	1.355765e-09	6.862518e+00	8.957847e+01
2.390000e-06	8.792882e-07	1.357303e-09	6.857634e+00	8.952506e+01
2.400000e-06	8.784848e-07	1.371472e-09	6.851369e+00	8.943944e+01
2.410000e-06	8.775132e-07	1.361149e-09	6.843791e+00	8.932993e+01
2.420000e-06	8.763972e-07	1.360141e-09	6.835087e+00	8.920786e+01
2.430000e-06	8.751675e-07	1.357987e-09	6.825497e+00	8.908425e+01
2.440000e-06	8.738042e-07	1.365367e-09	6.814864e+00	8.896673e+01
2.450000e-06	8.723129e-07	1.356573e-09	6.803233e+00	8.885758e+01
2.460000e-06	8.707123e-07	1.349800e-09	6.790750e+00	8.875347e+01
2.470000e-06	8.689982e-07	1.348375e-09	6.777382e+00	8.864690e+01
2.480000e-06	8.671485e-07	1.350911e-09	6.762956e+00	8.852861e+01
2.490000e-06	8.651567e-07	1.346404e-09	6.747421e+00	8.839032e+01
2.500000e-06	8.630188e-07	1.331221e-09	6.730748e+00	8.822661e+01
2.510000e-06	8.606477e-07	1.329509e-09	6.712256e+00	8.803572e+01
2.520000e-06	8.580510e-07	1.332578e-09	6.692004e+00	8.781896e+01
2.530000e-06	8.552269e-07	1.335141e-09	6.669978e+00	8.757930e+01
2.540000e-06	8.521883e-07	1.341059e-09	6.646281e+00	8.731978e+01
2.550000e-06	8.490076e-07	1.343821e-09	6.621474e+00	8.704238e+01
2.560000e-06	8.457166e-07	1.331950e-09	6.595807e+00	8.674777e+01
2.570000e-06	8.423157e-07	1.319372e-09	6.569283e+00	8.643582e+01
2.580000e-06	8.388103e-07	1.313215e-09	6.541944e+00	8.610656e+01
2.590000e-06	8.351700e-07	1.309843e-09	6.513553e+00	8.576090e+01
2.600000e-06	8.313503e-07	1.308002e-09	6.483763e+00	8.540076e+01
2.610000e-06	8.273800e-07	1.309729e-09	6.452799e+00	8.502835e+01
2.620000e-06	8.232743e-07	1.305575e-09	6.420777e+00	8.464500e+01
2.630000e-06	8.190063e-07	1.298458e-09	6.387491e+00	8.425008e+01
2.640000e-06	8.145922e-07	1.288997e-09	6.353065e+00	8.384051e+01
2.650000e-06	8.100688e-07	1.285058e-09	6.317787e+00	8.341148e+01
2.660000e-06	8.054131e-07	1.282999e-09	6.281477e+00	8.295811e+01
2.670000e-06	8.005808e-07	1.278609e-09	6.243789e+00	8.247759e+01
2.680000e-06	7.955631e-07	1.269616e-09	6.204656e+00	8.197101e+01
2.690000e-06	7.903823e-07	1.255933e-09	6.164250e+00	8.144394e+01
2.700000e-06	7.850189e-07	1.245432e-09	6.122421e+00	8.090549e+01
2.710000e-06	7.794227e-07	1.236110e-09	6.078776e+00	8.036580e+01
2.720000e-06	7.735804e-07	1.231633e-09	6.033211e+00	7.983284e+01
2.730000e-06	7.675392e-07	1.230420e-09	5.986096e+00	7.930953e+01
2.740000e-06	7.613338e-07	1.229895e-09	5.937699e+00	7.879225e+01
2.750000e-06	7.550014e-07	1.225973e-09	5.888312e+00	7.827149e+01
2.760000e-06	7.485743e-07	1.215291e-09	5.838187e+00	7.773434e+01
2.770000e-06	7.420603e-07	1.199903e-09	5.787384e+00	7.716833e+01
2.780000e-06	7.354566e-07	1.187094e-09	5.735881e+00	7.656511e+01
2.790000e-06	7.287573e-07	1.179312e-09	5.683632e+00	7.592293e+01
2.800000e-06	7.219312e-07	1.172179e-09	5.630395e+00	7.524685e+01
2.810000e-06	7.149749e-07	1.161951e-09	5.576143e+00	7.454686e+01
2.820000e-06	7.078728e-07	1.153725e-09	5.520753e+00	7.383444e+01
2.830000e-06	7.006305e-07	1.146730e-09	5.464270e+00	7.311872e+01
2.840000e-06	6.933043e-07	1.136063e-09	5.407132e+00	7.240389e+01
2.850000e-06	6.858812e-07	1.122589e-09	5.349238e+00	7.168835e+01
2.860000e-06	6.783290e-07	1.109130e-09	5.290339e+00	7.096617e+01
2.870000e-06	6.706345e-07	1.099475e-09	5.230329e+00	7.022994e+01
2.880000e-06	6.628339e-07	1.088792e-09	5.169491e+00	6.947404e+01
2.890000e-06	6.549760e-07	1.074602e-09	5.108207e+00	6.869697e+01
2.900000e-06	6.470391e-07	1.060024e-09	5.046306e+00	6.790188e+01
2.910000e-06	6.390209e-07	1.048667e-09	4.983772e+00	6.709514e+01
2.920000e-06	6.309374e-07	1.038943e-09	4.920728e+00	6.628346e+01
2.930000e-06	6.227701e-07	1.026905e-09	4.857030e+00	6.547096e+01
2.940000e-06	6.144978e-07	1.014566e-09	4.792514e+00	6.465707e+01
2.950000e-06	6.060853e-07	1.001585e-09	4.726905e+00	6.383644e+01
