# Temperatura_=_20.0
# Concentracion g/m^3_=_10000.0
# C_Vs_to_Am_M_A/Vsm_=_65563218390.804596
# pendiente_HvsI_1/m_=_3716.3
# ordenada_HvsI_A/m_=_1297.0
# frecuencia_Hz_=_212984.53267945736

Tiempo_(s)	Campo_(V.s)	Magnetizacion_(V.s)	Campo_(kA/m)	Magnetizacion_(A/m)
0.000000e+00	-8.798344e-07	-1.341716e-09	-6.862652e+00	-8.835761e+01
1.000000e-08	-8.799042e-07	-1.296004e-09	-6.863196e+00	-8.833320e+01
2.000000e-08	-8.798267e-07	-1.324768e-09	-6.862591e+00	-8.827555e+01
3.000000e-08	-8.795098e-07	-1.325816e-09	-6.860119e+00	-8.819417e+01
4.000000e-08	-8.789306e-07	-1.321898e-09	-6.855602e+00	-8.810066e+01
5.000000e-08	-8.780493e-07	-1.337808e-09	-6.848727e+00	-8.800496e+01
6.000000e-08	-8.769551e-07	-1.324409e-09	-6.840193e+00	-8.791246e+01
7.000000e-08	-8.757472e-07	-1.317685e-09	-6.830772e+00	-8.782268e+01
8.000000e-08	-8.743922e-07	-1.327552e-09	-6.820203e+00	-8.773034e+01
9.000000e-08	-8.729245e-07	-1.327903e-09	-6.808755e+00	-8.762797e+01
1.000000e-07	-8.713656e-07	-1.318597e-09	-6.796595e+00	-8.750927e+01
1.100000e-07	-8.697210e-07	-1.312002e-09	-6.783768e+00	-8.737170e+01
1.200000e-07	-8.679597e-07	-1.315586e-09	-6.770029e+00	-8.721749e+01
1.300000e-07	-8.660239e-07	-1.311346e-09	-6.754930e+00	-8.705246e+01
1.400000e-07	-8.639054e-07	-1.290244e-09	-6.738406e+00	-8.688322e+01
1.500000e-07	-8.616321e-07	-1.285304e-09	-6.720674e+00	-8.671380e+01
1.600000e-07	-8.592281e-07	-1.293866e-09	-6.701924e+00	-8.654308e+01
1.700000e-07	-8.566648e-07	-1.298327e-09	-6.681930e+00	-8.636410e+01
1.800000e-07	-8.539368e-07	-1.289830e-09	-6.660652e+00	-8.616567e+01
1.900000e-07	-8.510710e-07	-1.288772e-09	-6.638299e+00	-8.593588e+01
2.000000e-07	-8.480548e-07	-1.294106e-09	-6.614773e+00	-8.566634e+01
2.100000e-07	-8.449326e-07	-1.286236e-09	-6.590419e+00	-8.535549e+01
2.200000e-07	-8.417450e-07	-1.263346e-09	-6.565556e+00	-8.500983e+01
2.300000e-07	-8.384663e-07	-1.243711e-09	-6.539983e+00	-8.464240e+01
2.400000e-07	-8.349898e-07	-1.241889e-09	-6.512866e+00	-8.426878e+01
2.500000e-07	-8.312498e-07	-1.255792e-09	-6.483695e+00	-8.390209e+01
2.600000e-07	-8.272965e-07	-1.258176e-09	-6.452859e+00	-8.354849e+01
2.700000e-07	-8.231174e-07	-1.243456e-09	-6.420262e+00	-8.320501e+01
2.800000e-07	-8.187316e-07	-1.230564e-09	-6.386053e+00	-8.286036e+01
2.900000e-07	-8.141670e-07	-1.225624e-09	-6.350450e+00	-8.249879e+01
3.000000e-07	-8.094319e-07	-1.225117e-09	-6.313517e+00	-8.210553e+01
3.100000e-07	-8.045773e-07	-1.214106e-09	-6.275651e+00	-8.167209e+01
3.200000e-07	-7.995949e-07	-1.203588e-09	-6.236789e+00	-8.119939e+01
3.300000e-07	-7.944507e-07	-1.196647e-09	-6.196664e+00	-8.069762e+01
3.400000e-07	-7.891386e-07	-1.194565e-09	-6.155230e+00	-8.018280e+01
3.500000e-07	-7.836871e-07	-1.188315e-09	-6.112708e+00	-7.967109e+01
3.600000e-07	-7.781139e-07	-1.174462e-09	-6.069238e+00	-7.917291e+01
3.700000e-07	-7.723650e-07	-1.164725e-09	-6.024397e+00	-7.868891e+01
3.800000e-07	-7.663992e-07	-1.161941e-09	-5.977864e+00	-7.820930e+01
3.900000e-07	-7.602275e-07	-1.161924e-09	-5.929726e+00	-7.771687e+01
4.000000e-07	-7.538252e-07	-1.151898e-09	-5.879788e+00	-7.719264e+01
4.100000e-07	-7.472500e-07	-1.133568e-09	-5.828502e+00	-7.662218e+01
4.200000e-07	-7.405817e-07	-1.120570e-09	-5.776490e+00	-7.600040e+01
4.300000e-07	-7.338390e-07	-1.115740e-09	-5.723897e+00	-7.533314e+01
4.400000e-07	-7.269871e-07	-1.111791e-09	-5.670452e+00	-7.463495e+01
4.500000e-07	-7.200071e-07	-1.099595e-09	-5.616009e+00	-7.392397e+01
4.600000e-07	-7.129505e-07	-1.085350e-09	-5.560968e+00	-7.321579e+01
4.700000e-07	-7.058089e-07	-1.079174e-09	-5.505264e+00	-7.251847e+01
4.800000e-07	-6.985433e-07	-1.071945e-09	-5.448592e+00	-7.183059e+01
4.900000e-07	-6.911222e-07	-1.057018e-09	-5.390709e+00	-7.114282e+01
5.000000e-07	-6.835416e-07	-1.037803e-09	-5.331580e+00	-7.044248e+01
5.100000e-07	-6.758105e-07	-1.029103e-09	-5.271279e+00	-6.971900e+01
5.200000e-07	-6.679647e-07	-1.025706e-09	-5.210081e+00	-6.896844e+01
5.300000e-07	-6.600613e-07	-1.012774e-09	-5.148436e+00	-6.819499e+01
5.400000e-07	-6.521148e-07	-9.943045e-10	-5.086453e+00	-6.740913e+01
5.500000e-07	-6.441113e-07	-9.799490e-10	-5.024026e+00	-6.662311e+01
5.600000e-07	-6.360529e-07	-9.724711e-10	-4.961171e+00	-6.584554e+01
5.700000e-07	-6.278795e-07	-9.617107e-10	-4.897420e+00	-6.507740e+01
5.800000e-07	-6.195880e-07	-9.448864e-10	-4.832747e+00	-6.431105e+01
5.900000e-07	-6.111883e-07	-9.306287e-10	-4.767229e+00	-6.353271e+01
6.000000e-07	-6.026528e-07	-9.222130e-10	-4.700653e+00	-6.272763e+01
6.100000e-07	-5.940168e-07	-9.116088e-10	-4.633292e+00	-6.188581e+01
6.200000e-07	-5.852855e-07	-8.923515e-10	-4.565189e+00	-6.100619e+01
6.300000e-07	-5.764594e-07	-8.733141e-10	-4.496346e+00	-6.009747e+01
6.400000e-07	-5.675229e-07	-8.617260e-10	-4.426642e+00	-5.917529e+01
6.500000e-07	-5.584761e-07	-8.535152e-10	-4.356078e+00	-5.825662e+01
6.600000e-07	-5.493438e-07	-8.413610e-10	-4.284846e+00	-5.735363e+01
6.700000e-07	-5.401161e-07	-8.236734e-10	-4.212871e+00	-5.646931e+01
6.800000e-07	-5.307950e-07	-8.085093e-10	-4.140167e+00	-5.559649e+01
6.900000e-07	-5.213947e-07	-7.972861e-10	-4.066845e+00	-5.472085e+01
7.000000e-07	-5.119191e-07	-7.842134e-10	-3.992936e+00	-5.382660e+01
7.100000e-07	-5.023850e-07	-7.684759e-10	-3.918570e+00	-5.290272e+01
7.200000e-07	-4.928014e-07	-7.526736e-10	-3.843819e+00	-5.194738e+01
7.300000e-07	-4.831635e-07	-7.417240e-10	-3.768644e+00	-5.096874e+01
7.400000e-07	-4.734407e-07	-7.301157e-10	-3.692807e+00	-4.998179e+01
7.500000e-07	-4.636136e-07	-7.115476e-10	-3.616156e+00	-4.900250e+01
7.600000e-07	-4.536862e-07	-6.913137e-10	-3.538723e+00	-4.804142e+01
7.700000e-07	-4.436600e-07	-6.757015e-10	-3.460519e+00	-4.709940e+01
7.800000e-07	-4.335026e-07	-6.651619e-10	-3.381292e+00	-4.616689e+01
7.900000e-07	-4.231797e-07	-6.532593e-10	-3.300774e+00	-4.522739e+01
8.000000e-07	-4.127309e-07	-6.386260e-10	-3.219274e+00	-4.426361e+01
8.100000e-07	-4.021717e-07	-6.231690e-10	-3.136913e+00	-4.326394e+01
8.200000e-07	-3.914701e-07	-6.075732e-10	-3.053441e+00	-4.222702e+01
8.300000e-07	-3.806496e-07	-5.909053e-10	-2.969042e+00	-4.116234e+01
8.400000e-07	-3.697383e-07	-5.714690e-10	-2.883935e+00	-4.008685e+01
8.500000e-07	-3.587619e-07	-5.542186e-10	-2.798319e+00	-3.901886e+01
8.600000e-07	-3.477440e-07	-5.400396e-10	-2.712380e+00	-3.797144e+01
8.700000e-07	-3.366924e-07	-5.270550e-10	-2.626179e+00	-3.694798e+01
8.800000e-07	-3.256265e-07	-5.150687e-10	-2.539866e+00	-3.594133e+01
8.900000e-07	-3.145277e-07	-4.989444e-10	-2.453296e+00	-3.493697e+01
9.000000e-07	-3.033902e-07	-4.838766e-10	-2.366424e+00	-3.391870e+01
9.100000e-07	-2.922312e-07	-4.706161e-10	-2.279384e+00	-3.287473e+01
9.200000e-07	-2.810610e-07	-4.551642e-10	-2.192258e+00	-3.180175e+01
9.300000e-07	-2.698670e-07	-4.399516e-10	-2.104945e+00	-3.070552e+01
9.400000e-07	-2.586607e-07	-4.240882e-10	-2.017537e+00	-2.959790e+01
9.500000e-07	-2.474294e-07	-4.073466e-10	-1.929933e+00	-2.849167e+01
9.600000e-07	-2.361356e-07	-3.905406e-10	-1.841842e+00	-2.739526e+01
9.700000e-07	-2.247968e-07	-3.751338e-10	-1.753401e+00	-2.630955e+01
9.800000e-07	-2.134241e-07	-3.606734e-10	-1.664694e+00	-2.522800e+01
9.900000e-07	-2.020287e-07	-3.458667e-10	-1.575810e+00	-2.413992e+01
1.000000e-06	-1.905649e-07	-3.298138e-10	-1.486394e+00	-2.303548e+01
1.010000e-06	-1.790289e-07	-3.120723e-10	-1.396414e+00	-2.191027e+01
1.020000e-06	-1.674512e-07	-2.947498e-10	-1.306108e+00	-2.076760e+01
1.030000e-06	-1.558392e-07	-2.770004e-10	-1.215536e+00	-1.961737e+01
1.040000e-06	-1.442192e-07	-2.591828e-10	-1.124900e+00	-1.847218e+01
1.050000e-06	-1.325398e-07	-2.435886e-10	-1.033802e+00	-1.734208e+01
1.060000e-06	-1.208201e-07	-2.288559e-10	-9.423891e-01	-1.623023e+01
1.070000e-06	-1.091195e-07	-2.138622e-10	-8.511250e-01	-1.513125e+01
1.080000e-06	-9.740411e-08	-1.976290e-10	-7.597458e-01	-1.403293e+01
1.090000e-06	-8.567169e-08	-1.814712e-10	-6.682337e-01	-1.292067e+01
1.100000e-06	-7.392934e-08	-1.661132e-10	-5.766441e-01	-1.178294e+01
1.110000e-06	-6.217703e-08	-1.499142e-10	-4.849768e-01	-1.061547e+01
1.120000e-06	-5.041574e-08	-1.330977e-10	-3.932395e-01	-9.422665e+00
1.130000e-06	-3.862754e-08	-1.164665e-10	-3.012923e-01	-8.215622e+00
1.140000e-06	-2.683170e-08	-1.000451e-10	-2.092855e-01	-7.007650e+00
1.150000e-06	-1.503970e-08	-8.428360e-11	-1.173087e-01	-5.809149e+00
1.160000e-06	-3.244261e-09	-6.784898e-11	-2.530503e-02	-4.623917e+00
1.170000e-06	8.529170e-09	-4.922386e-11	6.652697e-02	-3.448353e+00
1.180000e-06	2.028740e-08	-3.169095e-11	1.582404e-01	-2.273808e+00
1.190000e-06	3.204098e-08	-1.423998e-11	2.499176e-01	-1.091010e+00
1.200000e-06	4.379692e-08	4.279613e-12	3.416132e-01	1.053525e-01
1.210000e-06	5.555446e-08	2.201711e-11	4.333212e-01	1.313844e+00
1.220000e-06	6.730961e-08	4.006753e-11	5.250106e-01	2.526481e+00
1.230000e-06	7.905589e-08	5.869120e-11	6.166309e-01	3.731819e+00
1.240000e-06	9.079211e-08	7.680224e-11	7.081726e-01	4.919576e+00
1.250000e-06	1.025232e-07	9.366719e-11	7.996747e-01	6.084785e+00
1.260000e-06	1.142082e-07	1.106707e-10	8.908167e-01	7.229637e+00
1.270000e-06	1.258593e-07	1.274396e-10	9.816945e-01	8.362152e+00
1.280000e-06	1.374751e-07	1.448890e-10	1.072297e+00	9.492210e+00
1.290000e-06	1.490531e-07	1.616981e-10	1.162605e+00	1.062664e+01
1.300000e-06	1.606213e-07	1.785751e-10	1.252835e+00	1.176554e+01
1.310000e-06	1.721609e-07	1.968770e-10	1.342844e+00	1.290167e+01
1.320000e-06	1.836553e-07	2.140984e-10	1.432500e+00	1.402327e+01
1.330000e-06	1.951171e-07	2.307097e-10	1.521901e+00	1.511950e+01
1.340000e-06	2.065396e-07	2.463394e-10	1.610996e+00	1.618626e+01
1.350000e-06	2.179226e-07	2.612608e-10	1.699782e+00	1.722981e+01
1.360000e-06	2.292756e-07	2.770013e-10	1.788335e+00	1.826652e+01
1.370000e-06	2.405888e-07	2.931653e-10	1.876577e+00	1.931836e+01
1.380000e-06	2.518567e-07	3.086411e-10	1.964466e+00	2.040559e+01
1.390000e-06	2.631013e-07	3.240239e-10	2.052173e+00	2.153926e+01
1.400000e-06	2.743214e-07	3.407240e-10	2.139689e+00	2.271652e+01
1.410000e-06	2.855068e-07	3.580268e-10	2.226935e+00	2.392063e+01
1.420000e-06	2.966888e-07	3.759847e-10	2.314154e+00	2.512604e+01
1.430000e-06	3.078561e-07	3.947714e-10	2.401258e+00	2.630689e+01
1.440000e-06	3.189916e-07	4.126914e-10	2.488114e+00	2.744577e+01
1.450000e-06	3.301058e-07	4.294448e-10	2.574804e+00	2.853975e+01
1.460000e-06	3.412057e-07	4.448374e-10	2.661382e+00	2.960114e+01
1.470000e-06	3.522883e-07	4.592552e-10	2.747826e+00	3.065277e+01
1.480000e-06	3.633060e-07	4.741371e-10	2.833763e+00	3.171942e+01
1.490000e-06	3.742379e-07	4.908122e-10	2.919031e+00	3.281861e+01
1.500000e-06	3.850860e-07	5.078711e-10	3.003646e+00	3.395412e+01
1.510000e-06	3.958265e-07	5.238518e-10	3.087421e+00	3.511468e+01
1.520000e-06	4.064584e-07	5.398374e-10	3.170349e+00	3.627837e+01
1.530000e-06	4.169239e-07	5.550460e-10	3.251979e+00	3.742086e+01
1.540000e-06	4.272478e-07	5.693772e-10	3.332505e+00	3.852446e+01
1.550000e-06	4.374706e-07	5.838451e-10	3.412243e+00	3.958446e+01
1.560000e-06	4.475376e-07	5.991809e-10	3.490764e+00	4.061038e+01
1.570000e-06	4.574593e-07	6.153751e-10	3.568153e+00	4.162164e+01
1.580000e-06	4.672608e-07	6.312584e-10	3.644604e+00	4.263938e+01
1.590000e-06	4.769816e-07	6.466218e-10	3.720426e+00	4.367779e+01
1.600000e-06	4.866448e-07	6.608410e-10	3.795798e+00	4.473808e+01
1.610000e-06	4.962396e-07	6.743126e-10	3.870636e+00	4.580779e+01
1.620000e-06	5.057679e-07	6.896076e-10	3.944957e+00	4.686547e+01
1.630000e-06	5.152402e-07	7.048283e-10	4.018840e+00	4.788913e+01
1.640000e-06	5.246637e-07	7.194407e-10	4.092343e+00	4.886506e+01
1.650000e-06	5.340178e-07	7.347378e-10	4.165304e+00	4.979363e+01
1.660000e-06	5.432581e-07	7.497812e-10	4.237378e+00	5.068973e+01
1.670000e-06	5.523829e-07	7.635181e-10	4.308551e+00	5.157758e+01
1.680000e-06	5.614046e-07	7.765012e-10	4.378920e+00	5.248187e+01
1.690000e-06	5.703226e-07	7.895963e-10	4.448479e+00	5.341850e+01
1.700000e-06	5.791453e-07	8.026829e-10	4.517296e+00	5.438851e+01
1.710000e-06	5.878845e-07	8.160694e-10	4.585461e+00	5.537746e+01
1.720000e-06	5.965413e-07	8.282602e-10	4.652984e+00	5.636053e+01
1.730000e-06	6.051175e-07	8.393251e-10	4.719877e+00	5.731148e+01
1.740000e-06	6.136304e-07	8.518169e-10	4.786277e+00	5.821205e+01
1.750000e-06	6.220212e-07	8.662608e-10	4.851725e+00	5.905838e+01
1.760000e-06	6.302459e-07	8.796231e-10	4.915877e+00	5.986201e+01
1.770000e-06	6.383534e-07	8.917586e-10	4.979115e+00	6.064524e+01
1.780000e-06	6.463743e-07	9.039014e-10	5.041677e+00	6.143263e+01
1.790000e-06	6.543254e-07	9.153780e-10	5.103695e+00	6.224191e+01
1.800000e-06	6.622205e-07	9.262622e-10	5.165277e+00	6.307773e+01
1.810000e-06	6.700768e-07	9.375121e-10	5.226556e+00	6.393048e+01
1.820000e-06	6.778719e-07	9.501270e-10	5.287357e+00	6.478063e+01
1.830000e-06	6.855666e-07	9.650181e-10	5.347375e+00	6.560665e+01
1.840000e-06	6.930936e-07	9.806074e-10	5.406085e+00	6.639346e+01
1.850000e-06	7.004431e-07	9.929208e-10	5.463411e+00	6.713829e+01
1.860000e-06	7.076647e-07	1.001545e-09	5.519739e+00	6.785147e+01
1.870000e-06	7.147384e-07	1.009293e-09	5.574913e+00	6.855219e+01
1.880000e-06	7.216699e-07	1.019148e-09	5.628979e+00	6.926075e+01
1.890000e-06	7.284818e-07	1.031117e-09	5.682111e+00	6.999041e+01
1.900000e-06	7.352385e-07	1.043273e-09	5.734813e+00	7.074205e+01
1.910000e-06	7.419194e-07	1.055946e-09	5.786924e+00	7.150358e+01
1.920000e-06	7.484176e-07	1.069276e-09	5.837608e+00	7.225440e+01
1.930000e-06	7.547728e-07	1.080764e-09	5.887179e+00	7.297318e+01
1.940000e-06	7.609614e-07	1.091246e-09	5.935449e+00	7.364602e+01
1.950000e-06	7.669317e-07	1.102109e-09	5.982018e+00	7.427179e+01
1.960000e-06	7.727426e-07	1.113198e-09	6.027342e+00	7.486270e+01
1.970000e-06	7.784120e-07	1.123753e-09	6.071563e+00	7.543984e+01
1.980000e-06	7.839431e-07	1.133506e-09	6.114706e+00	7.602536e+01
1.990000e-06	7.893331e-07	1.143712e-09	6.156747e+00	7.663415e+01
2.000000e-06	7.945906e-07	1.154511e-09	6.197756e+00	7.726817e+01
2.010000e-06	7.997060e-07	1.165917e-09	6.237655e+00	7.791549e+01
2.020000e-06	8.046579e-07	1.176320e-09	6.276280e+00	7.855435e+01
2.030000e-06	8.094792e-07	1.185579e-09	6.313885e+00	7.916072e+01
2.040000e-06	8.141794e-07	1.194079e-09	6.350547e+00	7.971678e+01
2.050000e-06	8.187458e-07	1.201907e-09	6.386165e+00	8.021696e+01
2.060000e-06	8.231780e-07	1.208053e-09	6.420735e+00	8.066971e+01
2.070000e-06	8.274167e-07	1.213149e-09	6.453797e+00	8.109424e+01
2.080000e-06	8.313715e-07	1.220472e-09	6.484644e+00	8.151361e+01
2.090000e-06	8.350563e-07	1.230239e-09	6.513385e+00	8.194661e+01
2.100000e-06	8.385435e-07	1.240712e-09	6.540585e+00	8.240135e+01
2.110000e-06	8.418701e-07	1.248907e-09	6.566532e+00	8.287281e+01
2.120000e-06	8.450864e-07	1.255019e-09	6.591619e+00	8.334500e+01
2.130000e-06	8.482339e-07	1.261528e-09	6.616170e+00	8.379695e+01
2.140000e-06	8.512738e-07	1.267125e-09	6.639881e+00	8.421013e+01
2.150000e-06	8.541808e-07	1.271966e-09	6.662555e+00	8.457486e+01
2.160000e-06	8.569430e-07	1.278900e-09	6.684100e+00	8.489337e+01
2.170000e-06	8.595425e-07	1.287207e-09	6.704376e+00	8.517866e+01
2.180000e-06	8.620149e-07	1.294673e-09	6.723660e+00	8.544971e+01
2.190000e-06	8.643334e-07	1.299362e-09	6.741744e+00	8.572485e+01
2.200000e-06	8.664873e-07	1.302425e-09	6.758545e+00	8.601567e+01
2.210000e-06	8.684976e-07	1.306413e-09	6.774225e+00	8.632348e+01
2.220000e-06	8.703335e-07	1.310261e-09	6.788545e+00	8.663945e+01
2.230000e-06	8.720297e-07	1.313636e-09	6.801775e+00	8.694812e+01
2.240000e-06	8.736374e-07	1.317332e-09	6.814315e+00	8.723280e+01
2.250000e-06	8.751559e-07	1.322852e-09	6.826160e+00	8.748098e+01
2.260000e-06	8.765933e-07	1.329072e-09	6.837371e+00	8.768784e+01
2.270000e-06	8.779049e-07	1.335766e-09	6.847601e+00	8.785679e+01
2.280000e-06	8.790312e-07	1.340312e-09	6.856387e+00	8.799700e+01
2.290000e-06	8.799126e-07	1.346935e-09	6.863262e+00	8.811923e+01
2.300000e-06	8.805054e-07	1.345124e-09	6.867885e+00	8.823138e+01
2.310000e-06	8.808273e-07	1.334480e-09	6.870396e+00	8.833549e+01
2.320000e-06	8.809501e-07	1.325028e-09	6.871354e+00	8.842728e+01
2.330000e-06	8.809624e-07	1.320670e-09	6.871450e+00	8.849807e+01
2.340000e-06	8.808960e-07	1.327109e-09	6.870932e+00	8.853847e+01
2.350000e-06	8.807329e-07	1.358473e-09	6.869660e+00	8.854221e+01
2.360000e-06	8.804639e-07	1.388504e-09	6.867561e+00	8.850885e+01
2.370000e-06	8.800735e-07	1.361695e-09	6.864516e+00	8.844425e+01
2.380000e-06	8.795058e-07	1.356538e-09	6.860089e+00	8.835876e+01
2.390000e-06	8.787538e-07	1.351067e-09	6.854223e+00	8.826391e+01
2.400000e-06	8.778335e-07	1.339771e-09	6.847044e+00	8.816874e+01
2.410000e-06	8.767462e-07	1.339340e-09	6.838564e+00	8.807719e+01
2.420000e-06	8.755551e-07	1.333508e-09	6.829273e+00	8.798742e+01
2.430000e-06	8.742681e-07	1.334971e-09	6.819234e+00	8.789329e+01
2.440000e-06	8.728384e-07	1.334940e-09	6.808083e+00	8.778732e+01
2.450000e-06	8.712793e-07	1.344981e-09	6.795922e+00	8.766396e+01
2.460000e-06	8.696264e-07	1.344846e-09	6.783029e+00	8.752186e+01
2.470000e-06	8.678765e-07	1.334419e-09	6.769381e+00	8.736432e+01
2.480000e-06	8.659741e-07	1.322941e-09	6.754542e+00	8.719767e+01
2.490000e-06	8.638778e-07	1.331496e-09	6.738191e+00	8.702818e+01
2.500000e-06	8.615987e-07	1.341633e-09	6.720414e+00	8.685879e+01
2.510000e-06	8.591041e-07	1.336689e-09	6.700957e+00	8.668687e+01
2.520000e-06	8.563253e-07	1.326831e-09	6.679282e+00	8.650418e+01
2.530000e-06	8.533285e-07	1.321790e-09	6.655907e+00	8.629897e+01
2.540000e-06	8.501940e-07	1.313278e-09	6.631458e+00	8.605982e+01
2.550000e-06	8.469521e-07	1.312055e-09	6.606172e+00	8.577979e+01
2.560000e-06	8.436176e-07	1.315143e-09	6.580163e+00	8.545933e+01
2.570000e-06	8.401714e-07	1.317846e-09	6.553283e+00	8.510684e+01
2.580000e-06	8.365941e-07	1.315675e-09	6.525380e+00	8.473641e+01
2.590000e-06	8.328622e-07	1.306441e-09	6.496272e+00	8.436351e+01
2.600000e-06	8.289581e-07	1.294636e-09	6.465820e+00	8.399986e+01
2.610000e-06	8.249216e-07	1.285258e-09	6.434335e+00	8.364945e+01
2.620000e-06	8.207371e-07	1.286148e-09	6.401696e+00	8.330700e+01
2.630000e-06	8.164027e-07	1.285993e-09	6.367888e+00	8.295966e+01
2.640000e-06	8.119402e-07	1.282588e-09	6.333081e+00	8.259140e+01
2.650000e-06	8.073311e-07	1.276181e-09	6.297131e+00	8.218857e+01
2.660000e-06	8.025496e-07	1.270777e-09	6.259835e+00	8.174484e+01
2.670000e-06	7.976221e-07	1.263433e-09	6.221400e+00	8.126361e+01
2.680000e-06	7.925467e-07	1.252866e-09	6.181813e+00	8.075697e+01
2.690000e-06	7.872589e-07	1.244112e-09	6.140568e+00	8.024155e+01
2.700000e-06	7.817553e-07	1.240557e-09	6.097640e+00	7.973260e+01
2.710000e-06	7.760143e-07	1.236713e-09	6.052861e+00	7.923834e+01
2.720000e-06	7.700535e-07	1.228817e-09	6.006368e+00	7.875672e+01
2.730000e-06	7.639085e-07	1.217526e-09	5.958437e+00	7.827571e+01
2.740000e-06	7.576116e-07	1.210060e-09	5.909322e+00	7.777705e+01
2.750000e-06	7.512256e-07	1.207953e-09	5.859511e+00	7.724232e+01
2.760000e-06	7.447687e-07	1.202158e-09	5.809147e+00	7.665908e+01
2.770000e-06	7.382313e-07	1.190983e-09	5.758156e+00	7.602498e+01
2.780000e-06	7.315935e-07	1.176591e-09	5.706382e+00	7.534839e+01
2.790000e-06	7.248145e-07	1.166129e-09	5.653506e+00	7.464530e+01
2.800000e-06	7.178907e-07	1.155504e-09	5.599501e+00	7.393380e+01
2.810000e-06	7.108475e-07	1.143278e-09	5.544564e+00	7.322795e+01
2.820000e-06	7.036932e-07	1.130754e-09	5.488761e+00	7.253350e+01
2.830000e-06	6.964226e-07	1.121690e-09	5.432051e+00	7.184675e+01
2.840000e-06	6.890346e-07	1.115528e-09	5.374425e+00	7.115705e+01
2.850000e-06	6.815435e-07	1.103865e-09	5.315996e+00	7.045172e+01
2.860000e-06	6.739303e-07	1.087633e-09	5.256613e+00	6.972153e+01
2.870000e-06	6.662009e-07	1.073921e-09	5.196324e+00	6.896456e+01
2.880000e-06	6.583725e-07	1.064854e-09	5.135263e+00	6.818687e+01
2.890000e-06	6.504370e-07	1.055073e-09	5.073367e+00	6.739989e+01
2.900000e-06	6.424312e-07	1.040089e-09	5.010922e+00	6.661543e+01
2.910000e-06	6.343837e-07	1.025483e-09	4.948152e+00	6.584048e+01
2.920000e-06	6.262852e-07	1.014972e-09	4.884984e+00	6.507382e+01
2.930000e-06	6.181052e-07	1.004556e-09	4.821181e+00	6.430591e+01
2.940000e-06	6.098158e-07	9.908510e-10	4.756524e+00	6.352219e+01
2.950000e-06	6.013910e-07	9.761827e-10	4.690811e+00	6.270857e+01
