# Temperatura_=_20.0
# Concentracion g/m^3_=_10000.0
# C_Vs_to_Am_M_A/Vsm_=_65563218390.804596
# pendiente_HvsI_1/m_=_3716.3
# ordenada_HvsI_A/m_=_1297.0
# frecuencia_Hz_=_212984.5711697575

Tiempo_(s)	Campo_(V.s)	Magnetizacion_(V.s)	Campo_(kA/m)	Magnetizacion_(A/m)
0.000000e+00	-8.796890e-07	-1.344748e-09	-6.861697e+00	-8.878309e+01
1.000000e-08	-8.797976e-07	-1.316352e-09	-6.862544e+00	-8.874863e+01
2.000000e-08	-8.798129e-07	-1.319447e-09	-6.862663e+00	-8.871950e+01
3.000000e-08	-8.796638e-07	-1.338482e-09	-6.861500e+00	-8.870544e+01
4.000000e-08	-8.792727e-07	-1.332597e-09	-6.858450e+00	-8.870514e+01
5.000000e-08	-8.785920e-07	-1.334314e-09	-6.853140e+00	-8.870692e+01
6.000000e-08	-8.776119e-07	-1.338537e-09	-6.845495e+00	-8.869330e+01
7.000000e-08	-8.764439e-07	-1.331509e-09	-6.836384e+00	-8.864748e+01
8.000000e-08	-8.751782e-07	-1.333837e-09	-6.826512e+00	-8.855947e+01
9.000000e-08	-8.737802e-07	-1.335528e-09	-6.815607e+00	-8.842950e+01
1.000000e-07	-8.722756e-07	-1.324767e-09	-6.803871e+00	-8.826749e+01
1.100000e-07	-8.706957e-07	-1.316077e-09	-6.791548e+00	-8.808906e+01
1.200000e-07	-8.690023e-07	-1.321209e-09	-6.778339e+00	-8.790961e+01
1.300000e-07	-8.671610e-07	-1.323370e-09	-6.763977e+00	-8.773879e+01
1.400000e-07	-8.651536e-07	-1.305233e-09	-6.748319e+00	-8.757748e+01
1.500000e-07	-8.630006e-07	-1.291606e-09	-6.731525e+00	-8.741817e+01
1.600000e-07	-8.607083e-07	-1.302138e-09	-6.713645e+00	-8.724834e+01
1.700000e-07	-8.582397e-07	-1.305478e-09	-6.694389e+00	-8.705544e+01
1.800000e-07	-8.555883e-07	-1.296976e-09	-6.673708e+00	-8.683136e+01
1.900000e-07	-8.527818e-07	-1.296564e-09	-6.651817e+00	-8.657478e+01
2.000000e-07	-8.498316e-07	-1.304063e-09	-6.628805e+00	-8.629061e+01
2.100000e-07	-8.467543e-07	-1.300259e-09	-6.604801e+00	-8.598711e+01
2.200000e-07	-8.435960e-07	-1.275890e-09	-6.580166e+00	-8.567202e+01
2.300000e-07	-8.403751e-07	-1.254957e-09	-6.555043e+00	-8.534935e+01
2.400000e-07	-8.370201e-07	-1.255731e-09	-6.528873e+00	-8.501823e+01
2.500000e-07	-8.334766e-07	-1.268761e-09	-6.501234e+00	-8.467400e+01
2.600000e-07	-8.297044e-07	-1.275237e-09	-6.471810e+00	-8.431107e+01
2.700000e-07	-8.256822e-07	-1.261123e-09	-6.440437e+00	-8.392604e+01
2.800000e-07	-8.214358e-07	-1.244952e-09	-6.407314e+00	-8.351983e+01
2.900000e-07	-8.169499e-07	-1.238654e-09	-6.372323e+00	-8.309781e+01
3.000000e-07	-8.123094e-07	-1.235347e-09	-6.336127e+00	-8.266789e+01
3.100000e-07	-8.075790e-07	-1.228026e-09	-6.299228e+00	-8.223750e+01
3.200000e-07	-8.027102e-07	-1.216510e-09	-6.261251e+00	-8.181059e+01
3.300000e-07	-7.976639e-07	-1.213643e-09	-6.221890e+00	-8.138605e+01
3.400000e-07	-7.924424e-07	-1.212418e-09	-6.181161e+00	-8.095804e+01
3.500000e-07	-7.870910e-07	-1.206579e-09	-6.139419e+00	-8.051798e+01
3.600000e-07	-7.815955e-07	-1.193190e-09	-6.096554e+00	-8.005753e+01
3.700000e-07	-7.759472e-07	-1.178864e-09	-6.052497e+00	-7.957103e+01
3.800000e-07	-7.701385e-07	-1.174529e-09	-6.007188e+00	-7.905680e+01
3.900000e-07	-7.641541e-07	-1.172681e-09	-5.960508e+00	-7.851658e+01
4.000000e-07	-7.579985e-07	-1.163889e-09	-5.912494e+00	-7.795382e+01
4.100000e-07	-7.516558e-07	-1.146321e-09	-5.863020e+00	-7.737153e+01
4.200000e-07	-7.451149e-07	-1.133281e-09	-5.812000e+00	-7.677082e+01
4.300000e-07	-7.384125e-07	-1.131522e-09	-5.759720e+00	-7.615071e+01
4.400000e-07	-7.316008e-07	-1.127002e-09	-5.706588e+00	-7.550927e+01
4.500000e-07	-7.247004e-07	-1.114751e-09	-5.652764e+00	-7.484553e+01
4.600000e-07	-7.177037e-07	-1.100521e-09	-5.598189e+00	-7.416113e+01
4.700000e-07	-7.105925e-07	-1.093294e-09	-5.542720e+00	-7.346093e+01
4.800000e-07	-7.033663e-07	-1.086638e-09	-5.486355e+00	-7.275221e+01
4.900000e-07	-6.960131e-07	-1.068063e-09	-5.428999e+00	-7.204264e+01
5.000000e-07	-6.885078e-07	-1.049051e-09	-5.370457e+00	-7.133796e+01
5.100000e-07	-6.808462e-07	-1.039638e-09	-5.310695e+00	-7.064015e+01
5.200000e-07	-6.730654e-07	-1.037086e-09	-5.250004e+00	-6.994702e+01
5.300000e-07	-6.652082e-07	-1.027066e-09	-5.188716e+00	-6.925314e+01
5.400000e-07	-6.572923e-07	-1.008427e-09	-5.126972e+00	-6.855184e+01
5.500000e-07	-6.493248e-07	-9.953306e-10	-5.064824e+00	-6.783733e+01
5.600000e-07	-6.412961e-07	-9.881710e-10	-5.002199e+00	-6.710601e+01
5.700000e-07	-6.331901e-07	-9.790244e-10	-4.938971e+00	-6.635661e+01
5.800000e-07	-6.249910e-07	-9.635805e-10	-4.875017e+00	-6.558914e+01
5.900000e-07	-6.166594e-07	-9.485916e-10	-4.810029e+00	-6.480336e+01
6.000000e-07	-6.082014e-07	-9.394288e-10	-4.744056e+00	-6.399769e+01
6.100000e-07	-5.996504e-07	-9.305892e-10	-4.677357e+00	-6.316905e+01
6.200000e-07	-5.909919e-07	-9.161202e-10	-4.609819e+00	-6.231407e+01
6.300000e-07	-5.822072e-07	-8.960674e-10	-4.541297e+00	-6.143098e+01
6.400000e-07	-5.733247e-07	-8.805635e-10	-4.472012e+00	-6.052130e+01
6.500000e-07	-5.643500e-07	-8.706683e-10	-4.402009e+00	-5.959056e+01
6.600000e-07	-5.552894e-07	-8.567582e-10	-4.331334e+00	-5.864726e+01
6.700000e-07	-5.461242e-07	-8.372801e-10	-4.259845e+00	-5.770053e+01
6.800000e-07	-5.368291e-07	-8.192788e-10	-4.187342e+00	-5.675711e+01
6.900000e-07	-5.274383e-07	-8.078278e-10	-4.114093e+00	-5.581892e+01
7.000000e-07	-5.179851e-07	-7.965594e-10	-4.040356e+00	-5.488247e+01
7.100000e-07	-5.084687e-07	-7.794900e-10	-3.966127e+00	-5.394015e+01
7.200000e-07	-4.989009e-07	-7.629426e-10	-3.891496e+00	-5.298344e+01
7.300000e-07	-4.892997e-07	-7.517147e-10	-3.816606e+00	-5.200648e+01
7.400000e-07	-4.796456e-07	-7.419991e-10	-3.741302e+00	-5.100877e+01
7.500000e-07	-4.699040e-07	-7.243668e-10	-3.665317e+00	-4.999574e+01
7.600000e-07	-4.600433e-07	-7.019754e-10	-3.588402e+00	-4.897689e+01
7.700000e-07	-4.500717e-07	-6.856943e-10	-3.510622e+00	-4.796204e+01
7.800000e-07	-4.399648e-07	-6.735850e-10	-3.431787e+00	-4.695720e+01
7.900000e-07	-4.297037e-07	-6.604068e-10	-3.351749e+00	-4.596168e+01
8.000000e-07	-4.193026e-07	-6.447943e-10	-3.270618e+00	-4.496775e+01
8.100000e-07	-4.087729e-07	-6.306083e-10	-3.188486e+00	-4.396305e+01
8.200000e-07	-3.981343e-07	-6.182915e-10	-3.105503e+00	-4.293505e+01
8.300000e-07	-3.874037e-07	-6.034385e-10	-3.021803e+00	-4.187590e+01
8.400000e-07	-3.765910e-07	-5.842712e-10	-2.937462e+00	-4.078578e+01
8.500000e-07	-3.656922e-07	-5.641064e-10	-2.852450e+00	-3.967352e+01
8.600000e-07	-3.547324e-07	-5.476814e-10	-2.766962e+00	-3.855402e+01
8.700000e-07	-3.437234e-07	-5.342378e-10	-2.681090e+00	-3.744352e+01
8.800000e-07	-3.326608e-07	-5.207942e-10	-2.594801e+00	-3.635423e+01
8.900000e-07	-3.215689e-07	-5.061769e-10	-2.508282e+00	-3.529044e+01
9.000000e-07	-3.104520e-07	-4.908601e-10	-2.421569e+00	-3.424733e+01
9.100000e-07	-2.993102e-07	-4.772394e-10	-2.334661e+00	-3.321295e+01
9.200000e-07	-2.881537e-07	-4.618029e-10	-2.247639e+00	-3.217253e+01
9.300000e-07	-2.769734e-07	-4.449483e-10	-2.160431e+00	-3.111349e+01
9.400000e-07	-2.657611e-07	-4.283946e-10	-2.072974e+00	-3.002930e+01
9.500000e-07	-2.545303e-07	-4.115407e-10	-1.985372e+00	-2.892103e+01
9.600000e-07	-2.432749e-07	-3.942247e-10	-1.897578e+00	-2.779604e+01
9.700000e-07	-2.319605e-07	-3.777703e-10	-1.809324e+00	-2.666471e+01
9.800000e-07	-2.206067e-07	-3.644023e-10	-1.720763e+00	-2.553652e+01
9.900000e-07	-2.092249e-07	-3.512442e-10	-1.631983e+00	-2.441698e+01
1.000000e-06	-1.977969e-07	-3.362338e-10	-1.542843e+00	-2.330652e+01
1.010000e-06	-1.863134e-07	-3.197593e-10	-1.453270e+00	-2.220143e+01
1.020000e-06	-1.747454e-07	-3.023263e-10	-1.363039e+00	-2.109624e+01
1.030000e-06	-1.631608e-07	-2.852548e-10	-1.272677e+00	-1.998632e+01
1.040000e-06	-1.515611e-07	-2.692218e-10	-1.182198e+00	-1.886961e+01
1.050000e-06	-1.399239e-07	-2.532528e-10	-1.091426e+00	-1.774684e+01
1.060000e-06	-1.282822e-07	-2.378806e-10	-1.000619e+00	-1.662031e+01
1.070000e-06	-1.166013e-07	-2.225483e-10	-9.095063e-01	-1.549207e+01
1.080000e-06	-1.048818e-07	-2.070350e-10	-8.180925e-01	-1.436242e+01
1.090000e-06	-9.312980e-08	-1.896373e-10	-7.264254e-01	-1.322952e+01
1.100000e-06	-8.138571e-08	-1.701679e-10	-6.348199e-01	-1.209024e+01
1.110000e-06	-6.963103e-08	-1.524423e-10	-5.431317e-01	-1.094179e+01
1.120000e-06	-5.785241e-08	-1.370220e-10	-4.512568e-01	-9.783331e+00
1.130000e-06	-4.607905e-08	-1.220779e-10	-3.594230e-01	-8.616596e+00
1.140000e-06	-3.430003e-08	-1.050915e-10	-2.675450e-01	-7.445188e+00
1.150000e-06	-2.251763e-08	-8.760508e-11	-1.756407e-01	-6.272829e+00
1.160000e-06	-1.073994e-08	-7.237895e-11	-8.377300e-02	-5.101382e+00
1.170000e-06	1.027905e-09	-5.783734e-11	8.017801e-03	-3.929642e+00
1.180000e-06	1.280963e-08	-4.107472e-11	9.991690e-02	-2.753647e+00
1.190000e-06	2.459751e-08	-2.197132e-11	1.918640e-01	-1.568535e+00
1.200000e-06	3.637607e-08	-4.607848e-12	2.837384e-01	-3.712349e-01
1.210000e-06	4.815524e-08	1.205552e-11	3.756176e-01	8.371730e-01
1.220000e-06	5.992782e-08	2.956935e-11	4.674453e-01	2.050621e+00
1.230000e-06	7.167023e-08	4.875750e-11	5.590378e-01	3.259308e+00
1.240000e-06	8.340011e-08	6.794515e-11	6.505325e-01	4.452759e+00
1.250000e-06	9.512372e-08	8.524409e-11	7.419783e-01	5.623551e+00
1.260000e-06	1.068241e-07	1.024259e-10	8.332426e-01	6.770169e+00
1.270000e-06	1.185082e-07	1.194491e-10	9.243808e-01	7.897687e+00
1.280000e-06	1.301615e-07	1.352867e-10	1.015278e+00	9.015821e+00
1.290000e-06	1.417561e-07	1.507422e-10	1.105717e+00	1.013496e+01
1.300000e-06	1.533348e-07	1.668309e-10	1.196033e+00	1.126173e+01
1.310000e-06	1.649224e-07	1.833853e-10	1.286418e+00	1.239595e+01
1.320000e-06	1.764872e-07	1.999050e-10	1.376624e+00	1.353038e+01
1.330000e-06	1.880062e-07	2.171717e-10	1.466475e+00	1.465356e+01
1.340000e-06	1.994902e-07	2.343425e-10	1.556051e+00	1.575490e+01
1.350000e-06	2.109321e-07	2.514720e-10	1.645299e+00	1.682985e+01
1.360000e-06	2.223271e-07	2.685428e-10	1.734182e+00	1.788321e+01
1.370000e-06	2.336696e-07	2.837155e-10	1.822655e+00	1.892888e+01
1.380000e-06	2.449721e-07	2.980017e-10	1.910817e+00	1.998588e+01
1.390000e-06	2.562380e-07	3.139178e-10	1.998692e+00	2.107201e+01
1.400000e-06	2.674623e-07	3.306463e-10	2.086243e+00	2.219732e+01
1.410000e-06	2.786755e-07	3.460085e-10	2.173708e+00	2.336007e+01
1.420000e-06	2.898596e-07	3.629369e-10	2.260946e+00	2.454674e+01
1.430000e-06	3.010121e-07	3.819448e-10	2.347936e+00	2.573639e+01
1.440000e-06	3.121573e-07	4.018821e-10	2.434870e+00	2.690772e+01
1.450000e-06	3.232950e-07	4.202348e-10	2.521746e+00	2.804637e+01
1.460000e-06	3.344109e-07	4.348829e-10	2.608451e+00	2.914965e+01
1.470000e-06	3.454891e-07	4.489102e-10	2.694863e+00	3.022683e+01
1.480000e-06	3.565232e-07	4.653341e-10	2.780930e+00	3.129501e+01
1.490000e-06	3.675188e-07	4.828593e-10	2.866698e+00	3.237199e+01
1.500000e-06	3.784402e-07	4.974956e-10	2.951886e+00	3.346904e+01
1.510000e-06	3.892651e-07	5.108976e-10	3.036322e+00	3.458631e+01
1.520000e-06	3.999987e-07	5.277361e-10	3.120045e+00	3.571269e+01
1.530000e-06	4.105817e-07	5.459505e-10	3.202594e+00	3.683024e+01
1.540000e-06	4.209896e-07	5.613085e-10	3.283778e+00	3.792130e+01
1.550000e-06	4.312726e-07	5.758256e-10	3.363986e+00	3.897558e+01
1.560000e-06	4.414125e-07	5.917095e-10	3.443079e+00	3.999437e+01
1.570000e-06	4.513826e-07	6.079166e-10	3.520847e+00	4.099007e+01
1.580000e-06	4.612379e-07	6.220737e-10	3.597720e+00	4.198135e+01
1.590000e-06	4.710262e-07	6.344558e-10	3.674070e+00	4.298573e+01
1.600000e-06	4.807289e-07	6.486646e-10	3.749752e+00	4.401249e+01
1.610000e-06	4.903441e-07	6.634682e-10	3.824753e+00	4.505882e+01
1.620000e-06	4.999085e-07	6.785551e-10	3.899356e+00	4.611073e+01
1.630000e-06	5.094353e-07	6.934495e-10	3.973666e+00	4.714833e+01
1.640000e-06	5.189151e-07	7.081957e-10	4.047610e+00	4.815349e+01
1.650000e-06	5.283330e-07	7.236886e-10	4.121071e+00	4.911686e+01
1.660000e-06	5.376650e-07	7.388189e-10	4.193862e+00	5.004148e+01
1.670000e-06	5.468617e-07	7.534147e-10	4.265597e+00	5.094160e+01
1.680000e-06	5.559417e-07	7.675966e-10	4.336423e+00	5.183719e+01
1.690000e-06	5.649388e-07	7.817835e-10	4.406602e+00	5.274632e+01
1.700000e-06	5.738303e-07	7.955314e-10	4.475957e+00	5.367843e+01
1.710000e-06	5.826313e-07	8.076803e-10	4.544605e+00	5.463101e+01
1.720000e-06	5.913519e-07	8.194971e-10	4.612627e+00	5.559112e+01
1.730000e-06	5.999790e-07	8.329435e-10	4.679920e+00	5.654080e+01
1.740000e-06	6.085169e-07	8.478200e-10	4.746517e+00	5.746436e+01
1.750000e-06	6.169522e-07	8.628808e-10	4.812313e+00	5.835447e+01
1.760000e-06	6.252827e-07	8.759672e-10	4.877292e+00	5.921472e+01
1.770000e-06	6.335127e-07	8.880536e-10	4.941487e+00	6.005765e+01
1.780000e-06	6.416067e-07	9.010567e-10	5.004622e+00	6.089922e+01
1.790000e-06	6.496054e-07	9.142680e-10	5.067013e+00	6.175195e+01
1.800000e-06	6.575580e-07	9.266663e-10	5.129044e+00	6.261959e+01
1.810000e-06	6.654642e-07	9.386126e-10	5.190714e+00	6.349549e+01
1.820000e-06	6.733146e-07	9.511462e-10	5.251948e+00	6.436522e+01
1.830000e-06	6.810401e-07	9.650984e-10	5.312207e+00	6.521236e+01
1.840000e-06	6.886183e-07	9.804918e-10	5.371318e+00	6.602492e+01
1.850000e-06	6.960671e-07	9.943937e-10	5.429421e+00	6.679998e+01
1.860000e-06	7.033501e-07	1.005791e-09	5.486229e+00	6.754439e+01
1.870000e-06	7.104555e-07	1.016473e-09	5.541652e+00	6.827157e+01
1.880000e-06	7.174394e-07	1.026374e-09	5.596128e+00	6.899568e+01
1.890000e-06	7.243348e-07	1.036204e-09	5.649913e+00	6.972564e+01
1.900000e-06	7.311373e-07	1.047295e-09	5.702973e+00	7.046171e+01
1.910000e-06	7.378522e-07	1.059407e-09	5.755350e+00	7.119582e+01
1.920000e-06	7.444705e-07	1.072018e-09	5.806974e+00	7.191567e+01
1.930000e-06	7.509374e-07	1.084098e-09	5.857417e+00	7.261082e+01
1.940000e-06	7.572367e-07	1.093598e-09	5.906552e+00	7.327798e+01
1.950000e-06	7.633467e-07	1.103118e-09	5.954211e+00	7.392333e+01
1.960000e-06	7.692560e-07	1.114829e-09	6.000304e+00	7.456054e+01
1.970000e-06	7.750183e-07	1.126552e-09	6.045251e+00	7.520530e+01
1.980000e-06	7.806213e-07	1.137000e-09	6.088955e+00	7.586839e+01
1.990000e-06	7.860898e-07	1.146968e-09	6.131610e+00	7.655027e+01
2.000000e-06	7.914562e-07	1.157853e-09	6.173469e+00	7.723942e+01
2.010000e-06	7.966753e-07	1.168608e-09	6.214179e+00	7.791545e+01
2.020000e-06	8.017223e-07	1.178216e-09	6.253546e+00	7.855593e+01
2.030000e-06	8.066210e-07	1.186798e-09	6.291757e+00	7.914436e+01
2.040000e-06	8.114138e-07	1.196099e-09	6.329141e+00	7.967637e+01
2.050000e-06	8.161001e-07	1.205084e-09	6.365694e+00	8.016147e+01
2.060000e-06	8.206477e-07	1.211995e-09	6.401167e+00	8.061981e+01
2.070000e-06	8.250286e-07	1.216983e-09	6.435338e+00	8.107486e+01
2.080000e-06	8.291683e-07	1.222253e-09	6.467628e+00	8.154500e+01
2.090000e-06	8.330294e-07	1.230119e-09	6.497746e+00	8.203689e+01
2.100000e-06	8.366479e-07	1.240643e-09	6.525970e+00	8.254339e+01
2.110000e-06	8.400503e-07	1.251904e-09	6.552509e+00	8.304656e+01
2.120000e-06	8.433113e-07	1.260790e-09	6.577946e+00	8.352462e+01
2.130000e-06	8.464934e-07	1.267835e-09	6.602766e+00	8.396013e+01
2.140000e-06	8.496012e-07	1.274058e-09	6.627008e+00	8.434635e+01
2.150000e-06	8.526033e-07	1.278640e-09	6.650425e+00	8.468930e+01
2.160000e-06	8.554368e-07	1.282902e-09	6.672527e+00	8.500504e+01
2.170000e-06	8.581261e-07	1.288477e-09	6.693503e+00	8.531328e+01
2.180000e-06	8.606823e-07	1.294920e-09	6.713442e+00	8.562990e+01
2.190000e-06	8.630885e-07	1.301765e-09	6.732211e+00	8.596145e+01
2.200000e-06	8.653622e-07	1.307563e-09	6.749945e+00	8.630345e+01
2.210000e-06	8.674662e-07	1.311737e-09	6.766357e+00	8.664311e+01
2.220000e-06	8.693876e-07	1.315720e-09	6.781344e+00	8.696502e+01
2.230000e-06	8.711555e-07	1.319369e-09	6.795135e+00	8.725750e+01
2.240000e-06	8.728027e-07	1.322728e-09	6.807983e+00	8.751678e+01
2.250000e-06	8.743673e-07	1.326102e-09	6.820187e+00	8.774767e+01
2.260000e-06	8.758444e-07	1.330781e-09	6.831708e+00	8.796023e+01
2.270000e-06	8.772158e-07	1.337738e-09	6.842405e+00	8.816435e+01
2.280000e-06	8.784232e-07	1.346834e-09	6.851823e+00	8.836437e+01
2.290000e-06	8.793903e-07	1.352365e-09	6.859367e+00	8.855621e+01
2.300000e-06	8.801068e-07	1.351630e-09	6.864956e+00	8.872829e+01
2.310000e-06	8.805754e-07	1.343761e-09	6.868611e+00	8.886593e+01
2.320000e-06	8.808307e-07	1.332461e-09	6.870603e+00	8.895744e+01
2.330000e-06	8.809394e-07	1.321654e-09	6.871450e+00	8.899937e+01
2.340000e-06	8.809354e-07	1.331435e-09	6.871419e+00	8.899880e+01
2.350000e-06	8.808285e-07	1.365254e-09	6.870585e+00	8.897156e+01
2.360000e-06	8.806458e-07	1.381787e-09	6.869160e+00	8.893694e+01
2.370000e-06	8.803522e-07	1.373014e-09	6.866870e+00	8.891100e+01
2.380000e-06	8.798888e-07	1.353848e-09	6.863256e+00	8.890089e+01
2.390000e-06	8.792464e-07	1.356130e-09	6.858244e+00	8.890247e+01
2.400000e-06	8.784272e-07	1.355580e-09	6.851855e+00	8.890207e+01
2.410000e-06	8.774510e-07	1.349758e-09	6.844240e+00	8.888173e+01
2.420000e-06	8.763420e-07	1.345428e-09	6.835590e+00	8.882586e+01
2.430000e-06	8.751216e-07	1.340362e-09	6.826071e+00	8.872686e+01
2.440000e-06	8.737865e-07	1.347217e-09	6.815656e+00	8.858757e+01
2.450000e-06	8.723268e-07	1.352953e-09	6.804270e+00	8.841983e+01
2.460000e-06	8.707435e-07	1.354196e-09	6.791920e+00	8.823978e+01
2.470000e-06	8.690555e-07	1.341599e-09	6.778754e+00	8.806183e+01
2.480000e-06	8.672725e-07	1.332876e-09	6.764846e+00	8.789360e+01
2.490000e-06	8.653371e-07	1.337593e-09	6.749750e+00	8.773371e+01
2.500000e-06	8.631876e-07	1.345660e-09	6.732983e+00	8.757296e+01
2.510000e-06	8.608071e-07	1.344557e-09	6.714416e+00	8.739837e+01
2.520000e-06	8.581414e-07	1.337609e-09	6.693623e+00	8.719812e+01
2.530000e-06	8.552140e-07	1.329720e-09	6.670788e+00	8.696571e+01
2.540000e-06	8.521579e-07	1.322247e-09	6.646950e+00	8.670151e+01
2.550000e-06	8.489925e-07	1.317164e-09	6.622260e+00	8.641162e+01
2.560000e-06	8.457180e-07	1.319130e-09	6.596718e+00	8.610454e+01
2.570000e-06	8.423488e-07	1.321678e-09	6.570438e+00	8.578729e+01
2.580000e-06	8.388397e-07	1.322157e-09	6.543067e+00	8.546271e+01
2.590000e-06	8.351914e-07	1.315713e-09	6.514609e+00	8.512878e+01
2.600000e-06	8.314148e-07	1.302870e-09	6.485151e+00	8.478030e+01
2.610000e-06	8.274850e-07	1.292194e-09	6.454498e+00	8.441195e+01
2.620000e-06	8.234034e-07	1.288707e-09	6.422662e+00	8.402129e+01
2.630000e-06	8.191920e-07	1.290308e-09	6.389812e+00	8.361041e+01
2.640000e-06	8.148350e-07	1.285908e-09	6.355827e+00	8.318558e+01
2.650000e-06	8.103051e-07	1.279335e-09	6.320493e+00	8.275487e+01
2.660000e-06	8.056190e-07	1.273158e-09	6.283940e+00	8.232509e+01
2.670000e-06	8.007996e-07	1.266590e-09	6.246348e+00	8.189902e+01
2.680000e-06	7.958114e-07	1.258791e-09	6.207440e+00	8.147425e+01
2.690000e-06	7.906144e-07	1.250835e-09	6.166902e+00	8.104401e+01
2.700000e-06	7.852627e-07	1.247217e-09	6.125159e+00	8.059950e+01
2.710000e-06	7.797019e-07	1.245513e-09	6.081783e+00	8.013285e+01
2.720000e-06	7.738736e-07	1.239740e-09	6.036322e+00	7.963937e+01
2.730000e-06	7.678527e-07	1.229806e-09	5.989358e+00	7.911831e+01
2.740000e-06	7.616416e-07	1.219051e-09	5.940911e+00	7.857204e+01
2.750000e-06	7.552902e-07	1.214185e-09	5.891369e+00	7.800411e+01
2.760000e-06	7.488675e-07	1.211117e-09	5.841271e+00	7.741714e+01
2.770000e-06	7.423738e-07	1.201630e-09	5.790619e+00	7.681167e+01
2.780000e-06	7.358082e-07	1.188797e-09	5.739406e+00	7.618634e+01
2.790000e-06	7.291509e-07	1.176785e-09	5.687478e+00	7.553928e+01
2.800000e-06	7.223437e-07	1.167579e-09	5.634382e+00	7.487002e+01
2.810000e-06	7.153686e-07	1.156847e-09	5.579975e+00	7.418103e+01
2.820000e-06	7.082630e-07	1.145287e-09	5.524550e+00	7.347790e+01
2.830000e-06	7.010474e-07	1.135868e-09	5.468268e+00	7.276822e+01
2.840000e-06	6.937459e-07	1.128435e-09	5.411315e+00	7.205940e+01
2.850000e-06	6.863465e-07	1.119838e-09	5.353599e+00	7.135635e+01
2.860000e-06	6.788072e-07	1.106257e-09	5.294791e+00	7.066001e+01
2.870000e-06	6.711350e-07	1.093590e-09	5.234947e+00	6.996721e+01
2.880000e-06	6.633391e-07	1.085975e-09	5.174137e+00	6.927204e+01
2.890000e-06	6.554438e-07	1.078644e-09	5.112553e+00	6.856784e+01
2.900000e-06	6.474836e-07	1.065656e-09	5.050462e+00	6.784930e+01
2.910000e-06	6.394728e-07	1.049550e-09	4.987977e+00	6.711345e+01
2.920000e-06	6.314227e-07	1.035787e-09	4.925185e+00	6.635945e+01
2.930000e-06	6.233164e-07	1.023378e-09	4.861955e+00	6.558739e+01
2.940000e-06	6.150963e-07	1.011659e-09	4.797837e+00	6.479679e+01
2.950000e-06	6.067174e-07	9.994746e-10	4.732480e+00	6.398564e+01
