# Temperatura_=_20.0
# Concentracion g/m^3_=_10000.0
# C_Vs_to_Am_M_A/Vsm_=_65563218390.804596
# pendiente_HvsI_1/m_=_3716.3
# ordenada_HvsI_A/m_=_1297.0
# frecuencia_Hz_=_212983.25795159652

Tiempo_(s)	Campo_(V.s)	Magnetizacion_(V.s)	Campo_(kA/m)	Magnetizacion_(A/m)
0.000000e+00	-8.802952e-07	-1.311073e-09	-6.862193e+00	-8.719636e+01
1.000000e-08	-8.803585e-07	-1.301372e-09	-6.862686e+00	-8.716334e+01
2.000000e-08	-8.802882e-07	-1.320785e-09	-6.862139e+00	-8.713593e+01
3.000000e-08	-8.800580e-07	-1.331109e-09	-6.860344e+00	-8.712522e+01
4.000000e-08	-8.796358e-07	-1.320668e-09	-6.857053e+00	-8.713026e+01
5.000000e-08	-8.789611e-07	-1.324352e-09	-6.851793e+00	-8.713812e+01
6.000000e-08	-8.780335e-07	-1.320497e-09	-6.844563e+00	-8.712850e+01
7.000000e-08	-8.769113e-07	-1.313941e-09	-6.835815e+00	-8.708103e+01
8.000000e-08	-8.756471e-07	-1.317314e-09	-6.825960e+00	-8.698284e+01
9.000000e-08	-8.742482e-07	-1.315040e-09	-6.815055e+00	-8.683348e+01
1.000000e-07	-8.727175e-07	-1.307037e-09	-6.803123e+00	-8.664550e+01
1.100000e-07	-8.710936e-07	-1.308799e-09	-6.790464e+00	-8.644042e+01
1.200000e-07	-8.693661e-07	-1.315038e-09	-6.776998e+00	-8.624151e+01
1.300000e-07	-8.674973e-07	-1.303587e-09	-6.762429e+00	-8.606598e+01
1.400000e-07	-8.654491e-07	-1.281446e-09	-6.746463e+00	-8.591925e+01
1.500000e-07	-8.632511e-07	-1.281594e-09	-6.729329e+00	-8.579330e+01
1.600000e-07	-8.609072e-07	-1.294941e-09	-6.711058e+00	-8.566943e+01
1.700000e-07	-8.584181e-07	-1.288514e-09	-6.691654e+00	-8.552456e+01
1.800000e-07	-8.557791e-07	-1.281613e-09	-6.671082e+00	-8.533856e+01
1.900000e-07	-8.529551e-07	-1.287576e-09	-6.649068e+00	-8.510030e+01
2.000000e-07	-8.499652e-07	-1.292345e-09	-6.625761e+00	-8.481039e+01
2.100000e-07	-8.468533e-07	-1.276336e-09	-6.601503e+00	-8.447990e+01
2.200000e-07	-8.436605e-07	-1.249467e-09	-6.576613e+00	-8.412588e+01
2.300000e-07	-8.403883e-07	-1.239293e-09	-6.551106e+00	-8.376538e+01
2.400000e-07	-8.369944e-07	-1.245415e-09	-6.524649e+00	-8.341007e+01
2.500000e-07	-8.334162e-07	-1.255485e-09	-6.496756e+00	-8.306330e+01
2.600000e-07	-8.296131e-07	-1.253413e-09	-6.467109e+00	-8.272024e+01
2.700000e-07	-8.255637e-07	-1.235634e-09	-6.435543e+00	-8.237081e+01
2.800000e-07	-8.213080e-07	-1.225267e-09	-6.402369e+00	-8.200394e+01
2.900000e-07	-8.168381e-07	-1.222863e-09	-6.367524e+00	-8.161169e+01
3.000000e-07	-8.121618e-07	-1.222223e-09	-6.331071e+00	-8.119169e+01
3.100000e-07	-8.073516e-07	-1.211632e-09	-6.293574e+00	-8.074730e+01
3.200000e-07	-8.024015e-07	-1.197841e-09	-6.254986e+00	-8.028578e+01
3.300000e-07	-7.973018e-07	-1.196689e-09	-6.215232e+00	-7.981524e+01
3.400000e-07	-7.920547e-07	-1.194434e-09	-6.174329e+00	-7.934173e+01
3.500000e-07	-7.866609e-07	-1.185646e-09	-6.132283e+00	-7.886736e+01
3.600000e-07	-7.811421e-07	-1.169286e-09	-6.089262e+00	-7.839006e+01
3.700000e-07	-7.754910e-07	-1.162146e-09	-6.045210e+00	-7.790475e+01
3.800000e-07	-7.696763e-07	-1.165854e-09	-5.999882e+00	-7.740529e+01
3.900000e-07	-7.636771e-07	-1.162107e-09	-5.953117e+00	-7.688643e+01
4.000000e-07	-7.574760e-07	-1.147032e-09	-5.904777e+00	-7.634506e+01
4.100000e-07	-7.510504e-07	-1.127028e-09	-5.854687e+00	-7.578041e+01
4.200000e-07	-7.444300e-07	-1.117714e-09	-5.803079e+00	-7.519351e+01
4.300000e-07	-7.376931e-07	-1.115706e-09	-5.750563e+00	-7.458612e+01
4.400000e-07	-7.308485e-07	-1.107988e-09	-5.697207e+00	-7.395986e+01
4.500000e-07	-7.238857e-07	-1.096308e-09	-5.642929e+00	-7.331578e+01
4.600000e-07	-7.168199e-07	-1.084877e-09	-5.587849e+00	-7.265448e+01
4.700000e-07	-7.096911e-07	-1.080060e-09	-5.532278e+00	-7.197665e+01
4.800000e-07	-7.024731e-07	-1.069501e-09	-5.476011e+00	-7.128354e+01
4.900000e-07	-6.950955e-07	-1.048669e-09	-5.418500e+00	-7.057721e+01
5.000000e-07	-6.875939e-07	-1.033951e-09	-5.360023e+00	-6.986025e+01
5.100000e-07	-6.799668e-07	-1.027854e-09	-5.300567e+00	-6.913506e+01
5.200000e-07	-6.721736e-07	-1.023285e-09	-5.239816e+00	-6.840312e+01
5.300000e-07	-6.642576e-07	-1.007146e-09	-5.178109e+00	-6.766429e+01
5.400000e-07	-6.562709e-07	-9.878596e-10	-5.115850e+00	-6.691672e+01
5.500000e-07	-6.482263e-07	-9.780799e-10	-5.053139e+00	-6.615724e+01
5.600000e-07	-6.401405e-07	-9.718124e-10	-4.990107e+00	-6.538225e+01
5.700000e-07	-6.319862e-07	-9.602933e-10	-4.926542e+00	-6.458869e+01
5.800000e-07	-6.237130e-07	-9.419156e-10	-4.862050e+00	-6.377501e+01
5.900000e-07	-6.153372e-07	-9.289093e-10	-4.796758e+00	-6.294158e+01
6.000000e-07	-6.068733e-07	-9.214840e-10	-4.730779e+00	-6.209059e+01
6.100000e-07	-5.982929e-07	-9.092367e-10	-4.663892e+00	-6.122545e+01
6.200000e-07	-5.895955e-07	-8.907867e-10	-4.596093e+00	-6.034982e+01
6.300000e-07	-5.808140e-07	-8.717214e-10	-4.527638e+00	-5.946662e+01
6.400000e-07	-5.719293e-07	-8.604338e-10	-4.458379e+00	-5.857720e+01
6.500000e-07	-5.629061e-07	-8.514412e-10	-4.388040e+00	-5.768098e+01
6.600000e-07	-5.537897e-07	-8.368160e-10	-4.316975e+00	-5.677565e+01
6.700000e-07	-5.445973e-07	-8.192847e-10	-4.245317e+00	-5.585790e+01
6.800000e-07	-5.352746e-07	-8.039336e-10	-4.172643e+00	-5.492454e+01
6.900000e-07	-5.258323e-07	-7.935406e-10	-4.099037e+00	-5.397372e+01
7.000000e-07	-5.163168e-07	-7.790903e-10	-4.024861e+00	-5.300605e+01
7.100000e-07	-5.067417e-07	-7.600181e-10	-3.950220e+00	-5.202501e+01
7.200000e-07	-4.971218e-07	-7.446169e-10	-3.875230e+00	-5.103666e+01
7.300000e-07	-4.874516e-07	-7.329507e-10	-3.799847e+00	-5.004855e+01
7.400000e-07	-4.777410e-07	-7.211507e-10	-3.724150e+00	-4.906788e+01
7.500000e-07	-4.679747e-07	-7.027464e-10	-3.648018e+00	-4.809952e+01
7.600000e-07	-4.581420e-07	-6.832343e-10	-3.571369e+00	-4.714440e+01
7.700000e-07	-4.482336e-07	-6.680132e-10	-3.494130e+00	-4.619879e+01
7.800000e-07	-4.381882e-07	-6.552488e-10	-3.415822e+00	-4.525487e+01
7.900000e-07	-4.280084e-07	-6.419979e-10	-3.336468e+00	-4.430254e+01
8.000000e-07	-4.177214e-07	-6.264937e-10	-3.256277e+00	-4.333212e+01
8.100000e-07	-4.072951e-07	-6.132686e-10	-3.175000e+00	-4.233710e+01
8.200000e-07	-3.967132e-07	-6.001661e-10	-3.092511e+00	-4.131619e+01
8.300000e-07	-3.860055e-07	-5.840538e-10	-3.009041e+00	-4.027391e+01
8.400000e-07	-3.752082e-07	-5.648602e-10	-2.924873e+00	-3.921952e+01
8.500000e-07	-3.643342e-07	-5.465119e-10	-2.840106e+00	-3.816442e+01
8.600000e-07	-3.533647e-07	-5.328706e-10	-2.754595e+00	-3.711889e+01
8.700000e-07	-3.423056e-07	-5.193403e-10	-2.668386e+00	-3.608905e+01
8.800000e-07	-3.311930e-07	-5.055564e-10	-2.581759e+00	-3.507502e+01
8.900000e-07	-3.200493e-07	-4.923293e-10	-2.494891e+00	-3.407083e+01
9.000000e-07	-3.088667e-07	-4.787078e-10	-2.407719e+00	-3.306614e+01
9.100000e-07	-2.976575e-07	-4.640564e-10	-2.320339e+00	-3.204911e+01
9.200000e-07	-2.864282e-07	-4.454959e-10	-2.232803e+00	-3.100966e+01
9.300000e-07	-2.751663e-07	-4.276698e-10	-2.145012e+00	-2.994205e+01
9.400000e-07	-2.638825e-07	-4.128361e-10	-2.057052e+00	-2.884607e+01
9.500000e-07	-2.525884e-07	-3.972828e-10	-1.969010e+00	-2.772665e+01
9.600000e-07	-2.412721e-07	-3.809449e-10	-1.880796e+00	-2.659219e+01
9.700000e-07	-2.299237e-07	-3.659325e-10	-1.792332e+00	-2.545212e+01
9.800000e-07	-2.185444e-07	-3.524533e-10	-1.703626e+00	-2.431465e+01
9.900000e-07	-2.071333e-07	-3.368643e-10	-1.614673e+00	-2.318519e+01
1.000000e-06	-1.956709e-07	-3.190740e-10	-1.525320e+00	-2.206572e+01
1.010000e-06	-1.841444e-07	-3.006579e-10	-1.435467e+00	-2.095516e+01
1.020000e-06	-1.725943e-07	-2.824925e-10	-1.345430e+00	-1.985024e+01
1.030000e-06	-1.610327e-07	-2.666674e-10	-1.255303e+00	-1.874656e+01
1.040000e-06	-1.494297e-07	-2.513651e-10	-1.164854e+00	-1.763958e+01
1.050000e-06	-1.377917e-07	-2.362663e-10	-1.074132e+00	-1.652535e+01
1.060000e-06	-1.261217e-07	-2.214095e-10	-9.831602e-01	-1.540103e+01
1.070000e-06	-1.144319e-07	-2.064816e-10	-8.920343e-01	-1.426539e+01
1.080000e-06	-1.027367e-07	-1.911829e-10	-8.008666e-01	-1.311918e+01
1.090000e-06	-9.100717e-08	-1.735426e-10	-7.094311e-01	-1.196536e+01
1.100000e-06	-7.923840e-08	-1.564642e-10	-6.176897e-01	-1.080882e+01
1.110000e-06	-6.746478e-08	-1.404099e-10	-5.259103e-01	-9.655531e+00
1.120000e-06	-5.569335e-08	-1.247164e-10	-4.341481e-01	-8.510985e+00
1.130000e-06	-4.390051e-08	-1.083884e-10	-3.422190e-01	-7.378451e+00
1.140000e-06	-3.208248e-08	-9.079823e-11	-2.500936e-01	-6.257436e+00
1.150000e-06	-2.026493e-08	-7.521506e-11	-1.579719e-01	-5.143131e+00
1.160000e-06	-8.458350e-09	-6.199464e-11	-6.593565e-02	-4.027253e+00
1.170000e-06	3.349317e-09	-4.790765e-11	2.610904e-02	-2.900300e+00
1.180000e-06	1.516933e-08	-3.133666e-11	1.182499e-01	-1.754646e+00
1.190000e-06	2.698134e-08	-1.386829e-11	2.103285e-01	-5.874900e-01
1.200000e-06	3.874764e-08	4.504014e-12	3.020507e-01	5.974669e-01
1.210000e-06	5.050475e-08	2.241110e-11	3.937013e-01	1.790394e+00
1.220000e-06	6.226395e-08	3.915224e-11	4.853682e-01	2.977883e+00
1.230000e-06	7.400468e-08	5.594201e-11	5.768910e-01	4.146981e+00
1.240000e-06	8.574297e-08	7.230215e-11	6.683949e-01	5.289395e+00
1.250000e-06	9.744777e-08	8.915435e-11	7.596377e-01	6.404352e+00
1.260000e-06	1.091269e-07	1.070821e-10	8.506806e-01	7.498983e+00
1.270000e-06	1.207992e-07	1.251055e-10	9.416699e-01	8.585940e+00
1.280000e-06	1.324322e-07	1.415435e-10	1.032353e+00	9.678978e+00
1.290000e-06	1.440110e-07	1.572396e-10	1.122614e+00	1.078803e+01
1.300000e-06	1.555425e-07	1.729868e-10	1.212506e+00	1.191557e+01
1.310000e-06	1.670544e-07	1.893430e-10	1.302244e+00	1.305575e+01
1.320000e-06	1.785404e-07	2.067036e-10	1.391782e+00	1.419654e+01
1.330000e-06	1.900056e-07	2.245621e-10	1.481157e+00	1.532448e+01
1.340000e-06	2.014651e-07	2.421564e-10	1.570487e+00	1.642989e+01
1.350000e-06	2.128725e-07	2.576651e-10	1.659412e+00	1.751099e+01
1.360000e-06	2.242521e-07	2.722072e-10	1.748119e+00	1.857489e+01
1.370000e-06	2.356204e-07	2.875052e-10	1.836739e+00	1.963531e+01
1.380000e-06	2.469407e-07	3.029403e-10	1.924985e+00	2.070745e+01
1.390000e-06	2.582207e-07	3.184085e-10	2.012916e+00	2.180221e+01
1.400000e-06	2.694941e-07	3.344991e-10	2.100796e+00	2.292168e+01
1.410000e-06	2.807619e-07	3.510355e-10	2.188632e+00	2.405793e+01
1.420000e-06	2.920084e-07	3.679465e-10	2.276302e+00	2.519549e+01
1.430000e-06	3.032361e-07	3.852659e-10	2.363826e+00	2.631683e+01
1.440000e-06	3.144498e-07	4.030407e-10	2.451241e+00	2.740884e+01
1.450000e-06	3.256330e-07	4.206397e-10	2.538417e+00	2.846787e+01
1.460000e-06	3.367585e-07	4.367228e-10	2.625144e+00	2.950135e+01
1.470000e-06	3.478507e-07	4.510256e-10	2.711612e+00	3.052549e+01
1.480000e-06	3.589093e-07	4.664178e-10	2.797817e+00	3.155967e+01
1.490000e-06	3.698797e-07	4.831509e-10	2.883335e+00	3.261958e+01
1.500000e-06	3.807723e-07	4.992029e-10	2.968246e+00	3.371177e+01
1.510000e-06	3.915869e-07	5.152116e-10	3.052550e+00	3.483141e+01
1.520000e-06	4.022609e-07	5.320028e-10	3.135757e+00	3.596412e+01
1.530000e-06	4.127432e-07	5.494154e-10	3.217471e+00	3.709109e+01
1.540000e-06	4.230366e-07	5.660248e-10	3.297710e+00	3.819556e+01
1.550000e-06	4.332044e-07	5.817072e-10	3.376972e+00	3.926806e+01
1.560000e-06	4.432626e-07	5.968178e-10	3.455379e+00	4.030877e+01
1.570000e-06	4.532153e-07	6.125298e-10	3.532964e+00	4.132595e+01
1.580000e-06	4.630768e-07	6.289324e-10	3.609837e+00	4.233155e+01
1.590000e-06	4.728700e-07	6.437776e-10	3.686179e+00	4.333568e+01
1.600000e-06	4.825979e-07	6.571709e-10	3.762011e+00	4.434245e+01
1.610000e-06	4.922515e-07	6.698158e-10	3.837264e+00	4.534857e+01
1.620000e-06	5.018617e-07	6.839531e-10	3.912179e+00	4.634552e+01
1.630000e-06	5.114303e-07	6.993730e-10	3.986769e+00	4.732396e+01
1.640000e-06	5.209182e-07	7.146249e-10	4.060730e+00	4.827870e+01
1.650000e-06	5.303211e-07	7.295043e-10	4.134029e+00	4.921175e+01
1.660000e-06	5.396131e-07	7.437891e-10	4.206463e+00	5.013233e+01
1.670000e-06	5.487812e-07	7.586114e-10	4.277931e+00	5.105339e+01
1.680000e-06	5.578480e-07	7.724818e-10	4.348611e+00	5.198628e+01
1.690000e-06	5.668305e-07	7.848450e-10	4.418632e+00	5.293551e+01
1.700000e-06	5.757406e-07	7.971335e-10	4.488089e+00	5.389603e+01
1.710000e-06	5.845668e-07	8.108826e-10	4.556892e+00	5.485414e+01
1.720000e-06	5.933086e-07	8.258024e-10	4.625037e+00	5.579206e+01
1.730000e-06	6.019634e-07	8.398092e-10	4.692505e+00	5.669433e+01
1.740000e-06	6.105069e-07	8.520759e-10	4.759104e+00	5.755377e+01
1.750000e-06	6.189065e-07	8.632321e-10	4.824582e+00	5.837449e+01
1.760000e-06	6.271911e-07	8.742652e-10	4.889163e+00	5.917077e+01
1.770000e-06	6.353718e-07	8.864289e-10	4.952934e+00	5.996213e+01
1.780000e-06	6.434704e-07	8.994774e-10	5.016065e+00	6.076632e+01
1.790000e-06	6.515299e-07	9.118817e-10	5.078892e+00	6.159304e+01
1.800000e-06	6.595519e-07	9.246678e-10	5.141426e+00	6.244064e+01
1.810000e-06	6.675101e-07	9.376506e-10	5.203463e+00	6.329709e+01
1.820000e-06	6.753568e-07	9.493441e-10	5.264630e+00	6.414483e+01
1.830000e-06	6.830755e-07	9.605174e-10	5.324800e+00	6.496758e+01
1.840000e-06	6.906440e-07	9.731824e-10	5.383799e+00	6.575637e+01
1.850000e-06	6.980530e-07	9.864142e-10	5.441555e+00	6.651244e+01
1.860000e-06	7.053124e-07	9.980229e-10	5.498144e+00	6.724593e+01
1.870000e-06	7.124285e-07	1.007743e-09	5.553617e+00	6.797096e+01
1.880000e-06	7.194496e-07	1.016873e-09	5.608348e+00	6.869912e+01
1.890000e-06	7.263827e-07	1.027669e-09	5.662394e+00	6.943406e+01
1.900000e-06	7.332000e-07	1.040102e-09	5.715537e+00	7.016958e+01
1.910000e-06	7.399141e-07	1.052850e-09	5.767876e+00	7.089194e+01
1.920000e-06	7.464973e-07	1.064504e-09	5.819194e+00	7.158559e+01
1.930000e-06	7.529023e-07	1.075671e-09	5.869124e+00	7.224011e+01
1.940000e-06	7.591028e-07	1.084701e-09	5.917458e+00	7.285537e+01
1.950000e-06	7.651405e-07	1.092416e-09	5.964524e+00	7.344276e+01
1.960000e-06	7.710286e-07	1.100886e-09	6.010424e+00	7.402182e+01
1.970000e-06	7.767462e-07	1.109210e-09	6.054995e+00	7.461324e+01
1.980000e-06	7.823399e-07	1.119366e-09	6.098599e+00	7.523099e+01
1.990000e-06	7.878115e-07	1.131838e-09	6.141252e+00	7.587643e+01
2.000000e-06	7.931290e-07	1.145235e-09	6.182704e+00	7.653693e+01
2.010000e-06	7.982927e-07	1.156707e-09	6.222957e+00	7.718951e+01
2.020000e-06	8.033083e-07	1.165627e-09	6.262055e+00	7.780846e+01
2.030000e-06	8.081962e-07	1.174083e-09	6.300158e+00	7.837408e+01
2.040000e-06	8.129732e-07	1.182000e-09	6.337396e+00	7.887936e+01
2.050000e-06	8.176343e-07	1.188156e-09	6.373731e+00	7.933228e+01
2.060000e-06	8.221083e-07	1.192431e-09	6.408607e+00	7.975265e+01
2.070000e-06	8.263056e-07	1.196623e-09	6.441327e+00	8.016501e+01
2.080000e-06	8.302644e-07	1.204210e-09	6.472187e+00	8.058995e+01
2.090000e-06	8.340121e-07	1.215310e-09	6.501401e+00	8.103720e+01
2.100000e-06	8.375558e-07	1.226939e-09	6.529026e+00	8.150288e+01
2.110000e-06	8.409470e-07	1.236767e-09	6.555461e+00	8.197177e+01
2.120000e-06	8.442442e-07	1.243637e-09	6.581164e+00	8.242350e+01
2.130000e-06	8.474631e-07	1.248541e-09	6.606256e+00	8.284030e+01
2.140000e-06	8.505852e-07	1.252184e-09	6.630594e+00	8.321318e+01
2.150000e-06	8.535839e-07	1.255625e-09	6.653970e+00	8.354450e+01
2.160000e-06	8.564163e-07	1.260471e-09	6.676049e+00	8.384601e+01
2.170000e-06	8.590751e-07	1.267320e-09	6.696776e+00	8.413349e+01
2.180000e-06	8.615682e-07	1.276174e-09	6.716210e+00	8.442027e+01
2.190000e-06	8.639369e-07	1.284813e-09	6.734675e+00	8.471223e+01
2.200000e-06	8.661578e-07	1.290263e-09	6.751988e+00	8.500622e+01
2.210000e-06	8.682097e-07	1.293190e-09	6.767983e+00	8.529235e+01
2.220000e-06	8.701085e-07	1.294932e-09	6.782784e+00	8.555900e+01
2.230000e-06	8.718813e-07	1.295874e-09	6.796604e+00	8.579833e+01
2.240000e-06	8.735799e-07	1.297137e-09	6.809845e+00	8.600989e+01
2.250000e-06	8.751923e-07	1.300820e-09	6.822415e+00	8.620086e+01
2.260000e-06	8.766834e-07	1.307684e-09	6.834038e+00	8.638265e+01
2.270000e-06	8.780021e-07	1.315861e-09	6.844318e+00	8.656552e+01
2.280000e-06	8.791204e-07	1.323960e-09	6.853035e+00	8.675331e+01
2.290000e-06	8.800090e-07	1.327738e-09	6.859962e+00	8.694070e+01
2.300000e-06	8.806782e-07	1.325705e-09	6.865179e+00	8.711430e+01
2.310000e-06	8.811393e-07	1.317085e-09	6.868773e+00	8.725713e+01
2.320000e-06	8.813740e-07	1.306772e-09	6.870603e+00	8.735516e+01
2.330000e-06	8.814689e-07	1.304399e-09	6.871342e+00	8.740294e+01
2.340000e-06	8.814827e-07	1.326563e-09	6.871450e+00	8.740641e+01
2.350000e-06	8.813819e-07	1.353906e-09	6.870665e+00	8.738137e+01
2.360000e-06	8.811437e-07	1.351391e-09	6.868808e+00	8.734811e+01
2.370000e-06	8.807869e-07	1.335294e-09	6.866026e+00	8.732420e+01
2.380000e-06	8.803066e-07	1.323160e-09	6.862282e+00	8.731797e+01
2.390000e-06	8.796545e-07	1.331673e-09	6.857199e+00	8.732526e+01
2.400000e-06	8.788019e-07	1.330828e-09	6.850552e+00	8.733073e+01
2.410000e-06	8.777768e-07	1.328260e-09	6.842562e+00	8.731332e+01
2.420000e-06	8.766462e-07	1.321547e-09	6.833748e+00	8.725389e+01
2.430000e-06	8.754177e-07	1.315846e-09	6.824171e+00	8.714235e+01
2.440000e-06	8.740572e-07	1.322628e-09	6.813566e+00	8.698165e+01
2.450000e-06	8.725795e-07	1.324514e-09	6.802047e+00	8.678711e+01
2.460000e-06	8.710126e-07	1.322967e-09	6.789832e+00	8.658144e+01
2.470000e-06	8.693410e-07	1.307949e-09	6.776801e+00	8.638709e+01
2.480000e-06	8.675265e-07	1.304505e-09	6.762657e+00	8.621872e+01
2.490000e-06	8.655013e-07	1.315028e-09	6.746869e+00	8.607838e+01
2.500000e-06	8.632202e-07	1.321302e-09	6.729088e+00	8.595493e+01
2.510000e-06	8.607088e-07	1.314729e-09	6.709511e+00	8.582793e+01
2.520000e-06	8.579722e-07	1.305936e-09	6.688178e+00	8.567433e+01
2.530000e-06	8.550313e-07	1.301460e-09	6.665253e+00	8.547581e+01
2.540000e-06	8.519798e-07	1.297541e-09	6.641465e+00	8.522406e+01
2.550000e-06	8.488332e-07	1.295576e-09	6.616936e+00	8.492258e+01
2.560000e-06	8.455677e-07	1.296836e-09	6.591481e+00	8.458444e+01
2.570000e-06	8.421809e-07	1.296030e-09	6.565079e+00	8.422728e+01
2.580000e-06	8.386452e-07	1.293982e-09	6.537518e+00	8.386722e+01
2.590000e-06	8.349514e-07	1.283549e-09	6.508723e+00	8.351401e+01
2.600000e-06	8.311247e-07	1.273261e-09	6.478893e+00	8.316883e+01
2.610000e-06	8.271666e-07	1.267764e-09	6.448038e+00	8.282518e+01
2.620000e-06	8.230738e-07	1.268557e-09	6.416134e+00	8.247231e+01
2.630000e-06	8.188297e-07	1.268946e-09	6.383049e+00	8.209959e+01
2.640000e-06	8.144081e-07	1.261044e-09	6.348582e+00	8.170032e+01
2.650000e-06	8.098234e-07	1.254709e-09	6.312842e+00	8.127365e+01
2.660000e-06	8.051025e-07	1.249113e-09	6.276041e+00	8.082415e+01
2.670000e-06	8.002615e-07	1.243965e-09	6.238304e+00	8.035959e+01
2.680000e-06	7.952386e-07	1.235357e-09	6.199149e+00	7.988781e+01
2.690000e-06	7.899697e-07	1.227091e-09	6.158076e+00	7.941400e+01
2.700000e-06	7.844732e-07	1.224004e-09	6.115229e+00	7.893917e+01
2.710000e-06	7.787526e-07	1.218806e-09	6.070635e+00	7.846036e+01
2.720000e-06	7.728271e-07	1.208948e-09	6.024444e+00	7.797203e+01
2.730000e-06	7.667448e-07	1.198375e-09	5.977030e+00	7.746808e+01
2.740000e-06	7.605257e-07	1.192020e-09	5.928551e+00	7.694373e+01
2.750000e-06	7.542134e-07	1.191636e-09	5.879344e+00	7.639647e+01
2.760000e-06	7.478310e-07	1.187632e-09	5.829591e+00	7.582605e+01
2.770000e-06	7.413758e-07	1.176595e-09	5.779270e+00	7.523379e+01
2.780000e-06	7.348176e-07	1.163859e-09	5.728147e+00	7.462149e+01
2.790000e-06	7.281261e-07	1.154210e-09	5.675984e+00	7.399064e+01
2.800000e-06	7.213080e-07	1.146658e-09	5.622835e+00	7.334215e+01
2.810000e-06	7.143670e-07	1.135921e-09	5.568728e+00	7.267658e+01
2.820000e-06	7.073040e-07	1.127432e-09	5.513669e+00	7.199472e+01
2.830000e-06	7.001202e-07	1.120873e-09	5.457669e+00	7.129802e+01
2.840000e-06	6.928173e-07	1.114432e-09	5.400741e+00	7.058873e+01
2.850000e-06	6.853938e-07	1.103666e-09	5.342872e+00	6.986944e+01
2.860000e-06	6.778451e-07	1.087525e-09	5.284027e+00	6.914242e+01
2.870000e-06	6.701776e-07	1.074721e-09	5.224257e+00	6.840878e+01
2.880000e-06	6.623994e-07	1.065428e-09	5.163623e+00	6.766794e+01
2.890000e-06	6.545360e-07	1.056186e-09	5.102325e+00	6.691767e+01
2.900000e-06	6.466227e-07	1.045216e-09	5.040638e+00	6.615458e+01
2.910000e-06	6.386670e-07	1.033973e-09	4.978621e+00	6.537512e+01
2.920000e-06	6.306490e-07	1.023377e-09	4.916118e+00	6.457655e+01
2.930000e-06	6.225430e-07	1.009378e-09	4.852929e+00	6.375776e+01
2.940000e-06	6.142956e-07	9.926979e-10	4.788638e+00	6.291962e+01
2.950000e-06	6.058544e-07	9.761164e-10	4.722836e+00	6.206468e+01
