# Temperatura_=_20.0
# Concentracion g/m^3_=_10000.0
# C_Vs_to_Am_M_A/Vsm_=_65563218390.804596
# pendiente_HvsI_1/m_=_3716.3
# ordenada_HvsI_A/m_=_1297.0
# frecuencia_Hz_=_212981.51524997514

Tiempo_(s)	Campo_(V.s)	Magnetizacion_(V.s)	Campo_(kA/m)	Magnetizacion_(A/m)
0.000000e+00	-8.803210e-07	-1.300548e-09	-6.861534e+00	-8.702499e+01
1.000000e-08	-8.804567e-07	-1.281518e-09	-6.862592e+00	-8.696771e+01
2.000000e-08	-8.805163e-07	-1.311388e-09	-6.863057e+00	-8.691387e+01
3.000000e-08	-8.804026e-07	-1.344897e-09	-6.862170e+00	-8.687695e+01
4.000000e-08	-8.800112e-07	-1.330522e-09	-6.859120e+00	-8.686032e+01
5.000000e-08	-8.793199e-07	-1.320204e-09	-6.853732e+00	-8.685613e+01
6.000000e-08	-8.783769e-07	-1.310596e-09	-6.846381e+00	-8.684812e+01
7.000000e-08	-8.772459e-07	-1.304291e-09	-6.837566e+00	-8.681766e+01
8.000000e-08	-8.759884e-07	-1.312196e-09	-6.827764e+00	-8.675062e+01
9.000000e-08	-8.746205e-07	-1.312961e-09	-6.817103e+00	-8.664258e+01
1.000000e-07	-8.731333e-07	-1.302052e-09	-6.805511e+00	-8.650049e+01
1.100000e-07	-8.715429e-07	-1.301590e-09	-6.793115e+00	-8.634009e+01
1.200000e-07	-8.698744e-07	-1.309975e-09	-6.780110e+00	-8.618000e+01
1.300000e-07	-8.680933e-07	-1.304989e-09	-6.766227e+00	-8.603485e+01
1.400000e-07	-8.661407e-07	-1.287299e-09	-6.751008e+00	-8.590969e+01
1.500000e-07	-8.640336e-07	-1.283441e-09	-6.734585e+00	-8.579811e+01
1.600000e-07	-8.617708e-07	-1.298517e-09	-6.716947e+00	-8.568431e+01
1.700000e-07	-8.593381e-07	-1.298784e-09	-6.697986e+00	-8.554874e+01
1.800000e-07	-8.567411e-07	-1.284183e-09	-6.677744e+00	-8.537479e+01
1.900000e-07	-8.539709e-07	-1.286373e-09	-6.656153e+00	-8.515442e+01
2.000000e-07	-8.510459e-07	-1.296648e-09	-6.633354e+00	-8.489040e+01
2.100000e-07	-8.480160e-07	-1.283723e-09	-6.609738e+00	-8.459468e+01
2.200000e-07	-8.449068e-07	-1.253738e-09	-6.585504e+00	-8.428350e+01
2.300000e-07	-8.417133e-07	-1.238083e-09	-6.560612e+00	-8.397120e+01
2.400000e-07	-8.383555e-07	-1.255066e-09	-6.534441e+00	-8.366514e+01
2.500000e-07	-8.347603e-07	-1.273675e-09	-6.506418e+00	-8.336343e+01
2.600000e-07	-8.309515e-07	-1.270557e-09	-6.476731e+00	-8.305642e+01
2.700000e-07	-8.269124e-07	-1.244124e-09	-6.445249e+00	-8.273103e+01
2.800000e-07	-8.226419e-07	-1.224150e-09	-6.411963e+00	-8.237626e+01
2.900000e-07	-8.181814e-07	-1.224937e-09	-6.377196e+00	-8.198767e+01
3.000000e-07	-8.135597e-07	-1.223856e-09	-6.341173e+00	-8.156907e+01
3.100000e-07	-8.088170e-07	-1.214194e-09	-6.304207e+00	-8.113100e+01
3.200000e-07	-8.039382e-07	-1.200727e-09	-6.266180e+00	-8.068644e+01
3.300000e-07	-7.988821e-07	-1.200188e-09	-6.226771e+00	-8.024573e+01
3.400000e-07	-7.936680e-07	-1.201959e-09	-6.186130e+00	-7.981246e+01
3.500000e-07	-7.883235e-07	-1.189701e-09	-6.144474e+00	-7.938212e+01
3.600000e-07	-7.828684e-07	-1.171679e-09	-6.101954e+00	-7.894377e+01
3.700000e-07	-7.772664e-07	-1.161880e-09	-6.058290e+00	-7.848413e+01
3.800000e-07	-7.714582e-07	-1.164788e-09	-6.013019e+00	-7.799243e+01
3.900000e-07	-7.654549e-07	-1.163075e-09	-5.966227e+00	-7.746411e+01
4.000000e-07	-7.592693e-07	-1.145479e-09	-5.918014e+00	-7.690200e+01
4.100000e-07	-7.529000e-07	-1.125305e-09	-5.868370e+00	-7.631467e+01
4.200000e-07	-7.463824e-07	-1.116011e-09	-5.817569e+00	-7.571259e+01
4.300000e-07	-7.397438e-07	-1.118806e-09	-5.765826e+00	-7.510387e+01
4.400000e-07	-7.329706e-07	-1.114147e-09	-5.713033e+00	-7.449114e+01
4.500000e-07	-7.260845e-07	-1.097304e-09	-5.659360e+00	-7.387091e+01
4.600000e-07	-7.191225e-07	-1.083653e-09	-5.605096e+00	-7.323557e+01
4.700000e-07	-7.120520e-07	-1.077882e-09	-5.549986e+00	-7.257721e+01
4.800000e-07	-7.048636e-07	-1.070585e-09	-5.493957e+00	-7.189157e+01
4.900000e-07	-6.975494e-07	-1.050017e-09	-5.436948e+00	-7.118062e+01
5.000000e-07	-6.900778e-07	-1.032318e-09	-5.378712e+00	-7.045257e+01
5.100000e-07	-6.824650e-07	-1.028055e-09	-5.319375e+00	-6.971918e+01
5.200000e-07	-6.747320e-07	-1.025034e-09	-5.259101e+00	-6.899159e+01
5.300000e-07	-6.668924e-07	-1.011713e-09	-5.197996e+00	-6.827596e+01
5.400000e-07	-6.589723e-07	-9.906022e-10	-5.136264e+00	-6.757089e+01
5.500000e-07	-6.510179e-07	-9.798010e-10	-5.074264e+00	-6.686754e+01
5.600000e-07	-6.430165e-07	-9.768248e-10	-5.011899e+00	-6.615245e+01
5.700000e-07	-6.349127e-07	-9.673084e-10	-4.948735e+00	-6.541213e+01
5.800000e-07	-6.266971e-07	-9.512934e-10	-4.884700e+00	-6.463763e+01
5.900000e-07	-6.183499e-07	-9.368114e-10	-4.819639e+00	-6.382751e+01
6.000000e-07	-6.098819e-07	-9.294102e-10	-4.753636e+00	-6.298800e+01
6.100000e-07	-6.013333e-07	-9.199389e-10	-4.687005e+00	-6.213038e+01
6.200000e-07	-5.926967e-07	-9.030475e-10	-4.619688e+00	-6.126659e+01
6.300000e-07	-5.839617e-07	-8.853675e-10	-4.551605e+00	-6.040464e+01
6.400000e-07	-5.751275e-07	-8.740755e-10	-4.482748e+00	-5.954564e+01
6.500000e-07	-5.662179e-07	-8.668036e-10	-4.413303e+00	-5.868345e+01
6.600000e-07	-5.571915e-07	-8.523684e-10	-4.342948e+00	-5.780723e+01
6.700000e-07	-5.480135e-07	-8.334686e-10	-4.271412e+00	-5.690574e+01
6.800000e-07	-5.387520e-07	-8.183559e-10	-4.199224e+00	-5.597199e+01
6.900000e-07	-5.294150e-07	-8.080323e-10	-4.126448e+00	-5.500641e+01
7.000000e-07	-5.199933e-07	-7.959943e-10	-4.053013e+00	-5.401745e+01
7.100000e-07	-5.104909e-07	-7.764280e-10	-3.978948e+00	-5.301931e+01
7.200000e-07	-5.009247e-07	-7.590340e-10	-3.904385e+00	-5.202767e+01
7.300000e-07	-4.913225e-07	-7.477485e-10	-3.829542e+00	-5.105483e+01
7.400000e-07	-4.816571e-07	-7.372574e-10	-3.754207e+00	-5.010598e+01
7.500000e-07	-4.718986e-07	-7.209795e-10	-3.678145e+00	-4.917779e+01
7.600000e-07	-4.620512e-07	-7.014952e-10	-3.601391e+00	-4.825971e+01
7.700000e-07	-4.520845e-07	-6.884563e-10	-3.523707e+00	-4.733744e+01
7.800000e-07	-4.419729e-07	-6.768913e-10	-3.444894e+00	-4.639728e+01
7.900000e-07	-4.317280e-07	-6.614439e-10	-3.365041e+00	-4.542990e+01
8.000000e-07	-4.213621e-07	-6.447642e-10	-3.284246e+00	-4.443248e+01
8.100000e-07	-4.108936e-07	-6.301531e-10	-3.202651e+00	-4.340856e+01
8.200000e-07	-4.002847e-07	-6.178496e-10	-3.119961e+00	-4.236601e+01
8.300000e-07	-3.895496e-07	-6.024273e-10	-3.036288e+00	-4.131413e+01
8.400000e-07	-3.787295e-07	-5.831256e-10	-2.951952e+00	-4.026083e+01
8.500000e-07	-3.678192e-07	-5.657741e-10	-2.866913e+00	-3.921097e+01
8.600000e-07	-3.568360e-07	-5.521627e-10	-2.781306e+00	-3.816609e+01
8.700000e-07	-3.458076e-07	-5.377678e-10	-2.695348e+00	-3.712540e+01
8.800000e-07	-3.347601e-07	-5.217600e-10	-2.609239e+00	-3.608723e+01
8.900000e-07	-3.236809e-07	-5.074582e-10	-2.522884e+00	-3.505026e+01
9.000000e-07	-3.125659e-07	-4.941674e-10	-2.436249e+00	-3.401386e+01
9.100000e-07	-3.014299e-07	-4.805756e-10	-2.349452e+00	-3.297750e+01
9.200000e-07	-2.902725e-07	-4.643737e-10	-2.262487e+00	-3.193979e+01
9.300000e-07	-2.790968e-07	-4.466996e-10	-2.175380e+00	-3.089756e+01
9.400000e-07	-2.678898e-07	-4.314773e-10	-2.088028e+00	-2.984587e+01
9.500000e-07	-2.566425e-07	-4.165578e-10	-2.000363e+00	-2.877914e+01
9.600000e-07	-2.453573e-07	-3.999123e-10	-1.912402e+00	-2.769302e+01
9.700000e-07	-2.340357e-07	-3.833351e-10	-1.824157e+00	-2.658649e+01
9.800000e-07	-2.226903e-07	-3.695409e-10	-1.735727e+00	-2.546310e+01
9.900000e-07	-2.113015e-07	-3.570572e-10	-1.646959e+00	-2.433072e+01
1.000000e-06	-1.998475e-07	-3.406076e-10	-1.557683e+00	-2.319968e+01
1.010000e-06	-1.883533e-07	-3.225888e-10	-1.468092e+00	-2.207961e+01
1.020000e-06	-1.768220e-07	-3.057650e-10	-1.378213e+00	-2.097617e+01
1.030000e-06	-1.652436e-07	-2.892161e-10	-1.287967e+00	-1.988881e+01
1.040000e-06	-1.536236e-07	-2.731829e-10	-1.197397e+00	-1.881046e+01
1.050000e-06	-1.419832e-07	-2.562274e-10	-1.106667e+00	-1.772955e+01
1.060000e-06	-1.303269e-07	-2.394108e-10	-1.015814e+00	-1.663372e+01
1.070000e-06	-1.186244e-07	-2.237499e-10	-9.246006e-01	-1.551411e+01
1.080000e-06	-1.069007e-07	-2.088935e-10	-8.332220e-01	-1.436860e+01
1.090000e-06	-9.517310e-08	-1.921337e-10	-7.418130e-01	-1.320289e+01
1.100000e-06	-8.341160e-08	-1.732042e-10	-6.501396e-01	-1.202879e+01
1.110000e-06	-7.162188e-08	-1.557672e-10	-5.582464e-01	-1.086025e+01
1.120000e-06	-5.982164e-08	-1.388100e-10	-4.662711e-01	-9.708356e+00
1.130000e-06	-4.802185e-08	-1.220166e-10	-3.742993e-01	-8.577107e+00
1.140000e-06	-3.622600e-08	-1.056211e-10	-2.823583e-01	-7.461482e+00
1.150000e-06	-2.443090e-08	-9.010126e-11	-1.904231e-01	-6.348679e+00
1.160000e-06	-1.264394e-08	-7.462624e-11	-9.855134e-02	-5.222219e+00
1.170000e-06	-8.571916e-10	-5.681342e-11	-6.681256e-03	-4.067661e+00
1.180000e-06	1.094163e-08	-3.817158e-11	8.528298e-02	-2.877976e+00
1.190000e-06	2.273008e-08	-1.969215e-11	1.771663e-01	-1.656718e+00
1.200000e-06	3.450227e-08	-3.133548e-12	2.689230e-01	-4.177649e-01
1.210000e-06	4.628259e-08	1.476403e-11	3.607430e-01	8.183994e-01
1.220000e-06	5.805933e-08	3.394908e-11	4.525350e-01	2.030734e+00
1.230000e-06	6.983854e-08	5.195338e-11	5.443464e-01	3.204036e+00
1.240000e-06	8.161290e-08	6.871298e-11	6.361199e-01	4.333538e+00
1.250000e-06	9.335242e-08	8.395188e-11	7.276219e-01	5.426144e+00
1.260000e-06	1.050661e-07	1.004760e-10	8.189223e-01	6.497873e+00
1.270000e-06	1.167568e-07	1.176391e-10	9.100442e-01	7.568368e+00
1.280000e-06	1.284205e-07	1.333436e-10	1.000955e+00	8.654359e+00
1.290000e-06	1.400483e-07	1.488663e-10	1.091586e+00	9.764301e+00
1.300000e-06	1.516546e-07	1.656469e-10	1.182050e+00	1.089603e+01
1.310000e-06	1.632544e-07	1.831593e-10	1.272463e+00	1.203819e+01
1.320000e-06	1.748362e-07	2.006978e-10	1.362735e+00	1.317483e+01
1.330000e-06	1.863650e-07	2.168320e-10	1.452595e+00	1.429157e+01
1.340000e-06	1.978346e-07	2.328955e-10	1.541993e+00	1.538099e+01
1.350000e-06	2.092538e-07	2.492653e-10	1.630998e+00	1.644548e+01
1.360000e-06	2.206273e-07	2.650975e-10	1.719648e+00	1.749634e+01
1.370000e-06	2.320054e-07	2.797272e-10	1.808333e+00	1.854976e+01
1.380000e-06	2.433629e-07	2.937372e-10	1.896857e+00	1.962096e+01
1.390000e-06	2.546566e-07	3.093175e-10	1.984884e+00	2.071871e+01
1.400000e-06	2.658984e-07	3.266815e-10	2.072507e+00	2.184234e+01
1.410000e-06	2.771141e-07	3.443441e-10	2.159925e+00	2.298204e+01
1.420000e-06	2.883104e-07	3.609885e-10	2.247194e+00	2.412261e+01
1.430000e-06	2.994711e-07	3.774384e-10	2.334184e+00	2.524902e+01
1.440000e-06	3.106150e-07	3.945265e-10	2.421044e+00	2.635174e+01
1.450000e-06	3.217486e-07	4.107305e-10	2.507823e+00	2.743002e+01
1.460000e-06	3.328653e-07	4.258476e-10	2.594470e+00	2.849169e+01
1.470000e-06	3.439428e-07	4.408057e-10	2.680812e+00	2.954989e+01
1.480000e-06	3.549811e-07	4.562918e-10	2.766848e+00	3.061779e+01
1.490000e-06	3.659840e-07	4.734584e-10	2.852610e+00	3.170342e+01
1.500000e-06	3.769169e-07	4.900121e-10	2.937824e+00	3.280663e+01
1.510000e-06	3.877425e-07	5.052756e-10	3.022203e+00	3.391922e+01
1.520000e-06	3.984578e-07	5.212363e-10	3.105721e+00	3.502818e+01
1.530000e-06	4.090478e-07	5.370329e-10	3.188264e+00	3.612080e+01
1.540000e-06	4.194813e-07	5.514647e-10	3.269586e+00	3.718959e+01
1.550000e-06	4.297809e-07	5.662168e-10	3.349865e+00	3.823502e+01
1.560000e-06	4.399674e-07	5.819369e-10	3.429262e+00	3.926517e+01
1.570000e-06	4.500057e-07	5.975598e-10	3.507504e+00	4.029214e+01
1.580000e-06	4.598941e-07	6.134637e-10	3.584578e+00	4.132680e+01
1.590000e-06	4.696901e-07	6.282913e-10	3.660931e+00	4.237391e+01
1.600000e-06	4.794184e-07	6.423819e-10	3.736757e+00	4.342955e+01
1.610000e-06	4.890823e-07	6.564985e-10	3.812081e+00	4.448193e+01
1.620000e-06	4.986824e-07	6.719356e-10	3.886908e+00	4.551552e+01
1.630000e-06	5.082209e-07	6.888796e-10	3.961254e+00	4.651679e+01
1.640000e-06	5.177011e-07	7.050974e-10	4.035146e+00	4.747966e+01
1.650000e-06	5.271009e-07	7.195820e-10	4.108412e+00	4.840825e+01
1.660000e-06	5.364210e-07	7.333145e-10	4.181056e+00	4.931599e+01
1.670000e-06	5.456378e-07	7.471009e-10	4.252895e+00	5.022115e+01
1.680000e-06	5.547362e-07	7.599638e-10	4.323811e+00	5.114051e+01
1.690000e-06	5.637433e-07	7.725988e-10	4.394015e+00	5.208328e+01
1.700000e-06	5.726425e-07	7.864320e-10	4.463379e+00	5.304768e+01
1.710000e-06	5.814523e-07	8.016961e-10	4.532046e+00	5.402148e+01
1.720000e-06	5.901971e-07	8.167478e-10	4.600206e+00	5.498622e+01
1.730000e-06	5.988515e-07	8.304751e-10	4.667661e+00	5.592373e+01
1.740000e-06	6.074313e-07	8.428036e-10	4.734535e+00	5.682248e+01
1.750000e-06	6.159141e-07	8.556835e-10	4.800653e+00	5.768155e+01
1.760000e-06	6.242448e-07	8.691609e-10	4.865586e+00	5.851064e+01
1.770000e-06	6.324318e-07	8.819166e-10	4.929398e+00	5.932629e+01
1.780000e-06	6.405194e-07	8.937878e-10	4.992435e+00	6.014574e+01
1.790000e-06	6.485434e-07	9.050918e-10	5.054978e+00	6.098067e+01
1.800000e-06	6.565179e-07	9.178339e-10	5.117133e+00	6.183322e+01
1.810000e-06	6.644463e-07	9.305990e-10	5.178930e+00	6.269556e+01
1.820000e-06	6.723022e-07	9.424625e-10	5.240162e+00	6.355322e+01
1.830000e-06	6.800572e-07	9.546908e-10	5.300607e+00	6.439065e+01
1.840000e-06	6.876796e-07	9.680700e-10	5.360019e+00	6.519687e+01
1.850000e-06	6.951676e-07	9.821557e-10	5.418383e+00	6.596907e+01
1.860000e-06	7.024922e-07	9.941062e-10	5.475474e+00	6.671279e+01
1.870000e-06	7.096610e-07	1.002882e-09	5.531350e+00	6.743890e+01
1.880000e-06	7.167038e-07	1.011517e-09	5.586244e+00	6.815850e+01
1.890000e-06	7.236489e-07	1.023132e-09	5.640377e+00	6.887815e+01
1.900000e-06	7.305034e-07	1.035346e-09	5.693803e+00	6.959725e+01
1.910000e-06	7.372223e-07	1.045003e-09	5.746172e+00	7.030864e+01
1.920000e-06	7.438370e-07	1.054260e-09	5.797730e+00	7.100234e+01
1.930000e-06	7.503330e-07	1.065109e-09	5.848362e+00	7.167060e+01
1.940000e-06	7.566553e-07	1.076155e-09	5.897640e+00	7.231234e+01
1.950000e-06	7.627783e-07	1.085530e-09	5.945365e+00	7.293484e+01
1.960000e-06	7.687207e-07	1.095872e-09	5.991682e+00	7.355191e+01
1.970000e-06	7.745125e-07	1.107729e-09	6.036825e+00	7.417893e+01
1.980000e-06	7.801563e-07	1.118568e-09	6.080815e+00	7.482671e+01
1.990000e-06	7.856658e-07	1.127848e-09	6.123758e+00	7.549641e+01
2.000000e-06	7.910505e-07	1.137041e-09	6.165728e+00	7.617774e+01
2.010000e-06	7.962799e-07	1.147508e-09	6.206488e+00	7.685123e+01
2.020000e-06	8.013567e-07	1.158263e-09	6.246058e+00	7.749407e+01
2.030000e-06	8.062964e-07	1.167901e-09	6.284560e+00	7.808732e+01
2.040000e-06	8.111084e-07	1.175437e-09	6.322067e+00	7.862216e+01
2.050000e-06	8.158051e-07	1.182691e-09	6.358674e+00	7.910271e+01
2.060000e-06	8.203597e-07	1.191690e-09	6.394175e+00	7.954443e+01
2.070000e-06	8.247345e-07	1.199407e-09	6.428273e+00	7.996872e+01
2.080000e-06	8.288818e-07	1.204130e-09	6.460599e+00	8.039553e+01
2.090000e-06	8.327866e-07	1.209984e-09	6.491035e+00	8.083679e+01
2.100000e-06	8.364464e-07	1.219575e-09	6.519560e+00	8.129293e+01
2.110000e-06	8.399021e-07	1.230003e-09	6.546495e+00	8.175357e+01
2.120000e-06	8.432169e-07	1.237498e-09	6.572332e+00	8.220211e+01
2.130000e-06	8.464200e-07	1.243942e-09	6.597298e+00	8.262231e+01
2.140000e-06	8.495385e-07	1.250740e-09	6.621604e+00	8.300435e+01
2.150000e-06	8.525618e-07	1.256572e-09	6.645169e+00	8.334814e+01
2.160000e-06	8.554429e-07	1.260387e-09	6.667626e+00	8.366285e+01
2.170000e-06	8.581603e-07	1.263410e-09	6.688806e+00	8.396282e+01
2.180000e-06	8.607145e-07	1.269344e-09	6.708714e+00	8.426183e+01
2.190000e-06	8.631394e-07	1.278225e-09	6.727615e+00	8.456781e+01
2.200000e-06	8.654253e-07	1.285045e-09	6.745432e+00	8.488014e+01
2.210000e-06	8.675477e-07	1.289527e-09	6.761975e+00	8.519041e+01
2.220000e-06	8.695063e-07	1.293389e-09	6.777241e+00	8.548623e+01
2.230000e-06	8.713147e-07	1.297377e-09	6.791336e+00	8.575636e+01
2.240000e-06	8.730027e-07	1.300270e-09	6.804493e+00	8.599506e+01
2.250000e-06	8.745896e-07	1.301550e-09	6.816862e+00	8.620383e+01
2.260000e-06	8.760875e-07	1.304735e-09	6.828537e+00	8.638998e+01
2.270000e-06	8.774687e-07	1.311021e-09	6.839302e+00	8.656254e+01
2.280000e-06	8.787053e-07	1.318631e-09	6.848941e+00	8.672747e+01
2.290000e-06	8.797316e-07	1.320948e-09	6.856940e+00	8.688416e+01
2.300000e-06	8.805015e-07	1.318721e-09	6.862942e+00	8.702483e+01
2.310000e-06	8.810500e-07	1.312304e-09	6.867216e+00	8.713716e+01
2.320000e-06	8.813874e-07	1.305882e-09	6.869846e+00	8.720937e+01
2.330000e-06	8.815515e-07	1.303782e-09	6.871126e+00	8.723551e+01
2.340000e-06	8.815932e-07	1.322774e-09	6.871450e+00	8.721892e+01
2.350000e-06	8.815119e-07	1.356557e-09	6.870817e+00	8.717232e+01
2.360000e-06	8.813067e-07	1.362846e-09	6.869217e+00	8.711423e+01
2.370000e-06	8.810026e-07	1.329152e-09	6.866847e+00	8.706288e+01
2.380000e-06	8.805929e-07	1.305138e-09	6.863653e+00	8.703003e+01
2.390000e-06	8.800263e-07	1.317552e-09	6.859238e+00	8.701677e+01
2.400000e-06	8.792539e-07	1.329301e-09	6.853217e+00	8.701321e+01
2.410000e-06	8.782889e-07	1.333552e-09	6.845695e+00	8.700206e+01
2.420000e-06	8.772156e-07	1.327114e-09	6.837330e+00	8.696508e+01
2.430000e-06	8.760357e-07	1.321406e-09	6.828133e+00	8.688974e+01
2.440000e-06	8.747344e-07	1.330455e-09	6.817991e+00	8.677391e+01
2.450000e-06	8.732948e-07	1.340985e-09	6.806769e+00	8.662662e+01
2.460000e-06	8.717231e-07	1.331737e-09	6.794519e+00	8.646473e+01
2.470000e-06	8.700655e-07	1.313132e-09	6.781599e+00	8.630663e+01
2.480000e-06	8.682921e-07	1.306245e-09	6.767777e+00	8.616535e+01
2.490000e-06	8.663545e-07	1.318027e-09	6.752675e+00	8.604369e+01
2.500000e-06	8.642152e-07	1.327354e-09	6.736000e+00	8.593306e+01
2.510000e-06	8.618436e-07	1.318760e-09	6.717515e+00	8.581639e+01
2.520000e-06	8.592146e-07	1.308039e-09	6.697024e+00	8.567418e+01
2.530000e-06	8.563549e-07	1.302270e-09	6.674734e+00	8.549117e+01
2.540000e-06	8.533353e-07	1.301503e-09	6.651198e+00	8.526142e+01
2.550000e-06	8.501946e-07	1.299885e-09	6.626719e+00	8.498980e+01
2.560000e-06	8.469612e-07	1.303963e-09	6.601516e+00	8.468957e+01
2.570000e-06	8.436207e-07	1.303473e-09	6.575479e+00	8.437709e+01
2.580000e-06	8.401393e-07	1.296606e-09	6.548344e+00	8.406566e+01
2.590000e-06	8.365112e-07	1.284614e-09	6.520066e+00	8.376082e+01
2.600000e-06	8.327449e-07	1.271943e-09	6.490709e+00	8.345893e+01
2.610000e-06	8.288540e-07	1.269233e-09	6.460382e+00	8.314922e+01
2.620000e-06	8.248100e-07	1.272908e-09	6.428862e+00	8.281859e+01
2.630000e-06	8.205939e-07	1.275422e-09	6.396000e+00	8.245707e+01
2.640000e-06	8.162388e-07	1.268679e-09	6.362055e+00	8.206182e+01
2.650000e-06	8.117166e-07	1.258140e-09	6.326808e+00	8.163825e+01
2.660000e-06	8.070340e-07	1.252050e-09	6.290309e+00	8.119777e+01
2.670000e-06	8.022230e-07	1.245844e-09	6.252811e+00	8.075324e+01
2.680000e-06	7.972603e-07	1.238343e-09	6.214130e+00	8.031390e+01
2.690000e-06	7.921245e-07	1.233401e-09	6.174099e+00	7.988175e+01
2.700000e-06	7.867776e-07	1.232022e-09	6.132424e+00	7.945075e+01
2.710000e-06	7.812052e-07	1.228539e-09	6.088990e+00	7.900910e+01
2.720000e-06	7.753997e-07	1.215636e-09	6.043741e+00	7.854367e+01
2.730000e-06	7.693819e-07	1.203312e-09	5.996836e+00	7.804469e+01
2.740000e-06	7.632045e-07	1.197513e-09	5.948687e+00	7.750907e+01
2.750000e-06	7.569041e-07	1.196783e-09	5.899579e+00	7.694102e+01
2.760000e-06	7.505085e-07	1.193663e-09	5.849730e+00	7.634984e+01
2.770000e-06	7.440370e-07	1.181808e-09	5.799289e+00	7.574584e+01
2.780000e-06	7.374731e-07	1.167863e-09	5.748127e+00	7.513623e+01
2.790000e-06	7.307795e-07	1.156544e-09	5.695955e+00	7.452236e+01
2.800000e-06	7.239710e-07	1.147729e-09	5.642887e+00	7.389971e+01
2.810000e-06	7.170286e-07	1.136725e-09	5.588775e+00	7.326025e+01
2.820000e-06	7.099426e-07	1.126482e-09	5.533544e+00	7.259651e+01
2.830000e-06	7.027535e-07	1.121022e-09	5.477510e+00	7.190535e+01
2.840000e-06	6.954697e-07	1.115760e-09	5.420738e+00	7.119007e+01
2.850000e-06	6.880806e-07	1.106027e-09	5.363144e+00	7.045988e+01
2.860000e-06	6.805553e-07	1.089811e-09	5.304490e+00	6.972679e+01
2.870000e-06	6.728812e-07	1.074873e-09	5.244675e+00	6.900123e+01
2.880000e-06	6.650860e-07	1.067635e-09	5.183916e+00	6.828799e+01
2.890000e-06	6.572004e-07	1.060316e-09	5.122453e+00	6.758409e+01
2.900000e-06	6.492546e-07	1.048703e-09	5.060521e+00	6.687946e+01
2.910000e-06	6.412594e-07	1.035027e-09	4.998204e+00	6.616023e+01
2.920000e-06	6.332029e-07	1.024437e-09	4.935408e+00	6.541349e+01
2.930000e-06	6.250804e-07	1.014056e-09	4.872098e+00	6.463164e+01
2.940000e-06	6.168665e-07	9.984897e-10	4.808076e+00	6.381484e+01
2.950000e-06	6.085118e-07	9.830950e-10	4.742957e+00	6.297063e+01
