# Temperatura_=_20.0
# Concentracion g/m^3_=_10000.0
# C_Vs_to_Am_M_A/Vsm_=_65563218390.804596
# pendiente_HvsI_1/m_=_3716.3
# ordenada_HvsI_A/m_=_1297.0
# frecuencia_Hz_=_212981.92303050778

Tiempo_(s)	Campo_(V.s)	Magnetizacion_(V.s)	Campo_(kA/m)	Magnetizacion_(A/m)
0.000000e+00	-8.809650e-07	-1.249381e-09	-6.862346e+00	-8.666420e+01
1.000000e-08	-8.810474e-07	-1.285875e-09	-6.862987e+00	-8.667784e+01
2.000000e-08	-8.810196e-07	-1.332411e-09	-6.862771e+00	-8.666247e+01
3.000000e-08	-8.808430e-07	-1.350076e-09	-6.861395e+00	-8.662547e+01
4.000000e-08	-8.804303e-07	-1.322832e-09	-6.858180e+00	-8.657658e+01
5.000000e-08	-8.797553e-07	-1.294877e-09	-6.852922e+00	-8.652439e+01
6.000000e-08	-8.788546e-07	-1.288634e-09	-6.845906e+00	-8.647325e+01
7.000000e-08	-8.777575e-07	-1.288472e-09	-6.837360e+00	-8.642191e+01
8.000000e-08	-8.765018e-07	-1.291397e-09	-6.827579e+00	-8.636444e+01
9.000000e-08	-8.750780e-07	-1.289271e-09	-6.816488e+00	-8.629301e+01
1.000000e-07	-8.735154e-07	-1.286239e-09	-6.804316e+00	-8.620147e+01
1.100000e-07	-8.718866e-07	-1.294618e-09	-6.791629e+00	-8.608819e+01
1.200000e-07	-8.701569e-07	-1.296860e-09	-6.778155e+00	-8.595692e+01
1.300000e-07	-8.682745e-07	-1.280436e-09	-6.763492e+00	-8.581524e+01
1.400000e-07	-8.662589e-07	-1.267198e-09	-6.747791e+00	-8.567117e+01
1.500000e-07	-8.641184e-07	-1.276687e-09	-6.731117e+00	-8.552921e+01
1.600000e-07	-8.617979e-07	-1.294819e-09	-6.713042e+00	-8.538750e+01
1.700000e-07	-8.592856e-07	-1.284268e-09	-6.693472e+00	-8.523738e+01
1.800000e-07	-8.565974e-07	-1.273572e-09	-6.672532e+00	-8.506573e+01
1.900000e-07	-8.537519e-07	-1.285622e-09	-6.650367e+00	-8.485926e+01
2.000000e-07	-8.507887e-07	-1.282675e-09	-6.627285e+00	-8.460938e+01
2.100000e-07	-8.477068e-07	-1.250698e-09	-6.603278e+00	-8.431564e+01
2.200000e-07	-8.445195e-07	-1.220254e-09	-6.578450e+00	-8.398643e+01
2.300000e-07	-8.412469e-07	-1.230532e-09	-6.552958e+00	-8.363645e+01
2.400000e-07	-8.378163e-07	-1.264024e-09	-6.526235e+00	-8.328186e+01
2.500000e-07	-8.341678e-07	-1.268879e-09	-6.497815e+00	-8.293474e+01
2.600000e-07	-8.303018e-07	-1.245575e-09	-6.467700e+00	-8.259891e+01
2.700000e-07	-8.262107e-07	-1.216644e-09	-6.435833e+00	-8.226871e+01
2.800000e-07	-8.219323e-07	-1.211661e-09	-6.402506e+00	-8.193113e+01
2.900000e-07	-8.174592e-07	-1.219503e-09	-6.367662e+00	-8.157060e+01
3.000000e-07	-8.127990e-07	-1.215120e-09	-6.331361e+00	-8.117471e+01
3.100000e-07	-8.079917e-07	-1.204649e-09	-6.293914e+00	-8.073864e+01
3.200000e-07	-8.030454e-07	-1.195185e-09	-6.255385e+00	-8.026686e+01
3.300000e-07	-7.979660e-07	-1.197765e-09	-6.215819e+00	-7.977133e+01
3.400000e-07	-7.927280e-07	-1.192558e-09	-6.175016e+00	-7.926702e+01
3.500000e-07	-7.873517e-07	-1.175896e-09	-6.133138e+00	-7.876643e+01
3.600000e-07	-7.818412e-07	-1.163297e-09	-6.090212e+00	-7.827511e+01
3.700000e-07	-7.761607e-07	-1.161770e-09	-6.045964e+00	-7.778985e+01
3.800000e-07	-7.703135e-07	-1.167919e-09	-6.000417e+00	-7.730010e+01
3.900000e-07	-7.642846e-07	-1.157696e-09	-5.953454e+00	-7.679204e+01
4.000000e-07	-7.580331e-07	-1.133603e-09	-5.904758e+00	-7.625361e+01
4.100000e-07	-7.516239e-07	-1.117861e-09	-5.854833e+00	-7.567875e+01
4.200000e-07	-7.450817e-07	-1.117112e-09	-5.803872e+00	-7.506913e+01
4.300000e-07	-7.383730e-07	-1.121177e-09	-5.751614e+00	-7.443308e+01
4.400000e-07	-7.315463e-07	-1.108629e-09	-5.698436e+00	-7.378203e+01
4.500000e-07	-7.246436e-07	-1.089796e-09	-5.644668e+00	-7.312625e+01
4.600000e-07	-7.176315e-07	-1.080345e-09	-5.590047e+00	-7.247130e+01
4.700000e-07	-7.104839e-07	-1.076142e-09	-5.534369e+00	-7.181675e+01
4.800000e-07	-7.032236e-07	-1.065351e-09	-5.477815e+00	-7.115732e+01
4.900000e-07	-6.958619e-07	-1.042826e-09	-5.420470e+00	-7.048602e+01
5.000000e-07	-6.883687e-07	-1.033845e-09	-5.362101e+00	-6.979772e+01
5.100000e-07	-6.807151e-07	-1.037273e-09	-5.302483e+00	-6.909175e+01
5.200000e-07	-6.729260e-07	-1.031816e-09	-5.241809e+00	-6.837229e+01
5.300000e-07	-6.650495e-07	-1.010329e-09	-5.180454e+00	-6.764672e+01
5.400000e-07	-6.571130e-07	-9.856798e-10	-5.118633e+00	-6.692227e+01
5.500000e-07	-6.491303e-07	-9.777984e-10	-5.056451e+00	-6.620278e+01
5.600000e-07	-6.410703e-07	-9.741493e-10	-4.993667e+00	-6.548661e+01
5.700000e-07	-6.329102e-07	-9.617084e-10	-4.930103e+00	-6.476685e+01
5.800000e-07	-6.246468e-07	-9.450929e-10	-4.865735e+00	-6.403348e+01
5.900000e-07	-6.162545e-07	-9.344020e-10	-4.800362e+00	-6.327692e+01
6.000000e-07	-6.077512e-07	-9.307160e-10	-4.734125e+00	-6.249124e+01
6.100000e-07	-5.991405e-07	-9.186127e-10	-4.667051e+00	-6.167603e+01
6.200000e-07	-5.904236e-07	-8.985572e-10	-4.599151e+00	-6.083602e+01
6.300000e-07	-5.816082e-07	-8.814140e-10	-4.530482e+00	-5.997889e+01
6.400000e-07	-5.727086e-07	-8.727960e-10	-4.461159e+00	-5.911195e+01
6.500000e-07	-5.637413e-07	-8.642975e-10	-4.391306e+00	-5.823942e+01
6.600000e-07	-5.546422e-07	-8.452287e-10	-4.320428e+00	-5.736109e+01
6.700000e-07	-5.454163e-07	-8.259192e-10	-4.248563e+00	-5.647310e+01
6.800000e-07	-5.361111e-07	-8.131991e-10	-4.176079e+00	-5.557027e+01
6.900000e-07	-5.267099e-07	-8.039310e-10	-4.102848e+00	-5.464907e+01
7.000000e-07	-5.172279e-07	-7.908697e-10	-4.028987e+00	-5.370974e+01
7.100000e-07	-5.076863e-07	-7.707195e-10	-3.954662e+00	-5.275679e+01
7.200000e-07	-4.980993e-07	-7.549650e-10	-3.879983e+00	-5.179745e+01
7.300000e-07	-4.884596e-07	-7.439613e-10	-3.804894e+00	-5.083879e+01
7.400000e-07	-4.787454e-07	-7.300057e-10	-3.729224e+00	-4.988471e+01
7.500000e-07	-4.689578e-07	-7.090515e-10	-3.652983e+00	-4.893409e+01
7.600000e-07	-4.590676e-07	-6.879952e-10	-3.575943e+00	-4.798091e+01
7.700000e-07	-4.490702e-07	-6.758844e-10	-3.498067e+00	-4.701652e+01
7.800000e-07	-4.389542e-07	-6.643582e-10	-3.419268e+00	-4.603305e+01
7.900000e-07	-4.287185e-07	-6.480719e-10	-3.339536e+00	-4.502676e+01
8.000000e-07	-4.183702e-07	-6.307062e-10	-3.258927e+00	-4.399992e+01
8.100000e-07	-4.078871e-07	-6.172840e-10	-3.177268e+00	-4.296040e+01
8.200000e-07	-3.972828e-07	-6.050021e-10	-3.094665e+00	-4.191906e+01
8.300000e-07	-3.865520e-07	-5.861154e-10	-3.011077e+00	-4.088598e+01
8.400000e-07	-3.757221e-07	-5.641148e-10	-2.926717e+00	-3.986684e+01
8.500000e-07	-3.648204e-07	-5.468352e-10	-2.841797e+00	-3.886088e+01
8.600000e-07	-3.538320e-07	-5.352809e-10	-2.756202e+00	-3.786120e+01
8.700000e-07	-3.427694e-07	-5.230449e-10	-2.670029e+00	-3.685736e+01
8.800000e-07	-3.316647e-07	-5.066681e-10	-2.583528e+00	-3.583909e+01
8.900000e-07	-3.205254e-07	-4.929707e-10	-2.496757e+00	-3.479979e+01
9.000000e-07	-3.093436e-07	-4.812923e-10	-2.409656e+00	-3.373863e+01
9.100000e-07	-2.981433e-07	-4.676837e-10	-2.322411e+00	-3.266026e+01
9.200000e-07	-2.869312e-07	-4.497833e-10	-2.235073e+00	-3.157265e+01
9.300000e-07	-2.756931e-07	-4.305092e-10	-2.147532e+00	-3.048381e+01
9.400000e-07	-2.644327e-07	-4.156574e-10	-2.059819e+00	-2.939885e+01
9.500000e-07	-2.531397e-07	-3.998619e-10	-1.971852e+00	-2.831847e+01
9.600000e-07	-2.418212e-07	-3.814816e-10	-1.883685e+00	-2.723942e+01
9.700000e-07	-2.304780e-07	-3.647242e-10	-1.795327e+00	-2.615660e+01
9.800000e-07	-2.190840e-07	-3.523776e-10	-1.706572e+00	-2.506581e+01
9.900000e-07	-2.076481e-07	-3.415478e-10	-1.617491e+00	-2.396599e+01
1.000000e-06	-1.961757e-07	-3.270382e-10	-1.528126e+00	-2.285981e+01
1.010000e-06	-1.846813e-07	-3.099081e-10	-1.438589e+00	-2.175264e+01
1.020000e-06	-1.731608e-07	-2.915147e-10	-1.348849e+00	-2.065013e+01
1.030000e-06	-1.615787e-07	-2.746183e-10	-1.258630e+00	-1.955559e+01
1.040000e-06	-1.499560e-07	-2.578539e-10	-1.168094e+00	-1.846841e+01
1.050000e-06	-1.383133e-07	-2.405605e-10	-1.077402e+00	-1.738405e+01
1.060000e-06	-1.266502e-07	-2.259026e-10	-9.865513e-01	-1.629586e+01
1.070000e-06	-1.149897e-07	-2.121075e-10	-8.957210e-01	-1.519778e+01
1.080000e-06	-1.032935e-07	-1.987692e-10	-8.046125e-01	-1.408689e+01
1.090000e-06	-9.154506e-08	-1.829690e-10	-7.130973e-01	-1.296460e+01
1.100000e-06	-7.976695e-08	-1.650959e-10	-6.213509e-01	-1.183592e+01
1.110000e-06	-6.795553e-08	-1.483036e-10	-5.293449e-01	-1.070703e+01
1.120000e-06	-5.615080e-08	-1.326350e-10	-4.373910e-01	-9.582106e+00
1.130000e-06	-4.435696e-08	-1.177099e-10	-3.455220e-01	-8.460879e+00
1.140000e-06	-3.252905e-08	-1.009260e-10	-2.533876e-01	-7.337866e+00
1.150000e-06	-2.067819e-08	-8.298835e-11	-1.610744e-01	-6.203949e+00
1.160000e-06	-8.854366e-09	-6.614957e-11	-6.897178e-02	-5.049750e+00
1.170000e-06	2.962283e-09	-5.156903e-11	2.307493e-02	-3.869603e+00
1.180000e-06	1.479952e-08	-3.657943e-11	1.152820e-01	-2.664566e+00
1.190000e-06	2.662999e-08	-1.962902e-11	2.074364e-01	-1.443212e+00
1.200000e-06	3.842566e-08	-1.625893e-12	2.993197e-01	-2.197056e-01
1.210000e-06	5.020813e-08	1.683728e-11	3.911001e-01	9.902585e-01
1.220000e-06	6.199275e-08	3.388040e-11	4.828973e-01	2.174290e+00
1.230000e-06	7.378055e-08	5.166797e-11	5.747193e-01	3.327157e+00
1.240000e-06	8.553852e-08	7.010567e-11	6.663090e-01	4.452245e+00
1.250000e-06	9.724779e-08	8.783050e-11	7.575192e-01	5.560053e+00
1.260000e-06	1.089479e-07	1.040771e-10	8.486583e-01	6.664247e+00
1.270000e-06	1.206196e-07	1.185700e-10	9.395760e-01	7.776680e+00
1.280000e-06	1.322608e-07	1.331720e-10	1.030255e+00	8.903186e+00
1.290000e-06	1.438792e-07	1.503705e-10	1.120758e+00	1.004165e+01
1.300000e-06	1.554750e-07	1.681192e-10	1.211084e+00	1.118307e+01
1.310000e-06	1.670558e-07	1.842511e-10	1.301294e+00	1.231507e+01
1.320000e-06	1.785894e-07	2.005105e-10	1.391136e+00	1.342674e+01
1.330000e-06	1.900974e-07	2.179278e-10	1.480778e+00	1.451283e+01
1.340000e-06	2.015698e-07	2.358247e-10	1.570144e+00	1.557591e+01
1.350000e-06	2.129797e-07	2.509558e-10	1.659022e+00	1.662567e+01
1.360000e-06	2.243502e-07	2.660482e-10	1.747594e+00	1.767579e+01
1.370000e-06	2.356965e-07	2.822403e-10	1.835977e+00	1.873941e+01
1.380000e-06	2.470161e-07	2.969766e-10	1.924151e+00	1.982490e+01
1.390000e-06	2.582961e-07	3.117953e-10	2.012018e+00	2.093345e+01
1.400000e-06	2.695533e-07	3.276993e-10	2.099707e+00	2.205918e+01
1.410000e-06	2.807987e-07	3.439094e-10	2.187304e+00	2.319153e+01
1.420000e-06	2.920167e-07	3.597376e-10	2.274687e+00	2.431915e+01
1.430000e-06	3.032061e-07	3.763049e-10	2.361847e+00	2.543359e+01
1.440000e-06	3.143805e-07	3.939103e-10	2.448891e+00	2.653175e+01
1.450000e-06	3.255521e-07	4.113017e-10	2.535913e+00	2.761613e+01
1.460000e-06	3.366983e-07	4.265868e-10	2.622737e+00	2.869308e+01
1.470000e-06	3.478061e-07	4.408319e-10	2.709263e+00	2.976990e+01
1.480000e-06	3.588850e-07	4.567300e-10	2.795563e+00	3.085180e+01
1.490000e-06	3.698772e-07	4.742660e-10	2.881187e+00	3.193996e+01
1.500000e-06	3.807601e-07	4.904628e-10	2.965960e+00	3.303132e+01
1.510000e-06	3.915486e-07	5.047278e-10	3.049998e+00	3.411983e+01
1.520000e-06	4.022136e-07	5.184191e-10	3.133074e+00	3.519885e+01
1.530000e-06	4.127469e-07	5.319039e-10	3.215124e+00	3.626347e+01
1.540000e-06	4.231366e-07	5.472223e-10	3.296056e+00	3.731197e+01
1.550000e-06	4.334022e-07	5.648773e-10	3.376020e+00	3.834602e+01
1.560000e-06	4.435532e-07	5.827707e-10	3.455092e+00	3.936956e+01
1.570000e-06	4.535585e-07	5.992980e-10	3.533030e+00	4.038694e+01
1.580000e-06	4.634275e-07	6.143291e-10	3.609904e+00	4.140115e+01
1.590000e-06	4.731961e-07	6.267996e-10	3.685998e+00	4.241265e+01
1.600000e-06	4.828923e-07	6.375721e-10	3.761527e+00	4.341936e+01
1.610000e-06	4.925299e-07	6.486431e-10	3.836600e+00	4.441753e+01
1.620000e-06	5.021100e-07	6.627658e-10	3.911225e+00	4.540323e+01
1.630000e-06	5.116261e-07	6.809051e-10	3.985351e+00	4.637372e+01
1.640000e-06	5.211061e-07	6.988078e-10	4.059196e+00	4.732837e+01
1.650000e-06	5.305036e-07	7.145824e-10	4.132399e+00	4.826861e+01
1.660000e-06	5.397715e-07	7.293437e-10	4.204592e+00	4.919735e+01
1.670000e-06	5.489569e-07	7.434652e-10	4.276142e+00	5.011785e+01
1.680000e-06	5.580521e-07	7.550063e-10	4.346990e+00	5.103269e+01
1.690000e-06	5.670465e-07	7.653816e-10	4.417053e+00	5.194314e+01
1.700000e-06	5.759396e-07	7.770154e-10	4.486326e+00	5.284902e+01
1.710000e-06	5.847333e-07	7.901427e-10	4.554826e+00	5.374908e+01
1.720000e-06	5.934442e-07	8.039592e-10	4.622679e+00	5.464165e+01
1.730000e-06	6.020752e-07	8.169650e-10	4.689911e+00	5.552520e+01
1.740000e-06	6.106150e-07	8.301696e-10	4.756433e+00	5.639883e+01
1.750000e-06	6.190166e-07	8.437245e-10	4.821878e+00	5.726229e+01
1.760000e-06	6.272964e-07	8.577383e-10	4.886374e+00	5.811595e+01
1.770000e-06	6.354842e-07	8.717071e-10	4.950153e+00	5.896053e+01
1.780000e-06	6.435978e-07	8.838982e-10	5.013355e+00	5.979689e+01
1.790000e-06	6.516646e-07	8.938999e-10	5.076192e+00	6.062593e+01
1.800000e-06	6.596683e-07	9.039125e-10	5.138538e+00	6.144837e+01
1.810000e-06	6.675933e-07	9.149855e-10	5.200270e+00	6.226472e+01
1.820000e-06	6.754242e-07	9.266648e-10	5.261269e+00	6.307495e+01
1.830000e-06	6.831434e-07	9.396523e-10	5.321398e+00	6.387833e+01
1.840000e-06	6.907264e-07	9.539482e-10	5.380467e+00	6.467311e+01
1.850000e-06	6.981622e-07	9.678502e-10	5.438389e+00	6.545651e+01
1.860000e-06	7.054451e-07	9.795993e-10	5.495120e+00	6.622491e+01
1.870000e-06	7.125984e-07	9.900085e-10	5.550841e+00	6.697438e+01
1.880000e-06	7.196415e-07	1.000543e-09	5.605703e+00	6.770143e+01
1.890000e-06	7.265725e-07	1.009935e-09	5.659693e+00	6.840388e+01
1.900000e-06	7.334198e-07	1.018694e-09	5.713030e+00	6.908154e+01
1.910000e-06	7.401414e-07	1.028741e-09	5.765389e+00	6.973651e+01
1.920000e-06	7.467116e-07	1.040340e-09	5.816568e+00	7.037305e+01
1.930000e-06	7.530935e-07	1.052700e-09	5.866280e+00	7.099699e+01
1.940000e-06	7.593041e-07	1.063265e-09	5.914658e+00	7.161466e+01
1.950000e-06	7.653527e-07	1.072519e-09	5.961774e+00	7.223177e+01
1.960000e-06	7.712323e-07	1.084451e-09	6.007574e+00	7.285227e+01
1.970000e-06	7.769694e-07	1.097652e-09	6.052264e+00	7.347744e+01
1.980000e-06	7.825685e-07	1.108947e-09	6.095878e+00	7.410551e+01
1.990000e-06	7.880431e-07	1.118002e-09	6.138523e+00	7.473181e+01
2.000000e-06	7.933659e-07	1.127143e-09	6.179985e+00	7.534949e+01
2.010000e-06	7.985354e-07	1.138183e-09	6.220254e+00	7.595084e+01
2.020000e-06	8.035570e-07	1.148941e-09	6.259370e+00	7.652886e+01
2.030000e-06	8.084743e-07	1.157750e-09	6.297674e+00	7.707891e+01
2.040000e-06	8.132825e-07	1.166514e-09	6.335127e+00	7.759991e+01
2.050000e-06	8.179504e-07	1.176377e-09	6.371488e+00	7.809481e+01
2.060000e-06	8.224212e-07	1.184760e-09	6.406314e+00	7.857000e+01
2.070000e-06	8.266643e-07	1.191061e-09	6.439366e+00	7.903377e+01
2.080000e-06	8.306727e-07	1.197827e-09	6.470589e+00	7.949399e+01
2.090000e-06	8.344351e-07	1.205972e-09	6.499897e+00	7.995575e+01
2.100000e-06	8.380084e-07	1.215291e-09	6.527732e+00	8.041962e+01
2.110000e-06	8.414391e-07	1.225436e-09	6.554456e+00	8.088113e+01
2.120000e-06	8.447452e-07	1.233657e-09	6.580208e+00	8.133182e+01
2.130000e-06	8.479433e-07	1.240447e-09	6.605120e+00	8.176170e+01
2.140000e-06	8.510430e-07	1.247706e-09	6.629266e+00	8.216235e+01
2.150000e-06	8.540400e-07	1.254207e-09	6.652611e+00	8.252984e+01
2.160000e-06	8.568869e-07	1.259751e-09	6.674787e+00	8.286631e+01
2.170000e-06	8.595640e-07	1.265798e-09	6.695640e+00	8.317968e+01
2.180000e-06	8.621005e-07	1.272781e-09	6.715399e+00	8.348145e+01
2.190000e-06	8.644915e-07	1.279651e-09	6.734024e+00	8.378313e+01
2.200000e-06	8.667111e-07	1.284915e-09	6.751314e+00	8.409249e+01
2.210000e-06	8.687642e-07	1.288033e-09	6.767306e+00	8.441092e+01
2.220000e-06	8.706932e-07	1.291205e-09	6.782332e+00	8.473277e+01
2.230000e-06	8.725116e-07	1.295313e-09	6.796497e+00	8.504695e+01
2.240000e-06	8.742176e-07	1.299756e-09	6.809786e+00	8.534036e+01
2.250000e-06	8.758159e-07	1.304737e-09	6.822236e+00	8.560194e+01
2.260000e-06	8.772996e-07	1.311098e-09	6.833794e+00	8.582589e+01
2.270000e-06	8.786297e-07	1.317932e-09	6.844154e+00	8.601307e+01
2.280000e-06	8.797668e-07	1.323137e-09	6.853012e+00	8.617005e+01
2.290000e-06	8.806783e-07	1.318745e-09	6.860112e+00	8.630616e+01
2.300000e-06	8.813380e-07	1.310704e-09	6.865251e+00	8.642978e+01
2.310000e-06	8.817511e-07	1.304723e-09	6.868469e+00	8.654516e+01
2.320000e-06	8.819809e-07	1.304279e-09	6.870259e+00	8.665099e+01
2.330000e-06	8.821040e-07	1.322694e-09	6.871218e+00	8.674135e+01
2.340000e-06	8.821338e-07	1.364772e-09	6.871450e+00	8.680835e+01
2.350000e-06	8.820351e-07	1.384263e-09	6.870681e+00	8.684575e+01
2.360000e-06	8.817940e-07	1.335872e-09	6.868803e+00	8.685177e+01
2.370000e-06	8.814285e-07	1.292085e-09	6.865956e+00	8.683023e+01
2.380000e-06	8.809331e-07	1.284850e-09	6.862097e+00	8.678941e+01
2.390000e-06	8.802687e-07	1.310945e-09	6.856922e+00	8.673909e+01
2.400000e-06	8.794226e-07	1.332588e-09	6.850331e+00	8.668705e+01
2.410000e-06	8.784188e-07	1.327186e-09	6.842512e+00	8.663627e+01
2.420000e-06	8.773021e-07	1.320443e-09	6.833813e+00	8.658416e+01
2.430000e-06	8.760915e-07	1.320530e-09	6.824383e+00	8.652401e+01
2.440000e-06	8.747594e-07	1.336359e-09	6.814007e+00	8.644807e+01
2.450000e-06	8.733058e-07	1.335006e-09	6.802684e+00	8.635112e+01
2.460000e-06	8.717322e-07	1.316356e-09	6.790426e+00	8.623288e+01
2.470000e-06	8.700250e-07	1.301297e-09	6.777128e+00	8.609829e+01
2.480000e-06	8.681620e-07	1.305318e-09	6.762616e+00	8.595541e+01
2.490000e-06	8.661084e-07	1.321600e-09	6.746619e+00	8.581174e+01
2.500000e-06	8.638448e-07	1.318507e-09	6.728986e+00	8.567037e+01
2.510000e-06	8.613618e-07	1.300088e-09	6.709645e+00	8.552769e+01
2.520000e-06	8.586385e-07	1.288056e-09	6.688431e+00	8.537359e+01
2.530000e-06	8.557186e-07	1.288775e-09	6.665687e+00	8.519445e+01
2.540000e-06	8.526899e-07	1.297957e-09	6.642094e+00	8.497774e+01
2.550000e-06	8.495521e-07	1.303851e-09	6.617652e+00	8.471666e+01
2.560000e-06	8.462852e-07	1.306834e-09	6.592205e+00	8.441304e+01
2.570000e-06	8.429003e-07	1.299095e-09	6.565837e+00	8.407718e+01
2.580000e-06	8.393761e-07	1.286666e-09	6.538385e+00	8.372468e+01
2.590000e-06	8.356886e-07	1.271677e-09	6.509661e+00	8.337118e+01
2.600000e-06	8.318592e-07	1.263455e-09	6.479832e+00	8.302697e+01
2.610000e-06	8.278881e-07	1.268413e-09	6.448899e+00	8.269352e+01
2.620000e-06	8.237716e-07	1.271538e-09	6.416833e+00	8.236297e+01
2.630000e-06	8.195036e-07	1.268131e-09	6.383587e+00	8.202116e+01
2.640000e-06	8.150997e-07	1.255229e-09	6.349282e+00	8.165280e+01
2.650000e-06	8.105555e-07	1.244556e-09	6.313885e+00	8.124703e+01
2.660000e-06	8.058513e-07	1.242230e-09	6.277241e+00	8.080135e+01
2.670000e-06	8.009883e-07	1.240051e-09	6.239361e+00	8.032238e+01
2.680000e-06	7.959277e-07	1.234712e-09	6.199941e+00	7.982334e+01
2.690000e-06	7.906478e-07	1.226646e-09	6.158812e+00	7.931908e+01
2.700000e-06	7.851604e-07	1.219300e-09	6.116068e+00	7.882070e+01
2.710000e-06	7.794606e-07	1.209265e-09	6.071669e+00	7.833161e+01
2.720000e-06	7.735655e-07	1.193985e-09	6.025749e+00	7.784650e+01
2.730000e-06	7.675051e-07	1.185881e-09	5.978540e+00	7.735357e+01
2.740000e-06	7.612741e-07	1.185793e-09	5.930003e+00	7.683895e+01
2.750000e-06	7.549352e-07	1.189373e-09	5.880627e+00	7.629177e+01
2.760000e-06	7.485352e-07	1.185563e-09	5.830773e+00	7.570784e+01
2.770000e-06	7.420389e-07	1.171173e-09	5.780170e+00	7.509072e+01
2.780000e-06	7.354346e-07	1.157026e-09	5.728725e+00	7.444990e+01
2.790000e-06	7.287223e-07	1.145778e-09	5.676439e+00	7.379692e+01
2.800000e-06	7.218770e-07	1.137212e-09	5.623117e+00	7.314114e+01
2.810000e-06	7.149008e-07	1.124526e-09	5.568775e+00	7.248664e+01
2.820000e-06	7.078185e-07	1.114240e-09	5.513607e+00	7.183157e+01
2.830000e-06	7.006205e-07	1.109797e-09	5.457538e+00	7.116989e+01
2.840000e-06	6.932984e-07	1.102263e-09	5.400501e+00	7.049476e+01
2.850000e-06	6.858590e-07	1.089806e-09	5.342552e+00	6.980199e+01
2.860000e-06	6.782850e-07	1.075585e-09	5.283554e+00	6.909216e+01
2.870000e-06	6.705912e-07	1.066064e-09	5.223623e+00	6.837051e+01
2.880000e-06	6.628072e-07	1.058844e-09	5.162989e+00	6.764470e+01
2.890000e-06	6.549394e-07	1.047743e-09	5.101702e+00	6.692141e+01
2.900000e-06	6.470055e-07	1.034535e-09	5.039899e+00	6.620321e+01
2.910000e-06	6.390206e-07	1.021542e-09	4.977701e+00	6.548705e+01
2.920000e-06	6.309734e-07	1.011231e-09	4.915016e+00	6.476495e+01
2.930000e-06	6.228075e-07	9.988170e-10	4.851407e+00	6.402667e+01
2.940000e-06	6.145124e-07	9.859064e-10	4.786792e+00	6.326326e+01
2.950000e-06	6.060588e-07	9.765783e-10	4.720942e+00	6.247009e+01
