# Temperatura_=_20.0
# Concentracion g/m^3_=_10000.0
# C_Vs_to_Am_M_A/Vsm_=_65563218390.804596
# pendiente_HvsI_1/m_=_3716.3
# ordenada_HvsI_A/m_=_1297.0
# frecuencia_Hz_=_269361.0121334946

Tiempo_(s)	Campo_(V.s)	Magnetizacion_(V.s)	Campo_(kA/m)	Magnetizacion_(A/m)
0.000000e+00	-4.320239e-06	-8.739608e-09	-3.089743e+01	-5.693425e+02
1.000000e-08	-4.319425e-06	-8.738985e-09	-3.089160e+01	-5.692762e+02
2.000000e-08	-4.317254e-06	-8.737446e-09	-3.087608e+01	-5.691349e+02
3.000000e-08	-4.313686e-06	-8.734541e-09	-3.085056e+01	-5.689201e+02
4.000000e-08	-4.309145e-06	-8.732054e-09	-3.081809e+01	-5.686311e+02
5.000000e-08	-4.303550e-06	-8.727058e-09	-3.077807e+01	-5.682718e+02
6.000000e-08	-4.296755e-06	-8.717481e-09	-3.072947e+01	-5.678517e+02
7.000000e-08	-4.288913e-06	-8.694983e-09	-3.067339e+01	-5.673774e+02
8.000000e-08	-4.279995e-06	-8.671430e-09	-3.060961e+01	-5.668433e+02
9.000000e-08	-4.269420e-06	-8.717622e-09	-3.053398e+01	-5.662295e+02
1.000000e-07	-4.256910e-06	-8.740116e-09	-3.044452e+01	-5.655129e+02
1.100000e-07	-4.242814e-06	-8.703813e-09	-3.034370e+01	-5.646856e+02
1.200000e-07	-4.227424e-06	-8.550018e-09	-3.023364e+01	-5.637706e+02
1.300000e-07	-4.210982e-06	-8.544118e-09	-3.011605e+01	-5.628203e+02
1.400000e-07	-4.193474e-06	-8.750858e-09	-2.999083e+01	-5.618952e+02
1.500000e-07	-4.174841e-06	-8.632339e-09	-2.985757e+01	-5.610303e+02
1.600000e-07	-4.155336e-06	-8.417029e-09	-2.971808e+01	-5.602085e+02
1.700000e-07	-4.134897e-06	-8.604007e-09	-2.957190e+01	-5.593567e+02
1.800000e-07	-4.113261e-06	-8.621226e-09	-2.941716e+01	-5.583702e+02
1.900000e-07	-4.090757e-06	-8.365513e-09	-2.925622e+01	-5.571560e+02
2.000000e-07	-4.067458e-06	-8.504489e-09	-2.908959e+01	-5.556730e+02
2.100000e-07	-4.042872e-06	-8.503566e-09	-2.891376e+01	-5.539477e+02
2.200000e-07	-4.016884e-06	-8.279903e-09	-2.872790e+01	-5.520579e+02
2.300000e-07	-3.989638e-06	-8.434941e-09	-2.853304e+01	-5.500935e+02
2.400000e-07	-3.961241e-06	-8.456847e-09	-2.832995e+01	-5.481150e+02
2.500000e-07	-3.931847e-06	-8.267907e-09	-2.811973e+01	-5.461329e+02
2.600000e-07	-3.901411e-06	-8.348700e-09	-2.790206e+01	-5.441155e+02
2.700000e-07	-3.869872e-06	-8.284592e-09	-2.767650e+01	-5.420197e+02
2.800000e-07	-3.837475e-06	-8.182221e-09	-2.744480e+01	-5.398226e+02
2.900000e-07	-3.804038e-06	-8.262488e-09	-2.720567e+01	-5.375364e+02
3.000000e-07	-3.769133e-06	-8.147223e-09	-2.695604e+01	-5.351973e+02
3.100000e-07	-3.732942e-06	-8.073840e-09	-2.669721e+01	-5.328376e+02
3.200000e-07	-3.695672e-06	-8.162652e-09	-2.643066e+01	-5.304585e+02
3.300000e-07	-3.657294e-06	-8.082492e-09	-2.615619e+01	-5.280226e+02
3.400000e-07	-3.617859e-06	-7.974116e-09	-2.587416e+01	-5.254706e+02
3.500000e-07	-3.577573e-06	-7.980447e-09	-2.558604e+01	-5.227538e+02
3.600000e-07	-3.536409e-06	-7.906449e-09	-2.529164e+01	-5.198611e+02
3.700000e-07	-3.493939e-06	-7.871015e-09	-2.498791e+01	-5.168260e+02
3.800000e-07	-3.450202e-06	-7.864760e-09	-2.467511e+01	-5.137084e+02
3.900000e-07	-3.405461e-06	-7.765638e-09	-2.435513e+01	-5.105607e+02
4.000000e-07	-3.359733e-06	-7.710566e-09	-2.402809e+01	-5.073993e+02
4.100000e-07	-3.313035e-06	-7.720131e-09	-2.369412e+01	-5.041965e+02
4.200000e-07	-3.265428e-06	-7.655580e-09	-2.335364e+01	-5.008968e+02
4.300000e-07	-3.216979e-06	-7.544994e-09	-2.300715e+01	-4.974481e+02
4.400000e-07	-3.167375e-06	-7.517739e-09	-2.265239e+01	-4.938297e+02
4.500000e-07	-3.116338e-06	-7.482723e-09	-2.228738e+01	-4.900610e+02
4.600000e-07	-3.064272e-06	-7.424192e-09	-2.191502e+01	-4.861882e+02
4.700000e-07	-3.011415e-06	-7.354559e-09	-2.153700e+01	-4.822564e+02
4.800000e-07	-2.957643e-06	-7.273744e-09	-2.115243e+01	-4.782848e+02
4.900000e-07	-2.903014e-06	-7.223766e-09	-2.076174e+01	-4.742577e+02
5.000000e-07	-2.847641e-06	-7.174997e-09	-2.036572e+01	-4.701347e+02
5.100000e-07	-2.791706e-06	-7.100090e-09	-1.996569e+01	-4.658738e+02
5.200000e-07	-2.735236e-06	-7.024931e-09	-1.956183e+01	-4.614523e+02
5.300000e-07	-2.677795e-06	-6.959986e-09	-1.915102e+01	-4.568755e+02
5.400000e-07	-2.619197e-06	-6.888666e-09	-1.873194e+01	-4.521688e+02
5.500000e-07	-2.559800e-06	-6.826976e-09	-1.830714e+01	-4.473603e+02
5.600000e-07	-2.499823e-06	-6.742267e-09	-1.787820e+01	-4.424638e+02
5.700000e-07	-2.439252e-06	-6.651472e-09	-1.744501e+01	-4.374719e+02
5.800000e-07	-2.378049e-06	-6.581739e-09	-1.700730e+01	-4.323612e+02
5.900000e-07	-2.316231e-06	-6.517618e-09	-1.656519e+01	-4.271050e+02
6.000000e-07	-2.253789e-06	-6.425483e-09	-1.611862e+01	-4.216862e+02
6.100000e-07	-2.190678e-06	-6.319811e-09	-1.566726e+01	-4.161020e+02
6.200000e-07	-2.126941e-06	-6.237738e-09	-1.521143e+01	-4.103613e+02
6.300000e-07	-2.062674e-06	-6.158197e-09	-1.475180e+01	-4.044759e+02
6.400000e-07	-1.997878e-06	-6.073563e-09	-1.428840e+01	-3.984529e+02
6.500000e-07	-1.932349e-06	-5.971771e-09	-1.381975e+01	-3.922912e+02
6.600000e-07	-1.865920e-06	-5.870855e-09	-1.334466e+01	-3.859833e+02
6.700000e-07	-1.798753e-06	-5.777818e-09	-1.286430e+01	-3.795209e+02
6.800000e-07	-1.731127e-06	-5.678097e-09	-1.238065e+01	-3.728988e+02
6.900000e-07	-1.663159e-06	-5.564839e-09	-1.189456e+01	-3.661159e+02
7.000000e-07	-1.594828e-06	-5.449587e-09	-1.140587e+01	-3.591730e+02
7.100000e-07	-1.526080e-06	-5.348289e-09	-1.091420e+01	-3.520683e+02
7.200000e-07	-1.456908e-06	-5.246628e-09	-1.041950e+01	-3.447944e+02
7.300000e-07	-1.387297e-06	-5.132548e-09	-9.921655e+00	-3.373381e+02
7.400000e-07	-1.317270e-06	-5.003727e-09	-9.420831e+00	-3.296834e+02
7.500000e-07	-1.246898e-06	-4.879837e-09	-8.917551e+00	-3.218167e+02
7.600000e-07	-1.176124e-06	-4.762112e-09	-8.411390e+00	-3.137331e+02
7.700000e-07	-1.104966e-06	-4.638471e-09	-7.902482e+00	-3.054388e+02
7.800000e-07	-1.033535e-06	-4.502912e-09	-7.391625e+00	-2.969501e+02
7.900000e-07	-9.618444e-07	-4.366645e-09	-6.878906e+00	-2.882867e+02
8.000000e-07	-8.899902e-07	-4.238707e-09	-6.365020e+00	-2.794609e+02
8.100000e-07	-8.179861e-07	-4.106058e-09	-5.850062e+00	-2.704684e+02
8.200000e-07	-7.458204e-07	-3.962498e-09	-5.333948e+00	-2.612851e+02
8.300000e-07	-6.735581e-07	-3.810719e-09	-4.817144e+00	-2.518723e+02
8.400000e-07	-6.012005e-07	-3.665741e-09	-4.299658e+00	-2.421925e+02
8.500000e-07	-5.287413e-07	-3.519586e-09	-3.781445e+00	-2.322262e+02
8.600000e-07	-4.561675e-07	-3.361866e-09	-3.262413e+00	-2.219834e+02
8.700000e-07	-3.834826e-07	-3.193480e-09	-2.742586e+00	-2.114998e+02
8.800000e-07	-3.106958e-07	-3.026002e-09	-2.222030e+00	-2.008188e+02
8.900000e-07	-2.378501e-07	-2.864234e-09	-1.701053e+00	-1.899643e+02
9.000000e-07	-1.649849e-07	-2.696783e-09	-1.179937e+00	-1.789207e+02
9.100000e-07	-9.205504e-08	-2.521171e-09	-6.583580e-01	-1.676311e+02
9.200000e-07	-1.902066e-08	-2.340962e-09	-1.360317e-01	-1.560184e+02
9.300000e-07	5.404238e-08	-2.161351e-09	3.864996e-01	-1.440216e+02
9.400000e-07	1.270617e-07	-1.975564e-09	9.087185e-01	-1.316284e+02
9.500000e-07	2.000856e-07	-1.779227e-09	1.430970e+00	-1.188864e+02
9.600000e-07	2.730364e-07	-1.574312e-09	1.952698e+00	-1.058832e+02
9.700000e-07	3.458671e-07	-1.372525e-09	2.473567e+00	-9.270409e+01
9.800000e-07	4.186349e-07	-1.176351e-09	2.993988e+00	-7.938657e+01
9.900000e-07	4.912981e-07	-9.744667e-10	3.513660e+00	-6.589760e+01
1.000000e-06	5.638271e-07	-7.606311e-10	4.032371e+00	-5.214648e+01
1.010000e-06	6.362369e-07	-5.409786e-10	4.550230e+00	-3.802957e+01
1.020000e-06	7.085167e-07	-3.216168e-10	5.067161e+00	-2.348493e+01
1.030000e-06	7.806475e-07	-9.552015e-11	5.583025e+00	-8.528882e+00
1.040000e-06	8.526363e-07	1.393286e-10	6.097873e+00	6.745001e+00
1.050000e-06	9.244484e-07	3.770944e-10	6.611458e+00	2.220428e+01
1.060000e-06	9.960662e-07	6.119149e-10	7.123653e+00	3.773375e+01
1.070000e-06	1.067482e-06	8.453612e-10	7.634401e+00	5.328015e+01
1.080000e-06	1.138624e-06	1.083158e-09	8.143197e+00	6.886266e+01
1.090000e-06	1.209459e-06	1.324333e-09	8.649790e+00	8.454500e+01
1.100000e-06	1.279971e-06	1.565103e-09	9.154081e+00	1.003849e+02
1.110000e-06	1.350154e-06	1.805697e-09	9.656014e+00	1.163879e+02
1.120000e-06	1.419952e-06	2.050347e-09	1.015520e+01	1.324897e+02
1.130000e-06	1.489282e-06	2.296470e-09	1.065103e+01	1.485729e+02
1.140000e-06	1.558129e-06	2.539711e-09	1.114340e+01	1.645086e+02
1.150000e-06	1.626541e-06	2.777007e-09	1.163267e+01	1.801977e+02
1.160000e-06	1.694653e-06	3.009123e-09	1.211979e+01	1.955937e+02
1.170000e-06	1.762440e-06	3.238751e-09	1.260459e+01	2.106954e+02
1.180000e-06	1.829677e-06	3.466308e-09	1.308546e+01	2.255203e+02
1.190000e-06	1.896165e-06	3.686902e-09	1.356097e+01	2.400741e+02
1.200000e-06	1.961786e-06	3.900542e-09	1.403027e+01	2.543337e+02
1.210000e-06	2.026607e-06	4.110308e-09	1.449386e+01	2.682500e+02
1.220000e-06	2.090873e-06	4.315929e-09	1.495348e+01	2.817658e+02
1.230000e-06	2.154735e-06	4.514674e-09	1.541020e+01	2.948352e+02
1.240000e-06	2.218071e-06	4.702705e-09	1.586317e+01	3.074353e+02
1.250000e-06	2.280792e-06	4.882660e-09	1.631174e+01	3.195655e+02
1.260000e-06	2.342931e-06	5.058230e-09	1.675614e+01	3.312395e+02
1.270000e-06	2.404502e-06	5.229167e-09	1.719648e+01	3.424774e+02
1.280000e-06	2.465446e-06	5.394370e-09	1.763235e+01	3.533030e+02
1.290000e-06	2.525788e-06	5.554406e-09	1.806390e+01	3.637445e+02
1.300000e-06	2.585620e-06	5.709002e-09	1.849180e+01	3.738339e+02
1.310000e-06	2.644759e-06	5.859391e-09	1.891475e+01	3.835996e+02
1.320000e-06	2.702796e-06	6.004150e-09	1.932982e+01	3.930557e+02
1.330000e-06	2.759722e-06	6.141963e-09	1.973694e+01	4.021920e+02
1.340000e-06	2.815910e-06	6.274775e-09	2.013879e+01	4.109755e+02
1.350000e-06	2.871491e-06	6.404305e-09	2.053629e+01	4.193641e+02
1.360000e-06	2.926371e-06	6.527675e-09	2.092878e+01	4.273282e+02
1.370000e-06	2.980507e-06	6.641530e-09	2.131595e+01	4.348693e+02
1.380000e-06	3.033855e-06	6.746671e-09	2.169748e+01	4.420243e+02
1.390000e-06	3.086320e-06	6.847898e-09	2.207270e+01	4.488516e+02
1.400000e-06	3.137771e-06	6.946908e-09	2.244067e+01	4.554069e+02
1.410000e-06	3.187970e-06	7.042906e-09	2.279968e+01	4.617214e+02
1.420000e-06	3.236918e-06	7.134851e-09	2.314975e+01	4.677948e+02
1.430000e-06	3.284899e-06	7.220525e-09	2.349289e+01	4.736069e+02
1.440000e-06	3.332032e-06	7.302541e-09	2.382998e+01	4.791401e+02
1.450000e-06	3.378309e-06	7.381197e-09	2.416094e+01	4.843993e+02
1.460000e-06	3.423663e-06	7.456470e-09	2.448531e+01	4.894166e+02
1.470000e-06	3.468143e-06	7.528894e-09	2.480342e+01	4.942400e+02
1.480000e-06	3.511908e-06	7.598291e-09	2.511642e+01	4.989113e+02
1.490000e-06	3.554582e-06	7.665529e-09	2.542161e+01	5.034492e+02
1.500000e-06	3.595832e-06	7.731057e-09	2.571662e+01	5.078455e+02
1.510000e-06	3.635973e-06	7.794406e-09	2.600370e+01	5.120768e+02
1.520000e-06	3.675178e-06	7.854867e-09	2.628409e+01	5.161226e+02
1.530000e-06	3.713342e-06	7.912382e-09	2.655703e+01	5.199774e+02
1.540000e-06	3.750494e-06	7.966908e-09	2.682273e+01	5.236501e+02
1.550000e-06	3.786734e-06	8.017273e-09	2.708191e+01	5.271530e+02
1.560000e-06	3.821990e-06	8.064682e-09	2.733406e+01	5.304885e+02
1.570000e-06	3.855904e-06	8.109504e-09	2.757660e+01	5.336462e+02
1.580000e-06	3.888537e-06	8.151950e-09	2.780998e+01	5.366123e+02
1.590000e-06	3.920164e-06	8.193146e-09	2.803617e+01	5.393862e+02
1.600000e-06	3.950721e-06	8.232796e-09	2.825471e+01	5.419911e+02
1.610000e-06	3.980215e-06	8.270670e-09	2.846565e+01	5.444703e+02
1.620000e-06	4.008757e-06	8.305212e-09	2.866978e+01	5.468670e+02
1.630000e-06	4.036358e-06	8.337090e-09	2.886717e+01	5.491995e+02
1.640000e-06	4.062627e-06	8.366623e-09	2.905504e+01	5.514473e+02
1.650000e-06	4.087456e-06	8.393345e-09	2.923261e+01	5.535585e+02
1.660000e-06	4.111149e-06	8.418254e-09	2.940206e+01	5.554769e+02
1.670000e-06	4.133772e-06	8.442495e-09	2.956386e+01	5.571754e+02
1.680000e-06	4.155338e-06	8.465399e-09	2.971809e+01	5.586748e+02
1.690000e-06	4.175922e-06	8.485727e-09	2.986530e+01	5.600386e+02
1.700000e-06	4.195529e-06	8.503547e-09	3.000553e+01	5.613430e+02
1.710000e-06	4.213947e-06	8.521622e-09	3.013725e+01	5.626393e+02
1.720000e-06	4.231131e-06	8.540193e-09	3.026015e+01	5.639289e+02
1.730000e-06	4.247138e-06	8.557008e-09	3.037462e+01	5.651652e+02
1.740000e-06	4.261801e-06	8.570605e-09	3.047949e+01	5.662805e+02
1.750000e-06	4.275179e-06	8.581726e-09	3.057517e+01	5.672237e+02
1.760000e-06	4.287394e-06	8.591984e-09	3.066253e+01	5.679868e+02
1.770000e-06	4.298217e-06	8.601619e-09	3.073993e+01	5.686075e+02
1.780000e-06	4.307455e-06	8.609606e-09	3.080600e+01	5.691473e+02
1.790000e-06	4.315437e-06	8.616349e-09	3.086309e+01	5.696593e+02
1.800000e-06	4.322276e-06	8.623036e-09	3.091199e+01	5.701635e+02
1.810000e-06	4.327818e-06	8.630710e-09	3.095163e+01	5.706429e+02
1.820000e-06	4.332310e-06	8.637573e-09	3.098376e+01	5.710583e+02
1.830000e-06	4.335806e-06	8.642028e-09	3.100876e+01	5.713723e+02
1.840000e-06	4.337845e-06	8.645749e-09	3.102334e+01	5.715674e+02
1.850000e-06	4.338412e-06	8.648672e-09	3.102740e+01	5.716487e+02
1.860000e-06	4.337865e-06	8.649003e-09	3.102349e+01	5.716338e+02
1.870000e-06	4.336195e-06	8.643439e-09	3.101154e+01	5.715386e+02
1.880000e-06	4.333384e-06	8.638541e-09	3.099144e+01	5.713698e+02
1.890000e-06	4.329620e-06	8.635817e-09	3.096452e+01	5.711271e+02
1.900000e-06	4.324827e-06	8.633630e-09	3.093024e+01	5.708108e+02
1.910000e-06	4.318578e-06	8.631875e-09	3.088555e+01	5.704275e+02
1.920000e-06	4.311060e-06	8.636141e-09	3.083179e+01	5.699867e+02
1.930000e-06	4.302604e-06	8.658714e-09	3.077131e+01	5.694913e+02
1.940000e-06	4.293051e-06	8.593169e-09	3.070299e+01	5.689301e+02
1.950000e-06	4.281881e-06	8.529192e-09	3.062310e+01	5.682800e+02
1.960000e-06	4.268377e-06	8.534028e-09	3.052652e+01	5.675213e+02
1.970000e-06	4.253031e-06	8.678913e-09	3.041677e+01	5.666566e+02
1.980000e-06	4.237197e-06	8.655938e-09	3.030353e+01	5.657211e+02
1.990000e-06	4.221132e-06	8.412677e-09	3.018863e+01	5.647737e+02
2.000000e-06	4.203743e-06	8.511999e-09	3.006427e+01	5.638693e+02
2.010000e-06	4.184801e-06	8.704676e-09	2.992881e+01	5.630258e+02
2.020000e-06	4.165289e-06	8.477198e-09	2.978926e+01	5.622038e+02
2.030000e-06	4.144806e-06	8.419545e-09	2.964277e+01	5.613140e+02
2.040000e-06	4.122409e-06	8.695811e-09	2.948259e+01	5.602508e+02
2.050000e-06	4.098849e-06	8.508850e-09	2.931410e+01	5.589370e+02
2.060000e-06	4.074562e-06	8.388557e-09	2.914040e+01	5.573565e+02
2.070000e-06	4.048989e-06	8.627051e-09	2.895751e+01	5.555587e+02
2.080000e-06	4.022451e-06	8.435839e-09	2.876771e+01	5.536311e+02
2.090000e-06	3.995025e-06	8.316412e-09	2.857156e+01	5.516568e+02
2.100000e-06	3.966281e-06	8.463211e-09	2.836600e+01	5.496784e+02
2.110000e-06	3.936367e-06	8.271535e-09	2.815206e+01	5.476881e+02
2.120000e-06	3.905174e-06	8.323010e-09	2.792897e+01	5.456458e+02
2.130000e-06	3.872669e-06	8.374573e-09	2.769650e+01	5.435128e+02
2.140000e-06	3.839236e-06	8.136860e-09	2.745740e+01	5.412790e+02
2.150000e-06	3.804754e-06	8.273725e-09	2.721079e+01	5.389681e+02
2.160000e-06	3.769304e-06	8.290217e-09	2.695726e+01	5.366187e+02
2.170000e-06	3.732942e-06	8.018319e-09	2.669721e+01	5.342537e+02
2.180000e-06	3.694953e-06	8.113838e-09	2.642552e+01	5.318594e+02
2.190000e-06	3.655586e-06	8.121701e-09	2.614397e+01	5.293870e+02
2.200000e-06	3.615491e-06	8.002690e-09	2.585722e+01	5.267773e+02
2.210000e-06	3.574399e-06	8.064192e-09	2.556334e+01	5.239932e+02
2.220000e-06	3.532285e-06	7.938440e-09	2.526215e+01	5.210410e+02
2.230000e-06	3.489282e-06	7.888436e-09	2.495460e+01	5.179676e+02
2.240000e-06	3.445461e-06	7.916164e-09	2.464121e+01	5.148339e+02
2.250000e-06	3.400772e-06	7.807067e-09	2.432159e+01	5.116815e+02
2.260000e-06	3.354910e-06	7.740004e-09	2.399360e+01	5.085099e+02
2.270000e-06	3.308037e-06	7.700229e-09	2.365837e+01	5.052777e+02
2.280000e-06	3.260238e-06	7.700111e-09	2.331653e+01	5.019269e+02
2.290000e-06	3.211411e-06	7.632661e-09	2.296733e+01	4.984147e+02
2.300000e-06	3.161674e-06	7.527181e-09	2.261162e+01	4.947357e+02
2.310000e-06	3.111062e-06	7.507309e-09	2.224965e+01	4.909219e+02
2.320000e-06	3.059642e-06	7.440943e-09	2.188191e+01	4.870226e+02
2.330000e-06	3.007247e-06	7.390122e-09	2.150719e+01	4.830754e+02
2.340000e-06	2.953652e-06	7.331098e-09	2.112389e+01	4.790865e+02
2.350000e-06	2.898912e-06	7.240753e-09	2.073240e+01	4.750288e+02
2.360000e-06	2.843358e-06	7.214389e-09	2.033509e+01	4.708582e+02
2.370000e-06	2.787246e-06	7.123803e-09	1.993379e+01	4.665382e+02
2.380000e-06	2.730425e-06	7.050439e-09	1.952742e+01	4.620564e+02
2.390000e-06	2.672797e-06	7.004421e-09	1.911528e+01	4.574272e+02
2.400000e-06	2.614445e-06	6.902369e-09	1.869795e+01	4.526795e+02
2.410000e-06	2.555412e-06	6.856462e-09	1.827576e+01	4.478374e+02
2.420000e-06	2.495849e-06	6.787553e-09	1.784978e+01	4.429070e+02
2.430000e-06	2.435762e-06	6.699538e-09	1.742005e+01	4.378737e+02
2.440000e-06	2.374876e-06	6.609964e-09	1.698461e+01	4.327112e+02
2.450000e-06	2.312972e-06	6.524411e-09	1.654188e+01	4.273952e+02
2.460000e-06	2.250068e-06	6.468794e-09	1.609201e+01	4.219139e+02
2.470000e-06	2.186536e-06	6.370030e-09	1.563764e+01	4.162695e+02
2.480000e-06	2.122590e-06	6.277138e-09	1.518031e+01	4.104732e+02
2.490000e-06	2.058114e-06	6.187406e-09	1.471919e+01	4.045358e+02
2.500000e-06	1.993016e-06	6.097412e-09	1.425362e+01	3.984613e+02
2.510000e-06	1.927283e-06	6.012675e-09	1.378352e+01	3.922457e+02
2.520000e-06	1.860988e-06	5.902107e-09	1.330939e+01	3.858806e+02
2.530000e-06	1.794178e-06	5.807218e-09	1.283158e+01	3.793587e+02
2.540000e-06	1.726951e-06	5.713862e-09	1.235078e+01	3.726761e+02
2.550000e-06	1.659354e-06	5.610376e-09	1.186734e+01	3.658331e+02
2.560000e-06	1.591333e-06	5.502326e-09	1.138088e+01	3.588299e+02
2.570000e-06	1.522863e-06	5.383099e-09	1.089119e+01	3.516629e+02
2.580000e-06	1.453826e-06	5.277690e-09	1.039745e+01	3.443224e+02
2.590000e-06	1.384145e-06	5.173179e-09	9.899107e+00	3.367935e+02
2.600000e-06	1.313795e-06	5.057986e-09	9.395982e+00	3.290604e+02
2.610000e-06	1.242831e-06	4.933144e-09	8.888465e+00	3.211123e+02
2.620000e-06	1.171499e-06	4.806054e-09	8.378311e+00	3.129483e+02
2.630000e-06	1.099990e-06	4.686976e-09	7.866894e+00	3.045787e+02
2.640000e-06	1.028334e-06	4.555068e-09	7.354425e+00	2.960223e+02
2.650000e-06	9.565207e-07	4.415277e-09	6.840832e+00	2.872972e+02
2.660000e-06	8.844893e-07	4.277530e-09	6.325679e+00	2.784104e+02
2.670000e-06	8.122937e-07	4.148020e-09	5.809351e+00	2.693501e+02
2.680000e-06	7.399438e-07	4.015952e-09	5.291920e+00	2.600855e+02
2.690000e-06	6.673975e-07	3.863532e-09	4.773085e+00	2.505764e+02
2.700000e-06	5.947478e-07	3.710870e-09	4.253510e+00	2.407899e+02
2.710000e-06	5.219714e-07	3.559844e-09	3.733028e+00	2.307170e+02
2.720000e-06	4.490309e-07	3.407911e-09	3.211373e+00	2.203787e+02
2.730000e-06	3.759530e-07	3.248831e-09	2.688736e+00	2.098164e+02
2.740000e-06	3.027749e-07	3.082341e-09	2.165382e+00	1.990692e+02
2.750000e-06	2.295567e-07	2.918850e-09	1.641740e+00	1.881480e+02
2.760000e-06	1.562624e-07	2.753553e-09	1.117555e+00	1.770205e+02
2.770000e-06	8.296784e-08	2.581594e-09	5.933683e-01	1.656187e+02
2.780000e-06	9.764839e-09	2.398800e-09	6.983604e-02	1.538670e+02
2.790000e-06	-6.340932e-08	2.211443e-09	-4.534899e-01	1.417197e+02
2.800000e-06	-1.366285e-07	2.021528e-09	-9.771377e-01	1.291872e+02
2.810000e-06	-2.099178e-07	1.827566e-09	-1.501287e+00	1.163359e+02
2.820000e-06	-2.831782e-07	1.629560e-09	-2.025230e+00	1.032584e+02
2.830000e-06	-3.563148e-07	1.425781e-09	-2.548288e+00	9.002652e+01
2.840000e-06	-4.293502e-07	1.219802e-09	-3.070621e+00	7.665229e+01
2.850000e-06	-5.022826e-07	1.013269e-09	-3.592218e+00	6.307747e+01
2.860000e-06	-5.750870e-07	8.017198e-10	-4.112899e+00	4.920013e+01
2.870000e-06	-6.477430e-07	5.825577e-10	-4.632520e+00	3.492627e+01
2.880000e-06	-7.202523e-07	3.562056e-10	-5.151091e+00	2.022077e+01
2.890000e-06	-7.925494e-07	1.254979e-10	-5.668144e+00	5.131259e+00
2.900000e-06	-8.646058e-07	-1.074119e-10	-6.183477e+00	-1.022805e+01
2.910000e-06	-9.365244e-07	-3.454376e-10	-6.697823e+00	-2.572459e+01
2.920000e-06	-1.008289e-06	-5.842145e-10	-7.211069e+00	-4.126263e+01
2.930000e-06	-1.079911e-06	-8.204204e-10	-7.723292e+00	-5.681705e+01
2.940000e-06	-1.151349e-06	-1.057397e-09	-8.234203e+00	-7.242874e+01
2.950000e-06	-1.222404e-06	-1.298492e-09	-8.742374e+00	-8.816546e+01
