# Temperatura_=_20.0
# Concentracion g/m^3_=_10000.0
# C_Vs_to_Am_M_A/Vsm_=_65563218390.804596
# pendiente_HvsI_1/m_=_3716.3
# ordenada_HvsI_A/m_=_1297.0
# frecuencia_Hz_=_269374.34753738367

Tiempo_(s)	Campo_(V.s)	Magnetizacion_(V.s)	Campo_(kA/m)	Magnetizacion_(A/m)
0.000000e+00	-4.328819e-06	-4.769216e-10	-3.089747e+01	-3.009723e+01
1.000000e-08	-4.328460e-06	-4.775269e-10	-3.089491e+01	-3.011989e+01
2.000000e-08	-4.326899e-06	-4.801039e-10	-3.088377e+01	-3.011780e+01
3.000000e-08	-4.323863e-06	-4.799366e-10	-3.086209e+01	-3.007700e+01
4.000000e-08	-4.319655e-06	-4.791765e-10	-3.083206e+01	-3.000118e+01
5.000000e-08	-4.314453e-06	-4.791745e-10	-3.079493e+01	-2.991100e+01
6.000000e-08	-4.308068e-06	-4.772846e-10	-3.074935e+01	-2.983393e+01
7.000000e-08	-4.300566e-06	-4.698455e-10	-3.069581e+01	-2.978988e+01
8.000000e-08	-4.292031e-06	-4.592143e-10	-3.063489e+01	-2.978009e+01
9.000000e-08	-4.281974e-06	-4.988404e-10	-3.056310e+01	-2.978522e+01
1.000000e-07	-4.270019e-06	-5.428177e-10	-3.047777e+01	-2.977382e+01
1.100000e-07	-4.256446e-06	-5.005609e-10	-3.038090e+01	-2.971675e+01
1.200000e-07	-4.241546e-06	-3.787941e-10	-3.027454e+01	-2.960063e+01
1.300000e-07	-4.225564e-06	-3.446554e-10	-3.016047e+01	-2.943366e+01
1.400000e-07	-4.208521e-06	-5.634581e-10	-3.003882e+01	-2.924150e+01
1.500000e-07	-4.190277e-06	-5.828914e-10	-2.990861e+01	-2.905567e+01
1.600000e-07	-4.171062e-06	-2.891418e-10	-2.977146e+01	-2.890024e+01
1.700000e-07	-4.150992e-06	-4.392165e-10	-2.962820e+01	-2.878307e+01
1.800000e-07	-4.129795e-06	-5.865835e-10	-2.947691e+01	-2.869473e+01
1.900000e-07	-4.107562e-06	-3.244009e-10	-2.931822e+01	-2.861474e+01
2.000000e-07	-4.084470e-06	-4.063531e-10	-2.915340e+01	-2.852112e+01
2.100000e-07	-4.060299e-06	-5.389111e-10	-2.898088e+01	-2.839885e+01
2.200000e-07	-4.034754e-06	-3.178464e-10	-2.879854e+01	-2.824374e+01
2.300000e-07	-4.007861e-06	-3.910474e-10	-2.860659e+01	-2.806115e+01
2.400000e-07	-3.979828e-06	-5.645831e-10	-2.840650e+01	-2.786148e+01
2.500000e-07	-3.950764e-06	-3.884402e-10	-2.819905e+01	-2.765506e+01
2.600000e-07	-3.920666e-06	-3.769250e-10	-2.798422e+01	-2.744887e+01
2.700000e-07	-3.889414e-06	-4.383632e-10	-2.776116e+01	-2.724602e+01
2.800000e-07	-3.857226e-06	-3.837135e-10	-2.753142e+01	-2.704709e+01
2.900000e-07	-3.824121e-06	-4.357356e-10	-2.729512e+01	-2.685189e+01
3.000000e-07	-3.789691e-06	-4.053570e-10	-2.704938e+01	-2.666039e+01
3.100000e-07	-3.753943e-06	-3.375976e-10	-2.679422e+01	-2.647219e+01
3.200000e-07	-3.717090e-06	-4.567116e-10	-2.653118e+01	-2.628528e+01
3.300000e-07	-3.679188e-06	-4.309557e-10	-2.626065e+01	-2.609526e+01
3.400000e-07	-3.640256e-06	-3.304622e-10	-2.598276e+01	-2.589622e+01
3.500000e-07	-3.600372e-06	-3.805001e-10	-2.569809e+01	-2.568323e+01
3.600000e-07	-3.559510e-06	-3.630272e-10	-2.540643e+01	-2.545563e+01
3.700000e-07	-3.517383e-06	-3.588308e-10	-2.510575e+01	-2.521906e+01
3.800000e-07	-3.473942e-06	-4.020739e-10	-2.479568e+01	-2.498445e+01
3.900000e-07	-3.429433e-06	-3.621463e-10	-2.447799e+01	-2.476348e+01
4.000000e-07	-3.383994e-06	-3.233776e-10	-2.415366e+01	-2.456210e+01
4.100000e-07	-3.337653e-06	-3.785832e-10	-2.382290e+01	-2.437534e+01
4.200000e-07	-3.290384e-06	-3.800579e-10	-2.348551e+01	-2.418688e+01
4.300000e-07	-3.242212e-06	-3.205880e-10	-2.314168e+01	-2.397525e+01
4.400000e-07	-3.192925e-06	-3.193046e-10	-2.278989e+01	-2.372462e+01
4.500000e-07	-3.142314e-06	-3.463691e-10	-2.242865e+01	-2.343521e+01
4.600000e-07	-3.090652e-06	-3.549874e-10	-2.205990e+01	-2.312710e+01
4.700000e-07	-3.038067e-06	-3.423805e-10	-2.168457e+01	-2.283344e+01
4.800000e-07	-2.984525e-06	-3.172894e-10	-2.130241e+01	-2.258471e+01
4.900000e-07	-2.930091e-06	-3.125612e-10	-2.091388e+01	-2.239088e+01
5.000000e-07	-2.874831e-06	-3.376466e-10	-2.051946e+01	-2.223132e+01
5.100000e-07	-2.818989e-06	-3.264341e-10	-2.012087e+01	-2.205972e+01
5.200000e-07	-2.762622e-06	-3.052543e-10	-1.971855e+01	-2.182397e+01
5.300000e-07	-2.705352e-06	-2.999759e-10	-1.930978e+01	-2.149259e+01
5.400000e-07	-2.646958e-06	-3.072842e-10	-1.889298e+01	-2.107409e+01
5.500000e-07	-2.587710e-06	-3.179252e-10	-1.847009e+01	-2.061763e+01
5.600000e-07	-2.527850e-06	-2.982517e-10	-1.804283e+01	-2.019219e+01
5.700000e-07	-2.467383e-06	-2.755219e-10	-1.761125e+01	-1.985283e+01
5.800000e-07	-2.406235e-06	-2.781897e-10	-1.717479e+01	-1.961125e+01
5.900000e-07	-2.344433e-06	-2.950549e-10	-1.673368e+01	-1.942659e+01
6.000000e-07	-2.282026e-06	-2.845388e-10	-1.628823e+01	-1.922349e+01
6.100000e-07	-2.218947e-06	-2.622780e-10	-1.583800e+01	-1.892947e+01
6.200000e-07	-2.155285e-06	-2.604394e-10	-1.538361e+01	-1.851289e+01
6.300000e-07	-2.091149e-06	-2.708949e-10	-1.492583e+01	-1.800108e+01
6.400000e-07	-2.026431e-06	-2.701484e-10	-1.446390e+01	-1.746780e+01
6.500000e-07	-1.960920e-06	-2.509425e-10	-1.399630e+01	-1.699573e+01
6.600000e-07	-1.894548e-06	-2.353900e-10	-1.352257e+01	-1.663333e+01
6.700000e-07	-1.827461e-06	-2.371360e-10	-1.304372e+01	-1.636941e+01
6.800000e-07	-1.759902e-06	-2.428476e-10	-1.256151e+01	-1.613940e+01
6.900000e-07	-1.692005e-06	-2.310065e-10	-1.207689e+01	-1.586028e+01
7.000000e-07	-1.623692e-06	-2.161409e-10	-1.158930e+01	-1.547519e+01
7.100000e-07	-1.554869e-06	-2.145728e-10	-1.109806e+01	-1.498298e+01
7.200000e-07	-1.485620e-06	-2.215404e-10	-1.060379e+01	-1.443668e+01
7.300000e-07	-1.416034e-06	-2.134627e-10	-1.010711e+01	-1.391188e+01
7.400000e-07	-1.346041e-06	-1.926839e-10	-9.607530e+00	-1.346333e+01
7.500000e-07	-1.275557e-06	-1.829494e-10	-9.104445e+00	-1.309447e+01
7.600000e-07	-1.204633e-06	-1.855908e-10	-8.598216e+00	-1.275692e+01
7.700000e-07	-1.133436e-06	-1.856237e-10	-8.090035e+00	-1.237987e+01
7.800000e-07	-1.061991e-06	-1.712834e-10	-7.580087e+00	-1.191159e+01
7.900000e-07	-9.902871e-07	-1.588298e-10	-7.068294e+00	-1.134880e+01
8.000000e-07	-9.184054e-07	-1.564378e-10	-6.555230e+00	-1.073695e+01
8.100000e-07	-8.464062e-07	-1.560690e-10	-6.041327e+00	-1.014185e+01
8.200000e-07	-7.742848e-07	-1.453546e-10	-5.526551e+00	-9.610254e+00
8.300000e-07	-7.020669e-07	-1.293211e-10	-5.011088e+00	-9.143117e+00
8.400000e-07	-6.296622e-07	-1.227774e-10	-4.494290e+00	-8.697813e+00
8.500000e-07	-5.569496e-07	-1.245931e-10	-3.975295e+00	-8.217393e+00
8.600000e-07	-4.841888e-07	-1.187984e-10	-3.455956e+00	-7.668628e+00
8.700000e-07	-4.113919e-07	-1.013203e-10	-2.936359e+00	-7.064828e+00
8.800000e-07	-3.382882e-07	-9.054677e-11	-2.414573e+00	-6.458577e+00
8.900000e-07	-2.648855e-07	-9.015791e-11	-1.890652e+00	-5.908004e+00
9.000000e-07	-1.914444e-07	-8.893511e-11	-1.366458e+00	-5.436932e+00
9.100000e-07	-1.181115e-07	-7.798502e-11	-8.430351e-01	-5.013973e+00
9.200000e-07	-4.476354e-08	-6.555017e-11	-3.195051e-01	-4.565063e+00
9.300000e-07	2.870095e-08	-6.059716e-11	2.048565e-01	-4.014030e+00
9.400000e-07	1.022074e-07	-5.707514e-11	7.295179e-01	-3.328367e+00
9.500000e-07	1.755589e-07	-4.527596e-11	1.253073e+00	-2.542947e+00
9.600000e-07	2.487841e-07	-2.727308e-11	1.775727e+00	-1.746138e+00
9.700000e-07	3.220551e-07	-1.687431e-11	2.298707e+00	-1.034211e+00
9.800000e-07	3.952636e-07	-1.411972e-11	2.821241e+00	-4.586614e-01
9.900000e-07	4.682147e-07	-8.854406e-12	3.341939e+00	3.883373e-03
1.000000e-06	5.409791e-07	3.387108e-12	3.861304e+00	4.414675e-01
1.010000e-06	6.136447e-07	1.615742e-11	4.379963e+00	9.609631e-01
1.020000e-06	6.861614e-07	2.450555e-11	4.897560e+00	1.631298e+00
1.030000e-06	7.584576e-07	3.365800e-11	5.413582e+00	2.446784e+00
1.040000e-06	8.305251e-07	4.761397e-11	5.927973e+00	3.330496e+00
1.050000e-06	9.024377e-07	6.311611e-11	6.441258e+00	4.175473e+00
1.060000e-06	9.742243e-07	7.230499e-11	6.953643e+00	4.900808e+00
1.070000e-06	1.045883e-06	7.755368e-11	7.465117e+00	5.492030e+00
1.080000e-06	1.117279e-06	8.586448e-11	7.974714e+00	6.004629e+00
1.090000e-06	1.188347e-06	9.834157e-11	8.481967e+00	6.530400e+00
1.100000e-06	1.259139e-06	1.074979e-10	8.987260e+00	7.146554e+00
1.110000e-06	1.329570e-06	1.128549e-10	9.489967e+00	7.875965e+00
1.120000e-06	1.399548e-06	1.221154e-10	9.989443e+00	8.679328e+00
1.130000e-06	1.469124e-06	1.371520e-10	1.048605e+01	9.481256e+00
1.140000e-06	1.538285e-06	1.520262e-10	1.097970e+01	1.021360e+01
1.150000e-06	1.606953e-06	1.615631e-10	1.146982e+01	1.085090e+01
1.160000e-06	1.675205e-06	1.684817e-10	1.195698e+01	1.141907e+01
1.170000e-06	1.743097e-06	1.771645e-10	1.244157e+01	1.197482e+01
1.180000e-06	1.810602e-06	1.878681e-10	1.292339e+01	1.256979e+01
1.190000e-06	1.877649e-06	1.971935e-10	1.340194e+01	1.322116e+01
1.200000e-06	1.943963e-06	2.056651e-10	1.387527e+01	1.390471e+01
1.210000e-06	2.009357e-06	2.159775e-10	1.434203e+01	1.457249e+01
1.220000e-06	2.073909e-06	2.284926e-10	1.480278e+01	1.518266e+01
1.230000e-06	2.137890e-06	2.386129e-10	1.525945e+01	1.572306e+01
1.240000e-06	2.201513e-06	2.436296e-10	1.571356e+01	1.621516e+01
1.250000e-06	2.264635e-06	2.490826e-10	1.616410e+01	1.669763e+01
1.260000e-06	2.327082e-06	2.583161e-10	1.660983e+01	1.720091e+01
1.270000e-06	2.388870e-06	2.685603e-10	1.705085e+01	1.772884e+01
1.280000e-06	2.450074e-06	2.762449e-10	1.748770e+01	1.825823e+01
1.290000e-06	2.510675e-06	2.824634e-10	1.792025e+01	1.875566e+01
1.300000e-06	2.570707e-06	2.893030e-10	1.834873e+01	1.920054e+01
1.310000e-06	2.630223e-06	2.960256e-10	1.877353e+01	1.959987e+01
1.320000e-06	2.689000e-06	3.019217e-10	1.919306e+01	1.998566e+01
1.330000e-06	2.746668e-06	3.070761e-10	1.960468e+01	2.039661e+01
1.340000e-06	2.803212e-06	3.142442e-10	2.000826e+01	2.085505e+01
1.350000e-06	2.859006e-06	3.236696e-10	2.040650e+01	2.135264e+01
1.360000e-06	2.914245e-06	3.334999e-10	2.080078e+01	2.185339e+01
1.370000e-06	2.968753e-06	3.408557e-10	2.118983e+01	2.231198e+01
1.380000e-06	3.022458e-06	3.454759e-10	2.157316e+01	2.269738e+01
1.390000e-06	3.075321e-06	3.492613e-10	2.195047e+01	2.300847e+01
1.400000e-06	3.127224e-06	3.532500e-10	2.232094e+01	2.327380e+01
1.410000e-06	3.178015e-06	3.566134e-10	2.268347e+01	2.353609e+01
1.420000e-06	3.227502e-06	3.598952e-10	2.303668e+01	2.383041e+01
1.430000e-06	3.275852e-06	3.641758e-10	2.338179e+01	2.416778e+01
1.440000e-06	3.323359e-06	3.696208e-10	2.372087e+01	2.453208e+01
1.450000e-06	3.370000e-06	3.760738e-10	2.405378e+01	2.489093e+01
1.460000e-06	3.415735e-06	3.812182e-10	2.438022e+01	2.521351e+01
1.470000e-06	3.460551e-06	3.854297e-10	2.470010e+01	2.548584e+01
1.480000e-06	3.504500e-06	3.880150e-10	2.501379e+01	2.571580e+01
1.490000e-06	3.547578e-06	3.907282e-10	2.532127e+01	2.592665e+01
1.500000e-06	3.589348e-06	3.944389e-10	2.561940e+01	2.614353e+01
1.510000e-06	3.629799e-06	3.969017e-10	2.590813e+01	2.638057e+01
1.520000e-06	3.669344e-06	3.986615e-10	2.619039e+01	2.663509e+01
1.530000e-06	3.707929e-06	4.013475e-10	2.646579e+01	2.689097e+01
1.540000e-06	3.745513e-06	4.063011e-10	2.673405e+01	2.712851e+01
1.550000e-06	3.782107e-06	4.110987e-10	2.699525e+01	2.733499e+01
1.560000e-06	3.817745e-06	4.144975e-10	2.724961e+01	2.751069e+01
1.570000e-06	3.852259e-06	4.157724e-10	2.749596e+01	2.766761e+01
1.580000e-06	3.885352e-06	4.163713e-10	2.773217e+01	2.782246e+01
1.590000e-06	3.917292e-06	4.180463e-10	2.796014e+01	2.798779e+01
1.600000e-06	3.948275e-06	4.186165e-10	2.818129e+01	2.816585e+01
1.610000e-06	3.978255e-06	4.189918e-10	2.839527e+01	2.834823e+01
1.620000e-06	4.007185e-06	4.217142e-10	2.860177e+01	2.852097e+01
1.630000e-06	4.035102e-06	4.260769e-10	2.880103e+01	2.867233e+01
1.640000e-06	4.061955e-06	4.294930e-10	2.899269e+01	2.879917e+01
1.650000e-06	4.087427e-06	4.297784e-10	2.917450e+01	2.890869e+01
1.660000e-06	4.111570e-06	4.295513e-10	2.934682e+01	2.901439e+01
1.670000e-06	4.134573e-06	4.310565e-10	2.951101e+01	2.912863e+01
1.680000e-06	4.156504e-06	4.325644e-10	2.966755e+01	2.925526e+01
1.690000e-06	4.177420e-06	4.333585e-10	2.981684e+01	2.938669e+01
1.700000e-06	4.197358e-06	4.340543e-10	2.995915e+01	2.950709e+01
1.710000e-06	4.216224e-06	4.367196e-10	3.009381e+01	2.960047e+01
1.720000e-06	4.233777e-06	4.396368e-10	3.021909e+01	2.965979e+01
1.730000e-06	4.250095e-06	4.390548e-10	3.033556e+01	2.969206e+01
1.740000e-06	4.265209e-06	4.365265e-10	3.044344e+01	2.971639e+01
1.750000e-06	4.278997e-06	4.345994e-10	3.054185e+01	2.975532e+01
1.760000e-06	4.291616e-06	4.336415e-10	3.063193e+01	2.982371e+01
1.770000e-06	4.303037e-06	4.338262e-10	3.071344e+01	2.992067e+01
1.780000e-06	4.312830e-06	4.347367e-10	3.078335e+01	3.002927e+01
1.790000e-06	4.321169e-06	4.367872e-10	3.084287e+01	3.012443e+01
1.800000e-06	4.328466e-06	4.394638e-10	3.089495e+01	3.018529e+01
1.810000e-06	4.334587e-06	4.410185e-10	3.093864e+01	3.020553e+01
1.820000e-06	4.339529e-06	4.400393e-10	3.097391e+01	3.019617e+01
1.830000e-06	4.343406e-06	4.369411e-10	3.100159e+01	3.017910e+01
1.840000e-06	4.345975e-06	4.359450e-10	3.101992e+01	3.017481e+01
1.850000e-06	4.347023e-06	4.368690e-10	3.102740e+01	3.019085e+01
1.860000e-06	4.346828e-06	4.374998e-10	3.102601e+01	3.021757e+01
1.870000e-06	4.345543e-06	4.344671e-10	3.101684e+01	3.023353e+01
1.880000e-06	4.343141e-06	4.312417e-10	3.099969e+01	3.021784e+01
1.890000e-06	4.339750e-06	4.329754e-10	3.097549e+01	3.016256e+01
1.900000e-06	4.335400e-06	4.334036e-10	3.094444e+01	3.007840e+01
1.910000e-06	4.329738e-06	4.319245e-10	3.090403e+01	2.999012e+01
1.920000e-06	4.322617e-06	4.340707e-10	3.085320e+01	2.992406e+01
1.930000e-06	4.314429e-06	4.520908e-10	3.079476e+01	2.989401e+01
1.940000e-06	4.305270e-06	4.272428e-10	3.072938e+01	2.989313e+01
1.950000e-06	4.294687e-06	3.489668e-10	3.065384e+01	2.989609e+01
1.960000e-06	4.281923e-06	3.746938e-10	3.056274e+01	2.987049e+01
1.970000e-06	4.267052e-06	5.040522e-10	3.045660e+01	2.979183e+01
1.980000e-06	4.251299e-06	5.646577e-10	3.034416e+01	2.965467e+01
1.990000e-06	4.235372e-06	3.527611e-10	3.023048e+01	2.947476e+01
2.000000e-06	4.218532e-06	2.892178e-10	3.011028e+01	2.928153e+01
2.010000e-06	4.200075e-06	5.951593e-10	2.997854e+01	2.910515e+01
2.020000e-06	4.180687e-06	4.471706e-10	2.984016e+01	2.896426e+01
2.030000e-06	4.160599e-06	2.561147e-10	2.969678e+01	2.885992e+01
2.040000e-06	4.138820e-06	5.621477e-10	2.954133e+01	2.877753e+01
2.050000e-06	4.115549e-06	4.991649e-10	2.937523e+01	2.869489e+01
2.060000e-06	4.091512e-06	2.829270e-10	2.920366e+01	2.859186e+01
2.070000e-06	4.066400e-06	5.555111e-10	2.902442e+01	2.845730e+01
2.080000e-06	4.040195e-06	5.192289e-10	2.883738e+01	2.829099e+01
2.090000e-06	4.013078e-06	2.671929e-10	2.864383e+01	2.810080e+01
2.100000e-06	3.984730e-06	4.563469e-10	2.844149e+01	2.789765e+01
2.110000e-06	3.955193e-06	4.629721e-10	2.823067e+01	2.769084e+01
2.120000e-06	3.924448e-06	3.704303e-10	2.801122e+01	2.748584e+01
2.130000e-06	3.892325e-06	4.780500e-10	2.778194e+01	2.728459e+01
2.140000e-06	3.859164e-06	3.666441e-10	2.754525e+01	2.708719e+01
2.150000e-06	3.825023e-06	4.041663e-10	2.730156e+01	2.689350e+01
2.160000e-06	3.789812e-06	5.322164e-10	2.705024e+01	2.670347e+01
2.170000e-06	3.753711e-06	3.020735e-10	2.679256e+01	2.651623e+01
2.180000e-06	3.716280e-06	3.602784e-10	2.652539e+01	2.632891e+01
2.190000e-06	3.677308e-06	4.881896e-10	2.624723e+01	2.613634e+01
2.200000e-06	3.637379e-06	3.650078e-10	2.596223e+01	2.593261e+01
2.210000e-06	3.596509e-06	4.370462e-10	2.567052e+01	2.571402e+01
2.220000e-06	3.554650e-06	4.229463e-10	2.537174e+01	2.548217e+01
2.230000e-06	3.511957e-06	3.509589e-10	2.506702e+01	2.524501e+01
2.240000e-06	3.468387e-06	4.280141e-10	2.475603e+01	2.501442e+01
2.250000e-06	3.423893e-06	4.056469e-10	2.443845e+01	2.480073e+01
2.260000e-06	3.378323e-06	3.724663e-10	2.411319e+01	2.460621e+01
2.270000e-06	3.331713e-06	3.747039e-10	2.378050e+01	2.442132e+01
2.280000e-06	3.284227e-06	3.905589e-10	2.344157e+01	2.422677e+01
2.290000e-06	3.235680e-06	4.183256e-10	2.309506e+01	2.400181e+01
2.300000e-06	3.186133e-06	3.598784e-10	2.274141e+01	2.373565e+01
2.310000e-06	3.135694e-06	3.597998e-10	2.238140e+01	2.343603e+01
2.320000e-06	3.084374e-06	3.737981e-10	2.201509e+01	2.312931e+01
2.330000e-06	3.032221e-06	3.701431e-10	2.164284e+01	2.284980e+01
2.340000e-06	2.978952e-06	3.872980e-10	2.126263e+01	2.262217e+01
2.350000e-06	2.924473e-06	3.385375e-10	2.087378e+01	2.244539e+01
2.360000e-06	2.869096e-06	3.542063e-10	2.047852e+01	2.228773e+01
2.370000e-06	2.813095e-06	3.694643e-10	2.007880e+01	2.209777e+01
2.380000e-06	2.756429e-06	3.448007e-10	1.967434e+01	2.182809e+01
2.390000e-06	2.698995e-06	3.535353e-10	1.926440e+01	2.146075e+01
2.400000e-06	2.640832e-06	3.226376e-10	1.884926e+01	2.102066e+01
2.410000e-06	2.581962e-06	3.328155e-10	1.842906e+01	2.056785e+01
2.420000e-06	2.522509e-06	3.467610e-10	1.800472e+01	2.017019e+01
2.430000e-06	2.462548e-06	3.222703e-10	1.757673e+01	1.986915e+01
2.440000e-06	2.401804e-06	3.107045e-10	1.714317e+01	1.965634e+01
2.450000e-06	2.340054e-06	3.017468e-10	1.670242e+01	1.947449e+01
2.460000e-06	2.277330e-06	3.184997e-10	1.625471e+01	1.924442e+01
2.470000e-06	2.213908e-06	3.105319e-10	1.580204e+01	1.890519e+01
2.480000e-06	2.150018e-06	2.839700e-10	1.534601e+01	1.844673e+01
2.490000e-06	2.085605e-06	2.807055e-10	1.488626e+01	1.791688e+01
2.500000e-06	2.020586e-06	2.770434e-10	1.442217e+01	1.739797e+01
2.510000e-06	1.954959e-06	2.846281e-10	1.395376e+01	1.696441e+01
2.520000e-06	1.888764e-06	2.701713e-10	1.348128e+01	1.664374e+01
2.530000e-06	1.822011e-06	2.551269e-10	1.300482e+01	1.640219e+01
2.540000e-06	1.754783e-06	2.625847e-10	1.252497e+01	1.616313e+01
2.550000e-06	1.687202e-06	2.579287e-10	1.204261e+01	1.584843e+01
2.560000e-06	1.619267e-06	2.495938e-10	1.155771e+01	1.542012e+01
2.570000e-06	1.550949e-06	2.295872e-10	1.107009e+01	1.489939e+01
2.580000e-06	1.481987e-06	2.245940e-10	1.057786e+01	1.435261e+01
2.590000e-06	1.412177e-06	2.295075e-10	1.007958e+01	1.385247e+01
2.600000e-06	1.341657e-06	2.217516e-10	9.576238e+00	1.343666e+01
2.610000e-06	1.270666e-06	2.109187e-10	9.069534e+00	1.308740e+01
2.620000e-06	1.199392e-06	2.012813e-10	8.560806e+00	1.274333e+01
2.630000e-06	1.127892e-06	2.031264e-10	8.050467e+00	1.233603e+01
2.640000e-06	1.056213e-06	1.963869e-10	7.538847e+00	1.182986e+01
2.650000e-06	9.843293e-07	1.804488e-10	7.025769e+00	1.124153e+01
2.660000e-06	9.123024e-07	1.675916e-10	6.511669e+00	1.062856e+01
2.670000e-06	8.400630e-07	1.629858e-10	5.996051e+00	1.005406e+01
2.680000e-06	7.674869e-07	1.644663e-10	5.478030e+00	9.549362e+00
2.690000e-06	6.946822e-07	1.537889e-10	4.958378e+00	9.097139e+00
2.700000e-06	6.217208e-07	1.388264e-10	4.437607e+00	8.644963e+00
2.710000e-06	5.486677e-07	1.311872e-10	3.916182e+00	8.140647e+00
2.720000e-06	4.755364e-07	1.273261e-10	3.394198e+00	7.567202e+00
2.730000e-06	4.022305e-07	1.179899e-10	2.870969e+00	6.955227e+00
2.740000e-06	3.288442e-07	1.022582e-10	2.347165e+00	6.364230e+00
2.750000e-06	2.555276e-07	9.153264e-11	1.823859e+00	5.843629e+00
2.760000e-06	1.822004e-07	9.119276e-11	1.300477e+00	5.397326e+00
2.770000e-06	1.087924e-07	8.905973e-11	7.765189e-01	4.974619e+00
2.780000e-06	3.535944e-08	7.564283e-11	2.523822e-01	4.494998e+00
2.790000e-06	-3.802051e-08	5.934799e-11	-2.713760e-01	3.893946e+00
2.800000e-06	-1.113834e-07	4.898138e-11	-7.950127e-01	3.163327e+00
2.810000e-06	-1.847946e-07	4.157433e-11	-1.318994e+00	2.361769e+00
2.820000e-06	-2.582737e-07	2.967632e-11	-1.843459e+00	1.586996e+00
2.830000e-06	-3.316617e-07	1.552917e-11	-2.367276e+00	9.240434e-01
2.840000e-06	-4.048701e-07	8.228293e-12	-2.889809e+00	3.978705e-01
2.850000e-06	-4.779644e-07	7.978382e-12	-3.411529e+00	-4.260660e-02
2.860000e-06	-5.510129e-07	2.865320e-12	-3.932921e+00	-4.991369e-01
2.870000e-06	-6.239794e-07	-1.129581e-11	-4.453728e+00	-1.070573e+00
2.880000e-06	-6.966970e-07	-2.649350e-11	-4.972759e+00	-1.800240e+00
2.890000e-06	-7.691969e-07	-3.754446e-11	-5.490236e+00	-2.653009e+00
2.900000e-06	-8.415366e-07	-4.793073e-11	-6.006569e+00	-3.534404e+00
2.910000e-06	-9.136964e-07	-6.310529e-11	-6.521618e+00	-4.340863e+00
2.920000e-06	-9.856169e-07	-7.671767e-11	-7.034960e+00	-5.013364e+00
2.930000e-06	-1.057309e-06	-8.292367e-11	-7.546668e+00	-5.565490e+00
2.940000e-06	-1.128810e-06	-8.770049e-11	-8.057018e+00	-6.071811e+00
2.950000e-06	-1.200133e-06	-9.759820e-11	-8.566095e+00	-6.624629e+00
