# Temperatura_=_20.0
# Concentracion g/m^3_=_10000.0
# C_Vs_to_Am_M_A/Vsm_=_65563218390.804596
# pendiente_HvsI_1/m_=_3716.3
# ordenada_HvsI_A/m_=_1297.0
# frecuencia_Hz_=_269365.5065460402

Tiempo_(s)	Campo_(V.s)	Magnetizacion_(V.s)	Campo_(kA/m)	Magnetizacion_(A/m)
0.000000e+00	-4.317181e-06	-8.761068e-09	-3.089209e+01	-5.696797e+02
1.000000e-08	-4.316318e-06	-8.763794e-09	-3.088591e+01	-5.697007e+02
2.000000e-08	-4.314043e-06	-8.762183e-09	-3.086963e+01	-5.696211e+02
3.000000e-08	-4.310410e-06	-8.758105e-09	-3.084363e+01	-5.694292e+02
4.000000e-08	-4.305795e-06	-8.753498e-09	-3.081061e+01	-5.691297e+02
5.000000e-08	-4.300083e-06	-8.745423e-09	-3.076974e+01	-5.687434e+02
6.000000e-08	-4.293190e-06	-8.732110e-09	-3.072042e+01	-5.682953e+02
7.000000e-08	-4.285275e-06	-8.708593e-09	-3.066378e+01	-5.677998e+02
8.000000e-08	-4.276283e-06	-8.699065e-09	-3.059943e+01	-5.672514e+02
9.000000e-08	-4.265618e-06	-8.745538e-09	-3.052312e+01	-5.666287e+02
1.000000e-07	-4.253014e-06	-8.754656e-09	-3.043293e+01	-5.659108e+02
1.100000e-07	-4.238871e-06	-8.707044e-09	-3.033173e+01	-5.650965e+02
1.200000e-07	-4.223480e-06	-8.574246e-09	-3.022160e+01	-5.642123e+02
1.300000e-07	-4.206970e-06	-8.617275e-09	-3.010346e+01	-5.633045e+02
1.400000e-07	-4.189355e-06	-8.761992e-09	-2.997742e+01	-5.624153e+02
1.500000e-07	-4.170655e-06	-8.583951e-09	-2.984361e+01	-5.615571e+02
1.600000e-07	-4.151098e-06	-8.498166e-09	-2.970366e+01	-5.606999e+02
1.700000e-07	-4.130628e-06	-8.657681e-09	-2.955719e+01	-5.597800e+02
1.800000e-07	-4.109022e-06	-8.559897e-09	-2.940258e+01	-5.587271e+02
1.900000e-07	-4.086544e-06	-8.408109e-09	-2.924174e+01	-5.574958e+02
2.000000e-07	-4.063101e-06	-8.557506e-09	-2.907399e+01	-5.560840e+02
2.100000e-07	-4.038373e-06	-8.466813e-09	-2.889705e+01	-5.545289e+02
2.200000e-07	-4.012401e-06	-8.310845e-09	-2.871119e+01	-5.528830e+02
2.300000e-07	-3.985140e-06	-8.483138e-09	-2.851613e+01	-5.511838e+02
2.400000e-07	-3.956678e-06	-8.435095e-09	-2.831247e+01	-5.494346e+02
2.500000e-07	-3.927255e-06	-8.284233e-09	-2.810192e+01	-5.476070e+02
2.600000e-07	-3.896782e-06	-8.359232e-09	-2.788387e+01	-5.456619e+02
2.700000e-07	-3.865174e-06	-8.282942e-09	-2.765770e+01	-5.435756e+02
2.800000e-07	-3.832706e-06	-8.213243e-09	-2.742537e+01	-5.413566e+02
2.900000e-07	-3.799099e-06	-8.259616e-09	-2.718489e+01	-5.390416e+02
3.000000e-07	-3.763998e-06	-8.145189e-09	-2.693372e+01	-5.366750e+02
3.100000e-07	-3.727714e-06	-8.117959e-09	-2.667409e+01	-5.342840e+02
3.200000e-07	-3.690448e-06	-8.157527e-09	-2.640743e+01	-5.318632e+02
3.300000e-07	-3.652161e-06	-8.067501e-09	-2.613346e+01	-5.293784e+02
3.400000e-07	-3.612781e-06	-7.995524e-09	-2.585167e+01	-5.267854e+02
3.500000e-07	-3.572478e-06	-7.974727e-09	-2.556328e+01	-5.240533e+02
3.600000e-07	-3.531198e-06	-7.916763e-09	-2.526790e+01	-5.211785e+02
3.700000e-07	-3.488550e-06	-7.895431e-09	-2.496272e+01	-5.181829e+02
3.800000e-07	-3.444703e-06	-7.864538e-09	-2.464897e+01	-5.150992e+02
3.900000e-07	-3.399886e-06	-7.770817e-09	-2.432828e+01	-5.119528e+02
4.000000e-07	-3.354105e-06	-7.733632e-09	-2.400069e+01	-5.087495e+02
4.100000e-07	-3.307427e-06	-7.721284e-09	-2.366668e+01	-5.054772e+02
4.200000e-07	-3.259882e-06	-7.648674e-09	-2.332646e+01	-5.021150e+02
4.300000e-07	-3.211539e-06	-7.555011e-09	-2.298054e+01	-4.986458e+02
4.400000e-07	-3.162009e-06	-7.526529e-09	-2.262612e+01	-4.950629e+02
4.500000e-07	-3.111029e-06	-7.488486e-09	-2.226133e+01	-4.913688e+02
4.600000e-07	-3.059002e-06	-7.427998e-09	-2.188904e+01	-4.875690e+02
4.700000e-07	-3.006108e-06	-7.356793e-09	-2.151056e+01	-4.836661e+02
4.800000e-07	-2.952306e-06	-7.279760e-09	-2.112556e+01	-4.796588e+02
4.900000e-07	-2.897646e-06	-7.232208e-09	-2.073444e+01	-4.755450e+02
5.000000e-07	-2.842190e-06	-7.175175e-09	-2.033762e+01	-4.713244e+02
5.100000e-07	-2.786180e-06	-7.102878e-09	-1.993683e+01	-4.669995e+02
5.200000e-07	-2.729716e-06	-7.030243e-09	-1.953280e+01	-4.625716e+02
5.300000e-07	-2.672322e-06	-6.968273e-09	-1.912211e+01	-4.580360e+02
5.400000e-07	-2.613771e-06	-6.902192e-09	-1.870314e+01	-4.533811e+02
5.500000e-07	-2.554348e-06	-6.831319e-09	-1.827794e+01	-4.485932e+02
5.600000e-07	-2.494362e-06	-6.743381e-09	-1.784869e+01	-4.436648e+02
5.700000e-07	-2.433804e-06	-6.656693e-09	-1.741537e+01	-4.386003e+02
5.800000e-07	-2.372561e-06	-6.588241e-09	-1.697714e+01	-4.334155e+02
5.900000e-07	-2.310714e-06	-6.517182e-09	-1.653458e+01	-4.281279e+02
6.000000e-07	-2.248226e-06	-6.426120e-09	-1.608744e+01	-4.227443e+02
6.100000e-07	-2.185011e-06	-6.330444e-09	-1.563510e+01	-4.172529e+02
6.200000e-07	-2.121215e-06	-6.254576e-09	-1.517860e+01	-4.116252e+02
6.300000e-07	-2.056976e-06	-6.173208e-09	-1.471893e+01	-4.058287e+02
6.400000e-07	-1.992151e-06	-6.081387e-09	-1.425507e+01	-3.998428e+02
6.500000e-07	-1.926559e-06	-5.979190e-09	-1.378572e+01	-3.936686e+02
6.600000e-07	-1.860087e-06	-5.881210e-09	-1.331007e+01	-3.873267e+02
6.700000e-07	-1.792873e-06	-5.787800e-09	-1.282911e+01	-3.808438e+02
6.800000e-07	-1.725221e-06	-5.684992e-09	-1.234502e+01	-3.742357e+02
6.900000e-07	-1.657266e-06	-5.575601e-09	-1.185876e+01	-3.674971e+02
7.000000e-07	-1.588984e-06	-5.467280e-09	-1.137016e+01	-3.606044e+02
7.100000e-07	-1.520300e-06	-5.369054e-09	-1.087868e+01	-3.535279e+02
7.200000e-07	-1.451124e-06	-5.264287e-09	-1.038368e+01	-3.462486e+02
7.300000e-07	-1.381500e-06	-5.146128e-09	-9.885484e+00	-3.387652e+02
7.400000e-07	-1.311535e-06	-5.017891e-09	-9.384842e+00	-3.310916e+02
7.500000e-07	-1.241161e-06	-4.894229e-09	-8.881272e+00	-3.232432e+02
7.600000e-07	-1.170378e-06	-4.774643e-09	-8.374778e+00	-3.152254e+02
7.700000e-07	-1.099269e-06	-4.648273e-09	-7.865946e+00	-3.070286e+02
7.800000e-07	-1.027846e-06	-4.517002e-09	-7.354873e+00	-2.986351e+02
7.900000e-07	-9.561591e-07	-4.387952e-09	-6.841907e+00	-2.900316e+02
8.000000e-07	-8.843199e-07	-4.263099e-09	-6.327853e+00	-2.812179e+02
8.100000e-07	-8.123671e-07	-4.128143e-09	-5.812987e+00	-2.722053e+02
8.200000e-07	-7.402718e-07	-3.981713e-09	-5.297100e+00	-2.630050e+02
8.300000e-07	-6.680300e-07	-3.830152e-09	-4.780166e+00	-2.536143e+02
8.400000e-07	-5.957050e-07	-3.684845e-09	-4.262636e+00	-2.440115e+02
8.500000e-07	-5.233360e-07	-3.537311e-09	-3.744791e+00	-2.341632e+02
8.600000e-07	-4.508878e-07	-3.379506e-09	-3.226380e+00	-2.240432e+02
8.700000e-07	-3.783051e-07	-3.216120e-09	-2.707006e+00	-2.136484e+02
8.800000e-07	-3.055974e-07	-3.053774e-09	-2.186738e+00	-2.030028e+02
8.900000e-07	-2.328106e-07	-2.891455e-09	-1.665903e+00	-1.921434e+02
9.000000e-07	-1.599861e-07	-2.719687e-09	-1.144799e+00	-1.810951e+02
9.100000e-07	-8.709474e-08	-2.542268e-09	-6.232165e-01	-1.698500e+02
9.200000e-07	-1.411842e-08	-2.364670e-09	-1.010259e-01	-1.583638e+02
9.300000e-07	5.882693e-08	-2.188637e-09	4.209429e-01	-1.465745e+02
9.400000e-07	1.317063e-07	-2.006228e-09	9.424397e-01	-1.344339e+02
9.500000e-07	2.045660e-07	-1.814679e-09	1.463796e+00	-1.219345e+02
9.600000e-07	2.774110e-07	-1.616236e-09	1.985046e+00	-1.091149e+02
9.700000e-07	3.501790e-07	-1.416292e-09	2.505746e+00	-9.604006e+01
9.800000e-07	4.228549e-07	-1.215094e-09	3.025787e+00	-8.276536e+01
9.900000e-07	4.954323e-07	-1.007064e-09	3.545123e+00	-6.930532e+01
1.000000e-06	5.678710e-07	-7.939529e-10	4.063466e+00	-5.562482e+01
1.010000e-06	6.402016e-07	-5.809818e-10	4.581036e+00	-4.165870e+01
1.020000e-06	7.124193e-07	-3.674044e-10	5.097799e+00	-2.734956e+01
1.030000e-06	7.845260e-07	-1.460601e-10	5.613766e+00	-1.268304e+01
1.040000e-06	8.565085e-07	8.417287e-11	6.128846e+00	2.298824e+00
1.050000e-06	9.283663e-07	3.168043e-10	6.643032e+00	1.751323e+01
1.060000e-06	1.000061e-06	5.491804e-10	7.156051e+00	3.287194e+01
1.070000e-06	1.071511e-06	7.838007e-10	7.667323e+00	4.831628e+01
1.080000e-06	1.142670e-06	1.022443e-09	8.176504e+00	6.383265e+01
1.090000e-06	1.213471e-06	1.261042e-09	8.683130e+00	7.944097e+01
1.100000e-06	1.283904e-06	1.496228e-09	9.187124e+00	9.516391e+01
1.110000e-06	1.353984e-06	1.732378e-09	9.688589e+00	1.109953e+02
1.120000e-06	1.423670e-06	1.974089e-09	1.018723e+01	1.268854e+02
1.130000e-06	1.492856e-06	2.216639e-09	1.068230e+01	1.427501e+02
1.140000e-06	1.561535e-06	2.455974e-09	1.117374e+01	1.584982e+02
1.150000e-06	1.629853e-06	2.690707e-09	1.166260e+01	1.740590e+02
1.160000e-06	1.697895e-06	2.922582e-09	1.214949e+01	1.893964e+02
1.170000e-06	1.765588e-06	3.152297e-09	1.263387e+01	2.045024e+02
1.180000e-06	1.832774e-06	3.378844e-09	1.311462e+01	2.193762e+02
1.190000e-06	1.899137e-06	3.599987e-09	1.358949e+01	2.340017e+02
1.200000e-06	1.964613e-06	3.815590e-09	1.405801e+01	2.483375e+02
1.210000e-06	2.029401e-06	4.028216e-09	1.452162e+01	2.623244e+02
1.220000e-06	2.093660e-06	4.234140e-09	1.498142e+01	2.759036e+02
1.230000e-06	2.157524e-06	4.429914e-09	1.543841e+01	2.890362e+02
1.240000e-06	2.220850e-06	4.617007e-09	1.589155e+01	3.017126e+02
1.250000e-06	2.283473e-06	4.799845e-09	1.633966e+01	3.139485e+02
1.260000e-06	2.345504e-06	4.980333e-09	1.678353e+01	3.257715e+02
1.270000e-06	2.406944e-06	5.155486e-09	1.722317e+01	3.372063e+02
1.280000e-06	2.467771e-06	5.323846e-09	1.765842e+01	3.482669e+02
1.290000e-06	2.528074e-06	5.487395e-09	1.808993e+01	3.589577e+02
1.300000e-06	2.587870e-06	5.644941e-09	1.851780e+01	3.692793e+02
1.310000e-06	2.646880e-06	5.795542e-09	1.894006e+01	3.792347e+02
1.320000e-06	2.704794e-06	5.939993e-09	1.935446e+01	3.888306e+02
1.330000e-06	2.761707e-06	6.080032e-09	1.976171e+01	3.980749e+02
1.340000e-06	2.817903e-06	6.217606e-09	2.016383e+01	4.069715e+02
1.350000e-06	2.873441e-06	6.350901e-09	2.056124e+01	4.155180e+02
1.360000e-06	2.928201e-06	6.475412e-09	2.095308e+01	4.237066e+02
1.370000e-06	2.982189e-06	6.592815e-09	2.133940e+01	4.315285e+02
1.380000e-06	3.035366e-06	6.704851e-09	2.171991e+01	4.389783e+02
1.390000e-06	3.087699e-06	6.810241e-09	2.209439e+01	4.460575e+02
1.400000e-06	3.139094e-06	6.908067e-09	2.246215e+01	4.527764e+02
1.410000e-06	3.189198e-06	7.002010e-09	2.282067e+01	4.591549e+02
1.420000e-06	3.238025e-06	7.093854e-09	2.317006e+01	4.652233e+02
1.430000e-06	3.285948e-06	7.181074e-09	2.351298e+01	4.710204e+02
1.440000e-06	3.333045e-06	7.264911e-09	2.384999e+01	4.765894e+02
1.450000e-06	3.379279e-06	7.346878e-09	2.418082e+01	4.819692e+02
1.460000e-06	3.424595e-06	7.428190e-09	2.450508e+01	4.871845e+02
1.470000e-06	3.469056e-06	7.505114e-09	2.482323e+01	4.922391e+02
1.480000e-06	3.512767e-06	7.574359e-09	2.513601e+01	4.971175e+02
1.490000e-06	3.555312e-06	7.639322e-09	2.544045e+01	5.017960e+02
1.500000e-06	3.596438e-06	7.704624e-09	2.573473e+01	5.062585e+02
1.510000e-06	3.636499e-06	7.770290e-09	2.602139e+01	5.105090e+02
1.520000e-06	3.675602e-06	7.833791e-09	2.630119e+01	5.145731e+02
1.530000e-06	3.713693e-06	7.894614e-09	2.657376e+01	5.184862e+02
1.540000e-06	3.750757e-06	7.953641e-09	2.683897e+01	5.222738e+02
1.550000e-06	3.786910e-06	8.010707e-09	2.709767e+01	5.259348e+02
1.560000e-06	3.822128e-06	8.062831e-09	2.734968e+01	5.294396e+02
1.570000e-06	3.856009e-06	8.107319e-09	2.759211e+01	5.327444e+02
1.580000e-06	3.888561e-06	8.147786e-09	2.782505e+01	5.358161e+02
1.590000e-06	3.920064e-06	8.189034e-09	2.805047e+01	5.386547e+02
1.600000e-06	3.950569e-06	8.229830e-09	2.826875e+01	5.412984e+02
1.610000e-06	3.979971e-06	8.268514e-09	2.847914e+01	5.438093e+02
1.620000e-06	4.008434e-06	8.304484e-09	2.868281e+01	5.462443e+02
1.630000e-06	4.035971e-06	8.338649e-09	2.887986e+01	5.486276e+02
1.640000e-06	4.062088e-06	8.370724e-09	2.906674e+01	5.509397e+02
1.650000e-06	4.086782e-06	8.399191e-09	2.924344e+01	5.531284e+02
1.660000e-06	4.110383e-06	8.425325e-09	2.941232e+01	5.551375e+02
1.670000e-06	4.132954e-06	8.449714e-09	2.957383e+01	5.569360e+02
1.680000e-06	4.154447e-06	8.471906e-09	2.972763e+01	5.585339e+02
1.690000e-06	4.174948e-06	8.492065e-09	2.987432e+01	5.599767e+02
1.700000e-06	4.194506e-06	8.510314e-09	3.001427e+01	5.613225e+02
1.710000e-06	4.212884e-06	8.528355e-09	3.014578e+01	5.626148e+02
1.720000e-06	4.229986e-06	8.546618e-09	3.026816e+01	5.638666e+02
1.730000e-06	4.245813e-06	8.564010e-09	3.038141e+01	5.650612e+02
1.740000e-06	4.260390e-06	8.579206e-09	3.048571e+01	5.661674e+02
1.750000e-06	4.273721e-06	8.592236e-09	3.058110e+01	5.671596e+02
1.760000e-06	4.285775e-06	8.604146e-09	3.066736e+01	5.680294e+02
1.770000e-06	4.296423e-06	8.613950e-09	3.074355e+01	5.687855e+02
1.780000e-06	4.305563e-06	8.622030e-09	3.080895e+01	5.694446e+02
1.790000e-06	4.313500e-06	8.629593e-09	3.086575e+01	5.700200e+02
1.800000e-06	4.320287e-06	8.637817e-09	3.091431e+01	5.705169e+02
1.810000e-06	4.325849e-06	8.646985e-09	3.095411e+01	5.709353e+02
1.820000e-06	4.330372e-06	8.654327e-09	3.098648e+01	5.712765e+02
1.830000e-06	4.333762e-06	8.659181e-09	3.101074e+01	5.715462e+02
1.840000e-06	4.335619e-06	8.661557e-09	3.102402e+01	5.717523e+02
1.850000e-06	4.336091e-06	8.662091e-09	3.102740e+01	5.718969e+02
1.860000e-06	4.335490e-06	8.661115e-09	3.102310e+01	5.719711e+02
1.870000e-06	4.333762e-06	8.657171e-09	3.101073e+01	5.719568e+02
1.880000e-06	4.330926e-06	8.655513e-09	3.099044e+01	5.718360e+02
1.890000e-06	4.327159e-06	8.655270e-09	3.096349e+01	5.716025e+02
1.900000e-06	4.322326e-06	8.654711e-09	3.092890e+01	5.712678e+02
1.910000e-06	4.316001e-06	8.653874e-09	3.088364e+01	5.708559e+02
1.920000e-06	4.308411e-06	8.658683e-09	3.082933e+01	5.703897e+02
1.930000e-06	4.299875e-06	8.665758e-09	3.076825e+01	5.698764e+02
1.940000e-06	4.290234e-06	8.593967e-09	3.069927e+01	5.693033e+02
1.950000e-06	4.278861e-06	8.556423e-09	3.061789e+01	5.686470e+02
1.960000e-06	4.265120e-06	8.574243e-09	3.051956e+01	5.678920e+02
1.970000e-06	4.249699e-06	8.690299e-09	3.040921e+01	5.670472e+02
1.980000e-06	4.233883e-06	8.615021e-09	3.029604e+01	5.661487e+02
1.990000e-06	4.217777e-06	8.430745e-09	3.018079e+01	5.652443e+02
2.000000e-06	4.200295e-06	8.593166e-09	3.005570e+01	5.643678e+02
2.010000e-06	4.181325e-06	8.641404e-09	2.991996e+01	5.635160e+02
2.020000e-06	4.161803e-06	8.435261e-09	2.978026e+01	5.626442e+02
2.030000e-06	4.141206e-06	8.511946e-09	2.963288e+01	5.616822e+02
2.040000e-06	4.118728e-06	8.667581e-09	2.947203e+01	5.605659e+02
2.050000e-06	4.095119e-06	8.457058e-09	2.930310e+01	5.592650e+02
2.060000e-06	4.070716e-06	8.465080e-09	2.912848e+01	5.577940e+02
2.070000e-06	4.045126e-06	8.614582e-09	2.894537e+01	5.561992e+02
2.080000e-06	4.018640e-06	8.392586e-09	2.875584e+01	5.545308e+02
2.090000e-06	3.991145e-06	8.376911e-09	2.855910e+01	5.528147e+02
2.100000e-06	3.962261e-06	8.480779e-09	2.835241e+01	5.510410e+02
2.110000e-06	3.932217e-06	8.299781e-09	2.813743e+01	5.491739e+02
2.120000e-06	3.900905e-06	8.368285e-09	2.791337e+01	5.471774e+02
2.130000e-06	3.868334e-06	8.358567e-09	2.768031e+01	5.450388e+02
2.140000e-06	3.834922e-06	8.192297e-09	2.744123e+01	5.427788e+02
2.150000e-06	3.800472e-06	8.321986e-09	2.719472e+01	5.404400e+02
2.160000e-06	3.765022e-06	8.244588e-09	2.694105e+01	5.380630e+02
2.170000e-06	3.728591e-06	8.077642e-09	2.668036e+01	5.356636e+02
2.180000e-06	3.690539e-06	8.169091e-09	2.640808e+01	5.332241e+02
2.190000e-06	3.651152e-06	8.115137e-09	2.612624e+01	5.307040e+02
2.200000e-06	3.610995e-06	8.053179e-09	2.583889e+01	5.280615e+02
2.210000e-06	3.569865e-06	8.073452e-09	2.554458e+01	5.252751e+02
2.220000e-06	3.527755e-06	7.947649e-09	2.524326e+01	5.223517e+02
2.230000e-06	3.484733e-06	7.935539e-09	2.493541e+01	5.193195e+02
2.240000e-06	3.440873e-06	7.924655e-09	2.462156e+01	5.162106e+02
2.250000e-06	3.396032e-06	7.828033e-09	2.430070e+01	5.130436e+02
2.260000e-06	3.350017e-06	7.777075e-09	2.397143e+01	5.098169e+02
2.270000e-06	3.303180e-06	7.729941e-09	2.363629e+01	5.065137e+02
2.280000e-06	3.255417e-06	7.726285e-09	2.329452e+01	5.031131e+02
2.290000e-06	3.206554e-06	7.643561e-09	2.294487e+01	4.996018e+02
2.300000e-06	3.156819e-06	7.557265e-09	2.258898e+01	4.959770e+02
2.310000e-06	3.106204e-06	7.536501e-09	2.222680e+01	4.922430e+02
2.320000e-06	3.054766e-06	7.467305e-09	2.185873e+01	4.884047e+02
2.330000e-06	3.002384e-06	7.422452e-09	2.148390e+01	4.844633e+02
2.340000e-06	2.948753e-06	7.349185e-09	2.110014e+01	4.804165e+02
2.350000e-06	2.893954e-06	7.272063e-09	2.070802e+01	4.762628e+02
2.360000e-06	2.838377e-06	7.238041e-09	2.031033e+01	4.720031e+02
2.370000e-06	2.782227e-06	7.145020e-09	1.990855e+01	4.676400e+02
2.380000e-06	2.725370e-06	7.080188e-09	1.950170e+01	4.631729e+02
2.390000e-06	2.667745e-06	7.019657e-09	1.908936e+01	4.585945e+02
2.400000e-06	2.609381e-06	6.932333e-09	1.867173e+01	4.538915e+02
2.410000e-06	2.550331e-06	6.884592e-09	1.824919e+01	4.490516e+02
2.420000e-06	2.490795e-06	6.804823e-09	1.782317e+01	4.440712e+02
2.430000e-06	2.430748e-06	6.720979e-09	1.739350e+01	4.389597e+02
2.440000e-06	2.369887e-06	6.630942e-09	1.695800e+01	4.337349e+02
2.450000e-06	2.307973e-06	6.551026e-09	1.651497e+01	4.284118e+02
2.460000e-06	2.245049e-06	6.486224e-09	1.606471e+01	4.229905e+02
2.470000e-06	2.181539e-06	6.382873e-09	1.561026e+01	4.174522e+02
2.480000e-06	2.117572e-06	6.298448e-09	1.515253e+01	4.117650e+02
2.490000e-06	2.053008e-06	6.212337e-09	1.469053e+01	4.058991e+02
2.500000e-06	1.987832e-06	6.124821e-09	1.422416e+01	3.998416e+02
2.510000e-06	1.922114e-06	6.031655e-09	1.375391e+01	3.936017e+02
2.520000e-06	1.855840e-06	5.920591e-09	1.327968e+01	3.872043e+02
2.530000e-06	1.789004e-06	5.829861e-09	1.280143e+01	3.806739e+02
2.540000e-06	1.721740e-06	5.732570e-09	1.232011e+01	3.740190e+02
2.550000e-06	1.654120e-06	5.627359e-09	1.183625e+01	3.672264e+02
2.560000e-06	1.586175e-06	5.516258e-09	1.135005e+01	3.602683e+02
2.570000e-06	1.517726e-06	5.401640e-09	1.086026e+01	3.531174e+02
2.580000e-06	1.448662e-06	5.297635e-09	1.036607e+01	3.457610e+02
2.590000e-06	1.379001e-06	5.188742e-09	9.867599e+00	3.382046e+02
2.600000e-06	1.308600e-06	5.073549e-09	9.363841e+00	3.304642e+02
2.610000e-06	1.237549e-06	4.951317e-09	8.855425e+00	3.225529e+02
2.620000e-06	1.166180e-06	4.828928e-09	8.344739e+00	3.144700e+02
2.630000e-06	1.094683e-06	4.707874e-09	7.833131e+00	3.062019e+02
2.640000e-06	1.023074e-06	4.572728e-09	7.320721e+00	2.977309e+02
2.650000e-06	9.512815e-07	4.432257e-09	6.807005e+00	2.890481e+02
2.660000e-06	8.793030e-07	4.295116e-09	6.291954e+00	2.801585e+02
2.670000e-06	8.071329e-07	4.166357e-09	5.775533e+00	2.710750e+02
2.680000e-06	7.347234e-07	4.032120e-09	5.257398e+00	2.618049e+02
2.690000e-06	6.621381e-07	3.881799e-09	4.738005e+00	2.523385e+02
2.700000e-06	5.894210e-07	3.733405e-09	4.217670e+00	2.426479e+02
2.710000e-06	5.165644e-07	3.584251e-09	3.696336e+00	2.327002e+02
2.720000e-06	4.435801e-07	3.430268e-09	3.174089e+00	2.224762e+02
2.730000e-06	3.704600e-07	3.267845e-09	2.650869e+00	2.119837e+02
2.740000e-06	2.973066e-07	3.103170e-09	2.127412e+00	2.012540e+02
2.750000e-06	2.241252e-07	2.943910e-09	1.603754e+00	1.903226e+02
2.760000e-06	1.508927e-07	2.779720e-09	1.079730e+00	1.792038e+02
2.770000e-06	7.771556e-08	2.606849e-09	5.561027e-01	1.678754e+02
2.780000e-06	4.559428e-09	2.425838e-09	3.262551e-02	1.562831e+02
2.790000e-06	-6.864686e-08	2.243279e-09	-4.912105e-01	1.443662e+02
2.800000e-06	-1.418930e-07	2.058057e-09	-1.015332e+00	1.320896e+02
2.810000e-06	-2.150930e-07	1.865745e-09	-1.539122e+00	1.194638e+02
2.820000e-06	-2.882170e-07	1.668083e-09	-2.062370e+00	1.065409e+02
2.830000e-06	-3.613042e-07	1.467087e-09	-2.585354e+00	9.338662e+01
2.840000e-06	-4.342964e-07	1.265785e-09	-3.107658e+00	8.004380e+01
2.850000e-06	-5.071662e-07	1.062012e-09	-3.629086e+00	6.650783e+01
2.860000e-06	-5.799316e-07	8.521348e-10	-4.149768e+00	5.272865e+01
2.870000e-06	-6.525103e-07	6.356918e-10	-4.669112e+00	3.863923e+01
2.880000e-06	-7.249307e-07	4.148067e-10	-5.187325e+00	2.419503e+01
2.890000e-06	-7.971791e-07	1.897956e-10	-5.704307e+00	9.402830e+00
2.900000e-06	-8.692000e-07	-4.076638e-11	-6.219661e+00	-5.676792e+00
2.910000e-06	-9.410871e-07	-2.766155e-10	-6.734057e+00	-2.095439e+01
2.920000e-06	-1.012803e-06	-5.135169e-10	-7.247230e+00	-3.634941e+01
2.930000e-06	-1.084345e-06	-7.491213e-10	-7.759158e+00	-5.181973e+01
2.940000e-06	-1.155691e-06	-9.855484e-10	-8.269679e+00	-6.736701e+01
2.950000e-06	-1.226698e-06	-1.224698e-09	-8.777776e+00	-8.301631e+01
