# Temperatura_=_20.0
# Concentracion g/m^3_=_10000.0
# C_Vs_to_Am_M_A/Vsm_=_65563218390.804596
# pendiente_HvsI_1/m_=_3716.3
# ordenada_HvsI_A/m_=_1297.0
# frecuencia_Hz_=_269360.2409350528

Tiempo_(s)	Campo_(V.s)	Magnetizacion_(V.s)	Campo_(kA/m)	Magnetizacion_(A/m)
0.000000e+00	-4.329081e-06	-8.796063e-09	-3.089559e+01	-5.723866e+02
1.000000e-08	-4.328123e-06	-8.797363e-09	-3.088875e+01	-5.724057e+02
2.000000e-08	-4.325774e-06	-8.794182e-09	-3.087199e+01	-5.723336e+02
3.000000e-08	-4.322063e-06	-8.789414e-09	-3.084550e+01	-5.721557e+02
4.000000e-08	-4.317331e-06	-8.785183e-09	-3.081173e+01	-5.718710e+02
5.000000e-08	-4.311527e-06	-8.779557e-09	-3.077031e+01	-5.714897e+02
6.000000e-08	-4.304555e-06	-8.768847e-09	-3.072055e+01	-5.710259e+02
7.000000e-08	-4.296538e-06	-8.747723e-09	-3.066334e+01	-5.704901e+02
8.000000e-08	-4.287343e-06	-8.744633e-09	-3.059772e+01	-5.698869e+02
9.000000e-08	-4.276425e-06	-8.771436e-09	-3.051980e+01	-5.692172e+02
1.000000e-07	-4.263657e-06	-8.773334e-09	-3.042867e+01	-5.684833e+02
1.100000e-07	-4.249416e-06	-8.722061e-09	-3.032704e+01	-5.676925e+02
1.200000e-07	-4.233900e-06	-8.632122e-09	-3.021631e+01	-5.668549e+02
1.300000e-07	-4.217245e-06	-8.670962e-09	-3.009744e+01	-5.659784e+02
1.400000e-07	-4.199465e-06	-8.750993e-09	-2.997055e+01	-5.650627e+02
1.500000e-07	-4.180607e-06	-8.617924e-09	-2.983597e+01	-5.640988e+02
1.600000e-07	-4.160937e-06	-8.565436e-09	-2.969559e+01	-5.630733e+02
1.700000e-07	-4.140300e-06	-8.660742e-09	-2.954830e+01	-5.619752e+02
1.800000e-07	-4.118508e-06	-8.572180e-09	-2.939278e+01	-5.608011e+02
1.900000e-07	-4.095833e-06	-8.501430e-09	-2.923095e+01	-5.595530e+02
2.000000e-07	-4.072288e-06	-8.572824e-09	-2.906292e+01	-5.582314e+02
2.100000e-07	-4.047484e-06	-8.472018e-09	-2.888590e+01	-5.568268e+02
2.200000e-07	-4.021264e-06	-8.406906e-09	-2.869877e+01	-5.553176e+02
2.300000e-07	-3.993761e-06	-8.502525e-09	-2.850249e+01	-5.536766e+02
2.400000e-07	-3.965150e-06	-8.428597e-09	-2.829830e+01	-5.518842e+02
2.500000e-07	-3.935566e-06	-8.350283e-09	-2.808717e+01	-5.499410e+02
2.600000e-07	-3.904900e-06	-8.384410e-09	-2.786831e+01	-5.478706e+02
2.700000e-07	-3.873150e-06	-8.312679e-09	-2.764172e+01	-5.457106e+02
2.800000e-07	-3.840533e-06	-8.265728e-09	-2.740894e+01	-5.434943e+02
2.900000e-07	-3.806764e-06	-8.272262e-09	-2.716794e+01	-5.412346e+02
3.000000e-07	-3.771541e-06	-8.191119e-09	-2.691656e+01	-5.389179e+02
3.100000e-07	-3.735120e-06	-8.166233e-09	-2.665664e+01	-5.365137e+02
3.200000e-07	-3.697655e-06	-8.169264e-09	-2.638925e+01	-5.339934e+02
3.300000e-07	-3.659106e-06	-8.093680e-09	-2.611414e+01	-5.313487e+02
3.400000e-07	-3.619544e-06	-8.034326e-09	-2.583179e+01	-5.285963e+02
3.500000e-07	-3.579148e-06	-7.996648e-09	-2.554350e+01	-5.257678e+02
3.600000e-07	-3.537756e-06	-7.948329e-09	-2.524809e+01	-5.228894e+02
3.700000e-07	-3.494961e-06	-7.923266e-09	-2.494268e+01	-5.199634e+02
3.800000e-07	-3.450891e-06	-7.883232e-09	-2.462816e+01	-5.169648e+02
3.900000e-07	-3.405872e-06	-7.808800e-09	-2.430688e+01	-5.138539e+02
4.000000e-07	-3.359932e-06	-7.769684e-09	-2.397901e+01	-5.105990e+02
4.100000e-07	-3.313053e-06	-7.740960e-09	-2.364444e+01	-5.071962e+02
4.200000e-07	-3.265317e-06	-7.663039e-09	-2.330377e+01	-5.036723e+02
4.300000e-07	-3.216660e-06	-7.583611e-09	-2.295652e+01	-5.000704e+02
4.400000e-07	-3.166703e-06	-7.548752e-09	-2.259998e+01	-4.964253e+02
4.500000e-07	-3.115410e-06	-7.510815e-09	-2.223391e+01	-4.927424e+02
4.600000e-07	-3.063136e-06	-7.453611e-09	-2.186085e+01	-4.889943e+02
4.700000e-07	-3.009998e-06	-7.384871e-09	-2.148162e+01	-4.851345e+02
4.800000e-07	-2.955950e-06	-7.317410e-09	-2.109589e+01	-4.811232e+02
4.900000e-07	-2.901045e-06	-7.266174e-09	-2.070404e+01	-4.769473e+02
5.000000e-07	-2.845475e-06	-7.201031e-09	-2.030745e+01	-4.726255e+02
5.100000e-07	-2.789383e-06	-7.122748e-09	-1.990714e+01	-4.681946e+02
5.200000e-07	-2.732732e-06	-7.052218e-09	-1.950283e+01	-4.636867e+02
5.300000e-07	-2.675099e-06	-6.987875e-09	-1.909152e+01	-4.591108e+02
5.400000e-07	-2.616289e-06	-6.919905e-09	-1.867181e+01	-4.544490e+02
5.500000e-07	-2.556665e-06	-6.845707e-09	-1.824629e+01	-4.496688e+02
5.600000e-07	-2.496493e-06	-6.764961e-09	-1.781686e+01	-4.447427e+02
5.700000e-07	-2.435727e-06	-6.685604e-09	-1.738318e+01	-4.396617e+02
5.800000e-07	-2.374269e-06	-6.613820e-09	-1.694458e+01	-4.344362e+02
5.900000e-07	-2.312236e-06	-6.535310e-09	-1.650186e+01	-4.290835e+02
6.000000e-07	-2.249622e-06	-6.442203e-09	-1.605500e+01	-4.236115e+02
6.100000e-07	-2.186314e-06	-6.350434e-09	-1.560319e+01	-4.180105e+02
6.200000e-07	-2.122442e-06	-6.268695e-09	-1.514735e+01	-4.122579e+02
6.300000e-07	-2.058086e-06	-6.183620e-09	-1.468806e+01	-4.063330e+02
6.400000e-07	-1.993121e-06	-6.090397e-09	-1.422441e+01	-4.002315e+02
6.500000e-07	-1.927318e-06	-5.992390e-09	-1.375480e+01	-3.939692e+02
6.600000e-07	-1.860637e-06	-5.896559e-09	-1.327891e+01	-3.875717e+02
6.700000e-07	-1.793282e-06	-5.800803e-09	-1.279822e+01	-3.810568e+02
6.800000e-07	-1.725458e-06	-5.695381e-09	-1.231417e+01	-3.744190e+02
6.900000e-07	-1.657287e-06	-5.584192e-09	-1.182765e+01	-3.676290e+02
7.000000e-07	-1.588783e-06	-5.476023e-09	-1.133875e+01	-3.606473e+02
7.100000e-07	-1.519838e-06	-5.371942e-09	-1.084671e+01	-3.534450e+02
7.200000e-07	-1.450441e-06	-5.261297e-09	-1.035144e+01	-3.460187e+02
7.300000e-07	-1.380685e-06	-5.140784e-09	-9.853613e+00	-3.383910e+02
7.400000e-07	-1.310572e-06	-5.017339e-09	-9.353230e+00	-3.305945e+02
7.500000e-07	-1.240032e-06	-4.896731e-09	-8.849804e+00	-3.226510e+02
7.600000e-07	-1.169040e-06	-4.776455e-09	-8.343151e+00	-3.145570e+02
7.700000e-07	-1.097693e-06	-4.649125e-09	-7.833967e+00	-3.062857e+02
7.800000e-07	-1.026062e-06	-4.515890e-09	-7.322755e+00	-2.978025e+02
7.900000e-07	-9.542279e-07	-4.382802e-09	-6.810090e+00	-2.890848e+02
8.000000e-07	-8.822546e-07	-4.250109e-09	-6.296435e+00	-2.801335e+02
8.100000e-07	-8.101335e-07	-4.109807e-09	-5.781724e+00	-2.709677e+02
8.200000e-07	-7.378828e-07	-3.960887e-09	-5.266088e+00	-2.616081e+02
8.300000e-07	-6.655392e-07	-3.810952e-09	-4.749790e+00	-2.520593e+02
8.400000e-07	-5.930956e-07	-3.664637e-09	-4.232778e+00	-2.423020e+02
8.500000e-07	-5.205086e-07	-3.515377e-09	-3.714742e+00	-2.323028e+02
8.600000e-07	-4.477378e-07	-3.357456e-09	-3.195395e+00	-2.220330e+02
8.700000e-07	-3.748253e-07	-3.194011e-09	-2.675036e+00	-2.114854e+02
8.800000e-07	-3.018010e-07	-3.028455e-09	-2.153879e+00	-2.006767e+02
8.900000e-07	-2.286971e-07	-2.860598e-09	-1.632155e+00	-1.896340e+02
9.000000e-07	-1.555287e-07	-2.685400e-09	-1.109970e+00	-1.783721e+02
9.100000e-07	-8.228561e-08	-2.504136e-09	-5.872522e-01	-1.668781e+02
9.200000e-07	-8.999267e-09	-2.322728e-09	-6.422556e-02	-1.551128e+02
9.300000e-07	6.424081e-08	-2.139279e-09	4.584709e-01	-1.430307e+02
9.400000e-07	1.374516e-07	-1.950716e-09	9.809583e-01	-1.306067e+02
9.500000e-07	2.107490e-07	-1.757048e-09	1.504064e+00	-1.178540e+02
9.600000e-07	2.839829e-07	-1.558073e-09	2.026716e+00	-1.048192e+02
9.700000e-07	3.570077e-07	-1.356043e-09	2.547876e+00	-9.155797e+01
9.800000e-07	4.298498e-07	-1.152550e-09	3.067733e+00	-7.810188e+01
9.900000e-07	5.025852e-07	-9.440316e-10	3.586827e+00	-6.443760e+01
1.000000e-06	5.752504e-07	-7.274190e-10	4.105421e+00	-5.051052e+01
1.010000e-06	6.477657e-07	-5.059777e-10	4.622944e+00	-3.625297e+01
1.020000e-06	7.201238e-07	-2.824265e-10	5.139347e+00	-2.162249e+01
1.030000e-06	7.923507e-07	-5.515231e-11	5.654812e+00	-6.629702e+00
1.040000e-06	8.644337e-07	1.762816e-10	6.169251e+00	8.659500e+00
1.050000e-06	9.363780e-07	4.106822e-10	6.682700e+00	2.414864e+01
1.060000e-06	1.008180e-06	6.466514e-10	7.195132e+00	3.974888e+01
1.070000e-06	1.079751e-06	8.825723e-10	7.705921e+00	5.541036e+01
1.080000e-06	1.151043e-06	1.121053e-09	8.214714e+00	7.113075e+01
1.090000e-06	1.221996e-06	1.364236e-09	8.721087e+00	8.693763e+01
1.100000e-06	1.292540e-06	1.609928e-09	9.224542e+00	1.028556e+02
1.110000e-06	1.362703e-06	1.854715e-09	9.725274e+00	1.188762e+02
1.120000e-06	1.432533e-06	2.099108e-09	1.022363e+01	1.349465e+02
1.130000e-06	1.501962e-06	2.343225e-09	1.071913e+01	1.509797e+02
1.140000e-06	1.570869e-06	2.583768e-09	1.121091e+01	1.668814e+02
1.150000e-06	1.639336e-06	2.819870e-09	1.169954e+01	1.825750e+02
1.160000e-06	1.707492e-06	3.051096e-09	1.218595e+01	1.980154e+02
1.170000e-06	1.775342e-06	3.280886e-09	1.267018e+01	2.131839e+02
1.180000e-06	1.842705e-06	3.510265e-09	1.315094e+01	2.280724e+02
1.190000e-06	1.909347e-06	3.734338e-09	1.362654e+01	2.426651e+02
1.200000e-06	1.975081e-06	3.950099e-09	1.409567e+01	2.569304e+02
1.210000e-06	2.039964e-06	4.157632e-09	1.455872e+01	2.708240e+02
1.220000e-06	2.104283e-06	4.359548e-09	1.501775e+01	2.843010e+02
1.230000e-06	2.168211e-06	4.554432e-09	1.547399e+01	2.973286e+02
1.240000e-06	2.231658e-06	4.741164e-09	1.592679e+01	3.098933e+02
1.250000e-06	2.294461e-06	4.921464e-09	1.637500e+01	3.219998e+02
1.260000e-06	2.356617e-06	5.098704e-09	1.681859e+01	3.336653e+02
1.270000e-06	2.418176e-06	5.271869e-09	1.725793e+01	3.449120e+02
1.280000e-06	2.479092e-06	5.438834e-09	1.769267e+01	3.557628e+02
1.290000e-06	2.539398e-06	5.599259e-09	1.812306e+01	3.662385e+02
1.300000e-06	2.599236e-06	5.752941e-09	1.855011e+01	3.763570e+02
1.310000e-06	2.658414e-06	5.901702e-09	1.897244e+01	3.861307e+02
1.320000e-06	2.716534e-06	6.044724e-09	1.938723e+01	3.955640e+02
1.330000e-06	2.773506e-06	6.181433e-09	1.979383e+01	4.046517e+02
1.340000e-06	2.829668e-06	6.313695e-09	2.019465e+01	4.133806e+02
1.350000e-06	2.885243e-06	6.441843e-09	2.059127e+01	4.217361e+02
1.360000e-06	2.940105e-06	6.564284e-09	2.098281e+01	4.297093e+02
1.370000e-06	2.994192e-06	6.679457e-09	2.136881e+01	4.373024e+02
1.380000e-06	3.047489e-06	6.786894e-09	2.174918e+01	4.445297e+02
1.390000e-06	3.099942e-06	6.889396e-09	2.212353e+01	4.514136e+02
1.400000e-06	3.151398e-06	6.987671e-09	2.249075e+01	4.579787e+02
1.410000e-06	3.201532e-06	7.081931e-09	2.284855e+01	4.642476e+02
1.420000e-06	3.250358e-06	7.171455e-09	2.319701e+01	4.702410e+02
1.430000e-06	3.298296e-06	7.256017e-09	2.353913e+01	4.759798e+02
1.440000e-06	3.345436e-06	7.338662e-09	2.387556e+01	4.814879e+02
1.450000e-06	3.391684e-06	7.419255e-09	2.420561e+01	4.867903e+02
1.460000e-06	3.437006e-06	7.496484e-09	2.452906e+01	4.919081e+02
1.470000e-06	3.481452e-06	7.569751e-09	2.484627e+01	4.968523e+02
1.480000e-06	3.525101e-06	7.639469e-09	2.515778e+01	5.016196e+02
1.490000e-06	3.567688e-06	7.708365e-09	2.546171e+01	5.061964e+02
1.500000e-06	3.608896e-06	7.775795e-09	2.575581e+01	5.105674e+02
1.510000e-06	3.648920e-06	7.837570e-09	2.604145e+01	5.147261e+02
1.520000e-06	3.688041e-06	7.895290e-09	2.632064e+01	5.186817e+02
1.530000e-06	3.726191e-06	7.952225e-09	2.659291e+01	5.224566e+02
1.540000e-06	3.763312e-06	8.007440e-09	2.685783e+01	5.260774e+02
1.550000e-06	3.799546e-06	8.059123e-09	2.711642e+01	5.295625e+02
1.560000e-06	3.834785e-06	8.107388e-09	2.736792e+01	5.329141e+02
1.570000e-06	3.868658e-06	8.153310e-09	2.760966e+01	5.361187e+02
1.580000e-06	3.901192e-06	8.198051e-09	2.784185e+01	5.391557e+02
1.590000e-06	3.932666e-06	8.240209e-09	2.806647e+01	5.420096e+02
1.600000e-06	3.963156e-06	8.278841e-09	2.828407e+01	5.446801e+02
1.610000e-06	3.992621e-06	8.315274e-09	2.849436e+01	5.471839e+02
1.620000e-06	4.021103e-06	8.350354e-09	2.869762e+01	5.495483e+02
1.630000e-06	4.048572e-06	8.383115e-09	2.889367e+01	5.518009e+02
1.640000e-06	4.074735e-06	8.412132e-09	2.908038e+01	5.539590e+02
1.650000e-06	4.099466e-06	8.438764e-09	2.925688e+01	5.560252e+02
1.660000e-06	4.122989e-06	8.465425e-09	2.942476e+01	5.579884e+02
1.670000e-06	4.145452e-06	8.492660e-09	2.958508e+01	5.598304e+02
1.680000e-06	4.166875e-06	8.517932e-09	2.973796e+01	5.615336e+02
1.690000e-06	4.187316e-06	8.539457e-09	2.988385e+01	5.630876e+02
1.700000e-06	4.206785e-06	8.556982e-09	3.002279e+01	5.644929e+02
1.710000e-06	4.225119e-06	8.574863e-09	3.015364e+01	5.657616e+02
1.720000e-06	4.242165e-06	8.592487e-09	3.027529e+01	5.669150e+02
1.730000e-06	4.257937e-06	8.606593e-09	3.038785e+01	5.679790e+02
1.740000e-06	4.272465e-06	8.618501e-09	3.049153e+01	5.689770e+02
1.750000e-06	4.285829e-06	8.630526e-09	3.058691e+01	5.699231e+02
1.760000e-06	4.297978e-06	8.644527e-09	3.067362e+01	5.708169e+02
1.770000e-06	4.308549e-06	8.656719e-09	3.074905e+01	5.716429e+02
1.780000e-06	4.317563e-06	8.665175e-09	3.081338e+01	5.723765e+02
1.790000e-06	4.325371e-06	8.673908e-09	3.086911e+01	5.729947e+02
1.800000e-06	4.332065e-06	8.683412e-09	3.091688e+01	5.734866e+02
1.810000e-06	4.337608e-06	8.690246e-09	3.095644e+01	5.738594e+02
1.820000e-06	4.342083e-06	8.693697e-09	3.098838e+01	5.741358e+02
1.830000e-06	4.345373e-06	8.695203e-09	3.101186e+01	5.743442e+02
1.840000e-06	4.347162e-06	8.697238e-09	3.102463e+01	5.745059e+02
1.850000e-06	4.347550e-06	8.699950e-09	3.102740e+01	5.746254e+02
1.860000e-06	4.346793e-06	8.698739e-09	3.102199e+01	5.746902e+02
1.870000e-06	4.344940e-06	8.694043e-09	3.100877e+01	5.746778e+02
1.880000e-06	4.342053e-06	8.692551e-09	3.098816e+01	5.745673e+02
1.890000e-06	4.338217e-06	8.693707e-09	3.096079e+01	5.743491e+02
1.900000e-06	4.333234e-06	8.692488e-09	3.092522e+01	5.740269e+02
1.910000e-06	4.326795e-06	8.687920e-09	3.087927e+01	5.736133e+02
1.920000e-06	4.319140e-06	8.690561e-09	3.082464e+01	5.731218e+02
1.930000e-06	4.310520e-06	8.685579e-09	3.076312e+01	5.725608e+02
1.940000e-06	4.300726e-06	8.634986e-09	3.069322e+01	5.719329e+02
1.950000e-06	4.289211e-06	8.603332e-09	3.061105e+01	5.712388e+02
1.960000e-06	4.275484e-06	8.629611e-09	3.051308e+01	5.704828e+02
1.970000e-06	4.260112e-06	8.692455e-09	3.040338e+01	5.696735e+02
1.980000e-06	4.244241e-06	8.631145e-09	3.029010e+01	5.688210e+02
1.990000e-06	4.227920e-06	8.527314e-09	3.017363e+01	5.679306e+02
2.000000e-06	4.210233e-06	8.624904e-09	3.004740e+01	5.669986e+02
2.010000e-06	4.191239e-06	8.641834e-09	2.991184e+01	5.660135e+02
2.020000e-06	4.171685e-06	8.512757e-09	2.977229e+01	5.649619e+02
2.030000e-06	4.150929e-06	8.572700e-09	2.962416e+01	5.638356e+02
2.040000e-06	4.128324e-06	8.622201e-09	2.946284e+01	5.626337e+02
2.050000e-06	4.104665e-06	8.492693e-09	2.929398e+01	5.613586e+02
2.060000e-06	4.080159e-06	8.534449e-09	2.911909e+01	5.600080e+02
2.070000e-06	4.054429e-06	8.575636e-09	2.893546e+01	5.585675e+02
2.080000e-06	4.027771e-06	8.438506e-09	2.874521e+01	5.570122e+02
2.090000e-06	4.000065e-06	8.467865e-09	2.854748e+01	5.553162e+02
2.100000e-06	3.970959e-06	8.473991e-09	2.833976e+01	5.534661e+02
2.110000e-06	3.940681e-06	8.352854e-09	2.812367e+01	5.514716e+02
2.120000e-06	3.909159e-06	8.405028e-09	2.789871e+01	5.493633e+02
2.130000e-06	3.876415e-06	8.364763e-09	2.766502e+01	5.471794e+02
2.140000e-06	3.842768e-06	8.264208e-09	2.742489e+01	5.449471e+02
2.150000e-06	3.808105e-06	8.331398e-09	2.717751e+01	5.426691e+02
2.160000e-06	3.772490e-06	8.257357e-09	2.692334e+01	5.403238e+02
2.170000e-06	3.735770e-06	8.153759e-09	2.666127e+01	5.378789e+02
2.180000e-06	3.697459e-06	8.180234e-09	2.638785e+01	5.353118e+02
2.190000e-06	3.657938e-06	8.130929e-09	2.610580e+01	5.326238e+02
2.200000e-06	3.617592e-06	8.097675e-09	2.581786e+01	5.298393e+02
2.210000e-06	3.576250e-06	8.074061e-09	2.552282e+01	5.269903e+02
2.220000e-06	3.533919e-06	7.988107e-09	2.522072e+01	5.240956e+02
2.230000e-06	3.490682e-06	7.966569e-09	2.491214e+01	5.211468e+02
2.240000e-06	3.446628e-06	7.934771e-09	2.459774e+01	5.181111e+02
2.250000e-06	3.401582e-06	7.862137e-09	2.427626e+01	5.149490e+02
2.260000e-06	3.355419e-06	7.799125e-09	2.394680e+01	5.116376e+02
2.270000e-06	3.308370e-06	7.761411e-09	2.361102e+01	5.081851e+02
2.280000e-06	3.260394e-06	7.742594e-09	2.326863e+01	5.046271e+02
2.290000e-06	3.211366e-06	7.660242e-09	2.291873e+01	5.010064e+02
2.300000e-06	3.161368e-06	7.586023e-09	2.256191e+01	4.973487e+02
2.310000e-06	3.110529e-06	7.544366e-09	2.219908e+01	4.936464e+02
2.320000e-06	3.058877e-06	7.485104e-09	2.183045e+01	4.898623e+02
2.330000e-06	3.006219e-06	7.432035e-09	2.145465e+01	4.859495e+02
2.340000e-06	2.952357e-06	7.354159e-09	2.107024e+01	4.818765e+02
2.350000e-06	2.897394e-06	7.295402e-09	2.067799e+01	4.776425e+02
2.360000e-06	2.841654e-06	7.247880e-09	2.028019e+01	4.732755e+02
2.370000e-06	2.785327e-06	7.160848e-09	1.987820e+01	4.688132e+02
2.380000e-06	2.728289e-06	7.093347e-09	1.947113e+01	4.642806e+02
2.390000e-06	2.670450e-06	7.025931e-09	1.905834e+01	4.596760e+02
2.400000e-06	2.611871e-06	6.953720e-09	1.864028e+01	4.549741e+02
2.410000e-06	2.552649e-06	6.891516e-09	1.821763e+01	4.501419e+02
2.420000e-06	2.492899e-06	6.813874e-09	1.779121e+01	4.451578e+02
2.430000e-06	2.432523e-06	6.732377e-09	1.736032e+01	4.400209e+02
2.440000e-06	2.371251e-06	6.643031e-09	1.692304e+01	4.347461e+02
2.450000e-06	2.309012e-06	6.564971e-09	1.647885e+01	4.293489e+02
2.460000e-06	2.245977e-06	6.488785e-09	1.602899e+01	4.238309e+02
2.470000e-06	2.182354e-06	6.395292e-09	1.557492e+01	4.181763e+02
2.480000e-06	2.118196e-06	6.306799e-09	1.511705e+01	4.123612e+02
2.490000e-06	2.053465e-06	6.215763e-09	1.465507e+01	4.063697e+02
2.500000e-06	1.988131e-06	6.125889e-09	1.418881e+01	4.002054e+02
2.510000e-06	1.922232e-06	6.026846e-09	1.371850e+01	3.938897e+02
2.520000e-06	1.855758e-06	5.922810e-09	1.324409e+01	3.874474e+02
2.530000e-06	1.788729e-06	5.830522e-09	1.276572e+01	3.808887e+02
2.540000e-06	1.721290e-06	5.731818e-09	1.228443e+01	3.741986e+02
2.550000e-06	1.653455e-06	5.627422e-09	1.180030e+01	3.673415e+02
2.560000e-06	1.585252e-06	5.516860e-09	1.131355e+01	3.602795e+02
2.570000e-06	1.516621e-06	5.404668e-09	1.082375e+01	3.529923e+02
2.580000e-06	1.447327e-06	5.294707e-09	1.032921e+01	3.454872e+02
2.590000e-06	1.377256e-06	5.180349e-09	9.829140e+00	3.377927e+02
2.600000e-06	1.306506e-06	5.061295e-09	9.324213e+00	3.299400e+02
2.610000e-06	1.235300e-06	4.936047e-09	8.816036e+00	3.219422e+02
2.620000e-06	1.163840e-06	4.812733e-09	8.306037e+00	3.137860e+02
2.630000e-06	1.092229e-06	4.689004e-09	7.794967e+00	3.054393e+02
2.640000e-06	1.020464e-06	4.556323e-09	7.282804e+00	2.968699e+02
2.650000e-06	9.485286e-07	4.418302e-09	6.769415e+00	2.880636e+02
2.660000e-06	8.764050e-07	4.281756e-09	6.254687e+00	2.790293e+02
2.670000e-06	8.040766e-07	4.149569e-09	5.738497e+00	2.697892e+02
2.680000e-06	7.315492e-07	4.008919e-09	5.220887e+00	2.603597e+02
2.690000e-06	6.588319e-07	3.856659e-09	4.701922e+00	2.507363e+02
2.700000e-06	5.859410e-07	3.703671e-09	4.181717e+00	2.408927e+02
2.710000e-06	5.128955e-07	3.550595e-09	3.660410e+00	2.307948e+02
2.720000e-06	4.397274e-07	3.394716e-09	3.138226e+00	2.204206e+02
2.730000e-06	3.664734e-07	3.233266e-09	2.615431e+00	2.097724e+02
2.740000e-06	2.931417e-07	3.068930e-09	2.092080e+00	1.988732e+02
2.750000e-06	2.197984e-07	2.904656e-09	1.568648e+00	1.877481e+02
2.760000e-06	1.464902e-07	2.735598e-09	1.045465e+00	1.764026e+02
2.770000e-06	7.314932e-08	2.558121e-09	5.220487e-01	1.648127e+02
2.780000e-06	-3.060071e-10	2.373496e-09	-2.183898e-03	1.529336e+02
2.790000e-06	-7.378606e-08	2.186002e-09	-5.265930e-01	1.407247e+02
2.800000e-06	-1.472319e-07	1.994816e-09	-1.050758e+00	1.281740e+02
2.810000e-06	-2.206522e-07	1.798623e-09	-1.574741e+00	1.153091e+02
2.820000e-06	-2.939751e-07	1.599513e-09	-2.098028e+00	1.021838e+02
2.830000e-06	-3.671843e-07	1.398249e-09	-2.620504e+00	8.884825e+01
2.840000e-06	-4.403118e-07	1.194484e-09	-3.142397e+00	7.531852e+01
2.850000e-06	-5.133567e-07	9.863051e-10	-3.663700e+00	6.156387e+01
2.860000e-06	-5.862730e-07	7.716193e-10	-4.184086e+00	4.752054e+01
2.870000e-06	-6.590598e-07	5.509477e-10	-4.703548e+00	3.312592e+01
2.880000e-06	-7.316825e-07	3.245798e-10	-5.221839e+00	1.835538e+01
2.890000e-06	-8.040838e-07	9.369336e-11	-5.738549e+00	3.241581e+00
2.900000e-06	-8.762724e-07	-1.410046e-10	-6.253741e+00	-1.213408e+01
2.910000e-06	-9.482790e-07	-3.801416e-10	-6.767634e+00	-2.767342e+01
2.920000e-06	-1.020085e-06	-6.191985e-10	-7.280098e+00	-4.329953e+01
2.930000e-06	-1.091723e-06	-8.570768e-10	-7.791357e+00	-5.898088e+01
2.940000e-06	-1.163164e-06	-1.097450e-09	-8.301214e+00	-7.472958e+01
2.950000e-06	-1.234351e-06	-1.340444e-09	-8.809261e+00	-9.057621e+01
