# Temperatura_=_20.0
# Concentracion g/m^3_=_10000.0
# C_Vs_to_Am_M_A/Vsm_=_65563218390.804596
# pendiente_HvsI_1/m_=_3716.3
# ordenada_HvsI_A/m_=_1297.0
# frecuencia_Hz_=_269363.32704127155

Tiempo_(s)	Campo_(V.s)	Magnetizacion_(V.s)	Campo_(kA/m)	Magnetizacion_(A/m)
0.000000e+00	-4.322224e-06	-8.775004e-09	-3.089508e+01	-5.711576e+02
1.000000e-08	-4.321499e-06	-8.774573e-09	-3.088990e+01	-5.711390e+02
2.000000e-08	-4.319423e-06	-8.771156e-09	-3.087507e+01	-5.710237e+02
3.000000e-08	-4.315990e-06	-8.765661e-09	-3.085052e+01	-5.708148e+02
4.000000e-08	-4.311468e-06	-8.760787e-09	-3.081820e+01	-5.705194e+02
5.000000e-08	-4.305952e-06	-8.756391e-09	-3.077877e+01	-5.701501e+02
6.000000e-08	-4.299299e-06	-8.749652e-09	-3.073122e+01	-5.697212e+02
7.000000e-08	-4.291561e-06	-8.737865e-09	-3.067591e+01	-5.692424e+02
8.000000e-08	-4.282690e-06	-8.721134e-09	-3.061249e+01	-5.687124e+02
9.000000e-08	-4.272195e-06	-8.722492e-09	-3.053748e+01	-5.681183e+02
1.000000e-07	-4.259884e-06	-8.731049e-09	-3.044948e+01	-5.674432e+02
1.100000e-07	-4.245978e-06	-8.718410e-09	-3.035008e+01	-5.666782e+02
1.200000e-07	-4.230698e-06	-8.671099e-09	-3.024086e+01	-5.658315e+02
1.300000e-07	-4.214241e-06	-8.617078e-09	-3.012323e+01	-5.649286e+02
1.400000e-07	-4.196706e-06	-8.654173e-09	-2.999788e+01	-5.640008e+02
1.500000e-07	-4.178135e-06	-8.680321e-09	-2.986514e+01	-5.630675e+02
1.600000e-07	-4.158651e-06	-8.562345e-09	-2.972587e+01	-5.621216e+02
1.700000e-07	-4.138265e-06	-8.569803e-09	-2.958015e+01	-5.611265e+02
1.800000e-07	-4.116763e-06	-8.622271e-09	-2.942646e+01	-5.600276e+02
1.900000e-07	-4.094249e-06	-8.511600e-09	-2.926553e+01	-5.587744e+02
2.000000e-07	-4.070878e-06	-8.495299e-09	-2.909848e+01	-5.573403e+02
2.100000e-07	-4.046358e-06	-8.528647e-09	-2.892320e+01	-5.557328e+02
2.200000e-07	-4.020508e-06	-8.439487e-09	-2.873843e+01	-5.539873e+02
2.300000e-07	-3.993361e-06	-8.417448e-09	-2.854438e+01	-5.521493e+02
2.400000e-07	-3.965064e-06	-8.452366e-09	-2.834212e+01	-5.502548e+02
2.500000e-07	-3.935763e-06	-8.393162e-09	-2.813268e+01	-5.483180e+02
2.600000e-07	-3.905388e-06	-8.358175e-09	-2.791556e+01	-5.463320e+02
2.700000e-07	-3.873935e-06	-8.313454e-09	-2.769073e+01	-5.442793e+02
2.800000e-07	-3.841560e-06	-8.263011e-09	-2.745932e+01	-5.421454e+02
2.900000e-07	-3.808090e-06	-8.270163e-09	-2.722007e+01	-5.399263e+02
3.000000e-07	-3.773234e-06	-8.214583e-09	-2.697093e+01	-5.376273e+02
3.100000e-07	-3.737120e-06	-8.138281e-09	-2.671278e+01	-5.352547e+02
3.200000e-07	-3.699961e-06	-8.162643e-09	-2.644717e+01	-5.328069e+02
3.300000e-07	-3.661787e-06	-8.127977e-09	-2.617431e+01	-5.302719e+02
3.400000e-07	-3.622495e-06	-8.040327e-09	-2.589345e+01	-5.276327e+02
3.500000e-07	-3.582266e-06	-8.018668e-09	-2.560589e+01	-5.248776e+02
3.600000e-07	-3.541160e-06	-7.962915e-09	-2.531207e+01	-5.220090e+02
3.700000e-07	-3.498760e-06	-7.911393e-09	-2.500899e+01	-5.190437e+02
3.800000e-07	-3.455013e-06	-7.892564e-09	-2.469630e+01	-5.160053e+02
3.900000e-07	-3.410258e-06	-7.833201e-09	-2.437639e+01	-5.129102e+02
4.000000e-07	-3.364613e-06	-7.763560e-09	-2.405012e+01	-5.097562e+02
4.100000e-07	-3.318023e-06	-7.741182e-09	-2.371710e+01	-5.065208e+02
4.200000e-07	-3.270540e-06	-7.694063e-09	-2.337769e+01	-5.031694e+02
4.300000e-07	-3.222217e-06	-7.613075e-09	-2.303228e+01	-4.996715e+02
4.400000e-07	-3.172789e-06	-7.559850e-09	-2.267897e+01	-4.960167e+02
4.500000e-07	-3.121918e-06	-7.515386e-09	-2.231535e+01	-4.922217e+02
4.600000e-07	-3.069889e-06	-7.460396e-09	-2.194344e+01	-4.883249e+02
4.700000e-07	-3.017034e-06	-7.394453e-09	-2.156563e+01	-4.843695e+02
4.800000e-07	-2.963304e-06	-7.324472e-09	-2.118158e+01	-4.803826e+02
4.900000e-07	-2.908685e-06	-7.261919e-09	-2.079117e+01	-4.763601e+02
5.000000e-07	-2.853283e-06	-7.208691e-09	-2.039515e+01	-4.722649e+02
5.100000e-07	-2.797306e-06	-7.140259e-09	-1.999503e+01	-4.680406e+02
5.200000e-07	-2.740833e-06	-7.068900e-09	-1.959136e+01	-4.636350e+02
5.300000e-07	-2.683506e-06	-6.998719e-09	-1.918159e+01	-4.590244e+02
5.400000e-07	-2.625007e-06	-6.924042e-09	-1.876344e+01	-4.542253e+02
5.500000e-07	-2.565570e-06	-6.853414e-09	-1.833859e+01	-4.492891e+02
5.600000e-07	-2.505553e-06	-6.771627e-09	-1.790959e+01	-4.442785e+02
5.700000e-07	-2.444973e-06	-6.683512e-09	-1.747657e+01	-4.392371e+02
5.800000e-07	-2.383686e-06	-6.605301e-09	-1.703849e+01	-4.341655e+02
5.900000e-07	-2.321828e-06	-6.537386e-09	-1.659634e+01	-4.290165e+02
6.000000e-07	-2.259461e-06	-6.456258e-09	-1.615054e+01	-4.237135e+02
6.100000e-07	-2.196390e-06	-6.363615e-09	-1.569971e+01	-4.181847e+02
6.200000e-07	-2.132686e-06	-6.273297e-09	-1.524435e+01	-4.123973e+02
6.300000e-07	-2.068496e-06	-6.186331e-09	-1.478552e+01	-4.063749e+02
6.400000e-07	-2.003745e-06	-6.097077e-09	-1.432269e+01	-4.001875e+02
6.500000e-07	-1.938233e-06	-5.997005e-09	-1.385441e+01	-3.939186e+02
6.600000e-07	-1.871836e-06	-5.893470e-09	-1.337981e+01	-3.876232e+02
6.700000e-07	-1.804664e-06	-5.795616e-09	-1.289966e+01	-3.812989e+02
6.800000e-07	-1.737006e-06	-5.701377e-09	-1.241605e+01	-3.748842e+02
6.900000e-07	-1.669034e-06	-5.597303e-09	-1.193019e+01	-3.682858e+02
7.000000e-07	-1.600720e-06	-5.486651e-09	-1.144189e+01	-3.614215e+02
7.100000e-07	-1.531988e-06	-5.377011e-09	-1.095059e+01	-3.542574e+02
7.200000e-07	-1.462795e-06	-5.269653e-09	-1.045600e+01	-3.468201e+02
7.300000e-07	-1.393201e-06	-5.153603e-09	-9.958543e+00	-3.391787e+02
7.400000e-07	-1.323209e-06	-5.025710e-09	-9.458244e+00	-3.314069e+02
7.500000e-07	-1.252794e-06	-4.900153e-09	-8.954920e+00	-3.235446e+02
7.600000e-07	-1.181996e-06	-4.781099e-09	-8.448860e+00	-3.155799e+02
7.700000e-07	-1.110843e-06	-4.661251e-09	-7.940261e+00	-3.074592e+02
7.800000e-07	-1.039337e-06	-4.530753e-09	-7.429140e+00	-2.991177e+02
7.900000e-07	-9.675579e-07	-4.395240e-09	-6.916065e+00	-2.905125e+02
8.000000e-07	-8.956595e-07	-4.260669e-09	-6.402138e+00	-2.816399e+02
8.100000e-07	-8.236717e-07	-4.124807e-09	-5.887573e+00	-2.725293e+02
8.200000e-07	-7.515695e-07	-3.981645e-09	-5.372188e+00	-2.632188e+02
8.300000e-07	-6.793741e-07	-3.831129e-09	-4.856139e+00	-2.537288e+02
8.400000e-07	-6.070861e-07	-3.681296e-09	-4.339427e+00	-2.440502e+02
8.500000e-07	-5.346865e-07	-3.533923e-09	-3.821918e+00	-2.341515e+02
8.600000e-07	-4.621546e-07	-3.381768e-09	-3.303463e+00	-2.240004e+02
8.700000e-07	-3.895029e-07	-3.217669e-09	-2.784151e+00	-2.135826e+02
8.800000e-07	-3.167002e-07	-3.048576e-09	-2.263760e+00	-2.029072e+02
8.900000e-07	-2.437759e-07	-2.881157e-09	-1.742500e+00	-1.919941e+02
9.000000e-07	-1.708007e-07	-2.712418e-09	-1.220877e+00	-1.808535e+02
9.100000e-07	-9.782789e-08	-2.537166e-09	-6.992698e-01	-1.694706e+02
9.200000e-07	-2.484472e-08	-2.357445e-09	-1.775891e-01	-1.578094e+02
9.300000e-07	4.819200e-08	-2.175869e-09	3.444745e-01	-1.458313e+02
9.400000e-07	1.212164e-07	-1.991191e-09	8.664500e-01	-1.335196e+02
9.500000e-07	1.941907e-07	-1.800006e-09	1.388067e+00	-1.208927e+02
9.600000e-07	2.671219e-07	-1.599695e-09	1.909377e+00	-1.079950e+02
9.700000e-07	3.399776e-07	-1.396158e-09	2.430146e+00	-9.487115e+01
9.800000e-07	4.127014e-07	-1.193703e-09	2.949973e+00	-8.153717e+01
9.900000e-07	4.852780e-07	-9.889273e-10	3.468748e+00	-6.796710e+01
1.000000e-06	5.577090e-07	-7.754047e-10	3.986482e+00	-5.410517e+01
1.010000e-06	6.299996e-07	-5.551846e-10	4.503212e+00	-3.989791e+01
1.020000e-06	7.022105e-07	-3.330173e-10	5.019372e+00	-2.532861e+01
1.030000e-06	7.743520e-07	-1.095526e-10	5.535037e+00	-1.043384e+01
1.040000e-06	8.463704e-07	1.190305e-10	6.049822e+00	4.708181e+00
1.050000e-06	9.182791e-07	3.532948e-10	6.563823e+00	2.001153e+01
1.060000e-06	9.900386e-07	5.892000e-10	7.076756e+00	3.541967e+01
1.070000e-06	1.061552e-06	8.243646e-10	7.587933e+00	5.092445e+01
1.080000e-06	1.132821e-06	1.061233e-09	8.097361e+00	6.655610e+01
1.090000e-06	1.203782e-06	1.302801e-09	8.604589e+00	8.234996e+01
1.100000e-06	1.274358e-06	1.545764e-09	9.109062e+00	9.830930e+01
1.110000e-06	1.344544e-06	1.788247e-09	9.610747e+00	1.143853e+02
1.120000e-06	1.414311e-06	2.030530e-09	1.010944e+01	1.304850e+02
1.130000e-06	1.483660e-06	2.272692e-09	1.060514e+01	1.465023e+02
1.140000e-06	1.552573e-06	2.515244e-09	1.109773e+01	1.623527e+02
1.150000e-06	1.621053e-06	2.755693e-09	1.158722e+01	1.779932e+02
1.160000e-06	1.689157e-06	2.990031e-09	1.207402e+01	1.934159e+02
1.170000e-06	1.756926e-06	3.218591e-09	1.255844e+01	2.086236e+02
1.180000e-06	1.824294e-06	3.445665e-09	1.303998e+01	2.236009e+02
1.190000e-06	1.890945e-06	3.669023e-09	1.351640e+01	2.383016e+02
1.200000e-06	1.956663e-06	3.884539e-09	1.398615e+01	2.526574e+02
1.210000e-06	2.021568e-06	4.092459e-09	1.445009e+01	2.666031e+02
1.220000e-06	2.085880e-06	4.296967e-09	1.490979e+01	2.801007e+02
1.230000e-06	2.149728e-06	4.496401e-09	1.536617e+01	2.931484e+02
1.240000e-06	2.213108e-06	4.686449e-09	1.581921e+01	3.057698e+02
1.250000e-06	2.275942e-06	4.868188e-09	1.626834e+01	3.179904e+02
1.260000e-06	2.338167e-06	5.044430e-09	1.671312e+01	3.298174e+02
1.270000e-06	2.399760e-06	5.217858e-09	1.715339e+01	3.412364e+02
1.280000e-06	2.460717e-06	5.386781e-09	1.758911e+01	3.522254e+02
1.290000e-06	2.521096e-06	5.548866e-09	1.802069e+01	3.627767e+02
1.300000e-06	2.580976e-06	5.704321e-09	1.844871e+01	3.729123e+02
1.310000e-06	2.640198e-06	5.854803e-09	1.887203e+01	3.826798e+02
1.320000e-06	2.698434e-06	6.000599e-09	1.928830e+01	3.921314e+02
1.330000e-06	2.755551e-06	6.139832e-09	1.969657e+01	4.012968e+02
1.340000e-06	2.811784e-06	6.272072e-09	2.009852e+01	4.101669e+02
1.350000e-06	2.867421e-06	6.400783e-09	2.049621e+01	4.186976e+02
1.360000e-06	2.922413e-06	6.527162e-09	2.088929e+01	4.268342e+02
1.370000e-06	2.976619e-06	6.646611e-09	2.127675e+01	4.345407e+02
1.380000e-06	3.030023e-06	6.756330e-09	2.165848e+01	4.418202e+02
1.390000e-06	3.082604e-06	6.859568e-09	2.203433e+01	4.487150e+02
1.400000e-06	3.134220e-06	6.957770e-09	2.240328e+01	4.552878e+02
1.410000e-06	3.184636e-06	7.050862e-09	2.276365e+01	4.615957e+02
1.420000e-06	3.233771e-06	7.138723e-09	2.311487e+01	4.676715e+02
1.430000e-06	3.281827e-06	7.222822e-09	2.345837e+01	4.735208e+02
1.440000e-06	3.329047e-06	7.306734e-09	2.379589e+01	4.791342e+02
1.450000e-06	3.375457e-06	7.390571e-09	2.412763e+01	4.845047e+02
1.460000e-06	3.420970e-06	7.471200e-09	2.445296e+01	4.896397e+02
1.470000e-06	3.465583e-06	7.546420e-09	2.477185e+01	4.945608e+02
1.480000e-06	3.509398e-06	7.616221e-09	2.508504e+01	4.992940e+02
1.490000e-06	3.552260e-06	7.683321e-09	2.539141e+01	5.038586e+02
1.500000e-06	3.593760e-06	7.748319e-09	2.568806e+01	5.082614e+02
1.510000e-06	3.634033e-06	7.809353e-09	2.597592e+01	5.124999e+02
1.520000e-06	3.673326e-06	7.868047e-09	2.625679e+01	5.165704e+02
1.530000e-06	3.711585e-06	7.926349e-09	2.653026e+01	5.204733e+02
1.540000e-06	3.748861e-06	7.984462e-09	2.679671e+01	5.242126e+02
1.550000e-06	3.785222e-06	8.039092e-09	2.705662e+01	5.277897e+02
1.560000e-06	3.820653e-06	8.089345e-09	2.730987e+01	5.311975e+02
1.570000e-06	3.854849e-06	8.137165e-09	2.755431e+01	5.344217e+02
1.580000e-06	3.887639e-06	8.182408e-09	2.778869e+01	5.374497e+02
1.590000e-06	3.919329e-06	8.223013e-09	2.801521e+01	5.402835e+02
1.600000e-06	3.950021e-06	8.258230e-09	2.823459e+01	5.429460e+02
1.610000e-06	3.979664e-06	8.291817e-09	2.844648e+01	5.454764e+02
1.620000e-06	4.008302e-06	8.327376e-09	2.865118e+01	5.479130e+02
1.630000e-06	4.035980e-06	8.362443e-09	2.884902e+01	5.502740e+02
1.640000e-06	4.062442e-06	8.394218e-09	2.903817e+01	5.525458e+02
1.650000e-06	4.087431e-06	8.423504e-09	2.921679e+01	5.546886e+02
1.660000e-06	4.111206e-06	8.452138e-09	2.938674e+01	5.566559e+02
1.670000e-06	4.133884e-06	8.478510e-09	2.954884e+01	5.584209e+02
1.680000e-06	4.155505e-06	8.499902e-09	2.970339e+01	5.599924e+02
1.690000e-06	4.176164e-06	8.517077e-09	2.985105e+01	5.614137e+02
1.700000e-06	4.195832e-06	8.532794e-09	2.999164e+01	5.627435e+02
1.710000e-06	4.214380e-06	8.550766e-09	3.012422e+01	5.640287e+02
1.720000e-06	4.231716e-06	8.569342e-09	3.024814e+01	5.652845e+02
1.730000e-06	4.247847e-06	8.585947e-09	3.036344e+01	5.664908e+02
1.740000e-06	4.262700e-06	8.600753e-09	3.046961e+01	5.676068e+02
1.750000e-06	4.276261e-06	8.614595e-09	3.056655e+01	5.685945e+02
1.760000e-06	4.288579e-06	8.626931e-09	3.065459e+01	5.694384e+02
1.770000e-06	4.299511e-06	8.636586e-09	3.073273e+01	5.701515e+02
1.780000e-06	4.308903e-06	8.643818e-09	3.079987e+01	5.707663e+02
1.790000e-06	4.317007e-06	8.651384e-09	3.085779e+01	5.713171e+02
1.800000e-06	4.323952e-06	8.660703e-09	3.090743e+01	5.718247e+02
1.810000e-06	4.329693e-06	8.669664e-09	3.094847e+01	5.722897e+02
1.820000e-06	4.334338e-06	8.675731e-09	3.098168e+01	5.726976e+02
1.830000e-06	4.337885e-06	8.678977e-09	3.100703e+01	5.730290e+02
1.840000e-06	4.340047e-06	8.681683e-09	3.102248e+01	5.732690e+02
1.850000e-06	4.340735e-06	8.683612e-09	3.102740e+01	5.734109e+02
1.860000e-06	4.340266e-06	8.684335e-09	3.102405e+01	5.734538e+02
1.870000e-06	4.338695e-06	8.683351e-09	3.101282e+01	5.733990e+02
1.880000e-06	4.335991e-06	8.681617e-09	3.099349e+01	5.732482e+02
1.890000e-06	4.332347e-06	8.679067e-09	3.096745e+01	5.730059e+02
1.900000e-06	4.327672e-06	8.674541e-09	3.093402e+01	5.726813e+02
1.910000e-06	4.321565e-06	8.669048e-09	3.089038e+01	5.722881e+02
1.920000e-06	4.314134e-06	8.663993e-09	3.083726e+01	5.718401e+02
1.930000e-06	4.305736e-06	8.665631e-09	3.077723e+01	5.713431e+02
1.940000e-06	4.296228e-06	8.651762e-09	3.070927e+01	5.707912e+02
1.950000e-06	4.285093e-06	8.610562e-09	3.062967e+01	5.701687e+02
1.960000e-06	4.271778e-06	8.597805e-09	3.053450e+01	5.694603e+02
1.970000e-06	4.256627e-06	8.629121e-09	3.042620e+01	5.686629e+02
1.980000e-06	4.240814e-06	8.658788e-09	3.031317e+01	5.677916e+02
1.990000e-06	4.224682e-06	8.593844e-09	3.019786e+01	5.668761e+02
2.000000e-06	4.207436e-06	8.531382e-09	3.007459e+01	5.659454e+02
2.010000e-06	4.188705e-06	8.628947e-09	2.994070e+01	5.650100e+02
2.020000e-06	4.169129e-06	8.588844e-09	2.980077e+01	5.640515e+02
2.030000e-06	4.148626e-06	8.493206e-09	2.965421e+01	5.630243e+02
2.040000e-06	4.126397e-06	8.603133e-09	2.949532e+01	5.618727e+02
2.050000e-06	4.102874e-06	8.578199e-09	2.932718e+01	5.605532e+02
2.060000e-06	4.078540e-06	8.448573e-09	2.915324e+01	5.590516e+02
2.070000e-06	4.053064e-06	8.516277e-09	2.897114e+01	5.573874e+02
2.080000e-06	4.026585e-06	8.503028e-09	2.878187e+01	5.556021e+02
2.090000e-06	3.999173e-06	8.380543e-09	2.858593e+01	5.537399e+02
2.100000e-06	3.970468e-06	8.388168e-09	2.838075e+01	5.518293e+02
2.110000e-06	3.940473e-06	8.359144e-09	2.816634e+01	5.498759e+02
2.120000e-06	3.909284e-06	8.332298e-09	2.794341e+01	5.478673e+02
2.130000e-06	3.876870e-06	8.338191e-09	2.771171e+01	5.457855e+02
2.140000e-06	3.843457e-06	8.238517e-09	2.747288e+01	5.436196e+02
2.150000e-06	3.809087e-06	8.237442e-09	2.722720e+01	5.413699e+02
2.160000e-06	3.773745e-06	8.278101e-09	2.697458e+01	5.390430e+02
2.170000e-06	3.737414e-06	8.129912e-09	2.671488e+01	5.366431e+02
2.180000e-06	3.699572e-06	8.101786e-09	2.644440e+01	5.341647e+02
2.190000e-06	3.660337e-06	8.129652e-09	2.616394e+01	5.315928e+02
2.200000e-06	3.620242e-06	8.040202e-09	2.587735e+01	5.289110e+02
2.210000e-06	3.579186e-06	8.028034e-09	2.558388e+01	5.261124e+02
2.220000e-06	3.537166e-06	7.985306e-09	2.528352e+01	5.232050e+02
2.230000e-06	3.494294e-06	7.910208e-09	2.497707e+01	5.202099e+02
2.240000e-06	3.450530e-06	7.897804e-09	2.466425e+01	5.171492e+02
2.250000e-06	3.405806e-06	7.841999e-09	2.434457e+01	5.140336e+02
2.260000e-06	3.360011e-06	7.771499e-09	2.401722e+01	5.108529e+02
2.270000e-06	3.313268e-06	7.728975e-09	2.368311e+01	5.075784e+02
2.280000e-06	3.265588e-06	7.691988e-09	2.334229e+01	5.041750e+02
2.290000e-06	3.216833e-06	7.646273e-09	2.299379e+01	5.006182e+02
2.300000e-06	3.167138e-06	7.567439e-09	2.263858e+01	4.969076e+02
2.310000e-06	3.116548e-06	7.510223e-09	2.227696e+01	4.930694e+02
2.320000e-06	3.065158e-06	7.454925e-09	2.190962e+01	4.891462e+02
2.330000e-06	3.012891e-06	7.394623e-09	2.153602e+01	4.851774e+02
2.340000e-06	2.959393e-06	7.346487e-09	2.115362e+01	4.811797e+02
2.350000e-06	2.904711e-06	7.272163e-09	2.076276e+01	4.771360e+02
2.360000e-06	2.849183e-06	7.215874e-09	2.036584e+01	4.729995e+02
2.370000e-06	2.793025e-06	7.149476e-09	1.996443e+01	4.687124e+02
2.380000e-06	2.736225e-06	7.073845e-09	1.955843e+01	4.642308e+02
2.390000e-06	2.678670e-06	7.018189e-09	1.914702e+01	4.595455e+02
2.400000e-06	2.620378e-06	6.934448e-09	1.873036e+01	4.546880e+02
2.410000e-06	2.561390e-06	6.864664e-09	1.830871e+01	4.497170e+02
2.420000e-06	2.501797e-06	6.802170e-09	1.788274e+01	4.446919e+02
2.430000e-06	2.441698e-06	6.722034e-09	1.745316e+01	4.396419e+02
2.440000e-06	2.380869e-06	6.637968e-09	1.701836e+01	4.345492e+02
2.450000e-06	2.319013e-06	6.549478e-09	1.657621e+01	4.293522e+02
2.460000e-06	2.256182e-06	6.476038e-09	1.612710e+01	4.239717e+02
2.470000e-06	2.192721e-06	6.396453e-09	1.567348e+01	4.183470e+02
2.480000e-06	2.128816e-06	6.302987e-09	1.521669e+01	4.124659e+02
2.490000e-06	2.064373e-06	6.210145e-09	1.475605e+01	4.063719e+02
2.500000e-06	1.999319e-06	6.115506e-09	1.429105e+01	4.001450e+02
2.510000e-06	1.933650e-06	6.026936e-09	1.382165e+01	3.938626e+02
2.520000e-06	1.867398e-06	5.929742e-09	1.334809e+01	3.875603e+02
2.530000e-06	1.800616e-06	5.828158e-09	1.287073e+01	3.812120e+02
2.540000e-06	1.733344e-06	5.733716e-09	1.238987e+01	3.747399e+02
2.550000e-06	1.665680e-06	5.635310e-09	1.190622e+01	3.680496e+02
2.560000e-06	1.597687e-06	5.533709e-09	1.142020e+01	3.610737e+02
2.570000e-06	1.529316e-06	5.418669e-09	1.093149e+01	3.538013e+02
2.580000e-06	1.460297e-06	5.303405e-09	1.043815e+01	3.462783e+02
2.590000e-06	1.390548e-06	5.194185e-09	9.939584e+00	3.385807e+02
2.600000e-06	1.320143e-06	5.079352e-09	9.436328e+00	3.307731e+02
2.610000e-06	1.249122e-06	4.957426e-09	8.928675e+00	3.228767e+02
2.620000e-06	1.177718e-06	4.830596e-09	8.418284e+00	3.148614e+02
2.630000e-06	1.106145e-06	4.708191e-09	7.906678e+00	3.066651e+02
2.640000e-06	1.034480e-06	4.582068e-09	7.394422e+00	2.982279e+02
2.650000e-06	9.626685e-07	4.448364e-09	6.881116e+00	2.895209e+02
2.660000e-06	8.906827e-07	4.311738e-09	6.366565e+00	2.805547e+02
2.670000e-06	8.185394e-07	4.176380e-09	5.850887e+00	2.713653e+02
2.680000e-06	7.462180e-07	4.040075e-09	5.333936e+00	2.619868e+02
2.690000e-06	6.736481e-07	3.893754e-09	4.815210e+00	2.524288e+02
2.700000e-06	6.008654e-07	3.741297e-09	4.294962e+00	2.426721e+02
2.710000e-06	5.280330e-07	3.587150e-09	3.774359e+00	2.326821e+02
2.720000e-06	4.551037e-07	3.433396e-09	3.253063e+00	2.224315e+02
2.730000e-06	3.819744e-07	3.276639e-09	2.730338e+00	2.119151e+02
2.740000e-06	3.087260e-07	3.113063e-09	2.206761e+00	2.011485e+02
2.750000e-06	2.354879e-07	2.947062e-09	1.683258e+00	1.901503e+02
2.760000e-06	1.622410e-07	2.779947e-09	1.159692e+00	1.789221e+02
2.770000e-06	8.892692e-08	2.608325e-09	6.356460e-01	1.674400e+02
2.780000e-06	1.557172e-08	2.427469e-09	1.113061e-01	1.556639e+02
2.790000e-06	-5.778417e-08	2.238781e-09	-4.130390e-01	1.435611e+02
2.800000e-06	-1.310860e-07	2.046053e-09	-9.369974e-01	1.311274e+02
2.810000e-06	-2.043549e-07	1.851634e-09	-1.460720e+00	1.183932e+02
2.820000e-06	-2.775566e-07	1.656010e-09	-1.983964e+00	1.054066e+02
2.830000e-06	-3.506501e-07	1.457197e-09	-2.506433e+00	9.220446e+01
2.840000e-06	-4.236882e-07	1.255262e-09	-3.028506e+00	7.878729e+01
2.850000e-06	-4.966238e-07	1.049967e-09	-3.549847e+00	6.511517e+01
2.860000e-06	-5.694770e-07	8.378188e-10	-4.070599e+00	5.112885e+01
2.870000e-06	-6.421819e-07	6.166726e-10	-4.590290e+00	3.678519e+01
2.880000e-06	-7.146801e-07	3.875371e-10	-5.108505e+00	2.208694e+01
2.890000e-06	-7.869814e-07	1.564168e-10	-5.625312e+00	7.089158e+00
2.900000e-06	-8.590698e-07	-7.324880e-11	-6.140596e+00	-8.122390e+00
2.910000e-06	-9.310213e-07	-3.058940e-10	-6.654903e+00	-2.346902e+01
2.920000e-06	-1.002809e-06	-5.421051e-10	-7.168036e+00	-3.891160e+01
2.930000e-06	-1.074419e-06	-7.799385e-10	-7.679907e+00	-5.445909e+01
2.940000e-06	-1.145830e-06	-1.019448e-09	-8.190347e+00	-7.014826e+01
2.950000e-06	-1.216971e-06	-1.262798e-09	-8.698860e+00	-8.600627e+01
