# Temperatura_=_20.0
# Concentracion g/m^3_=_10000.0
# C_Vs_to_Am_M_A/Vsm_=_65563218390.804596
# pendiente_HvsI_1/m_=_3716.3
# ordenada_HvsI_A/m_=_1297.0
# frecuencia_Hz_=_269358.77107057866

Tiempo_(s)	Campo_(V.s)	Magnetizacion_(V.s)	Campo_(kA/m)	Magnetizacion_(A/m)
0.000000e+00	-4.326055e-06	-8.795985e-09	-3.089665e+01	-5.732674e+02
1.000000e-08	-4.325316e-06	-8.795886e-09	-3.089138e+01	-5.731975e+02
2.000000e-08	-4.323224e-06	-8.791542e-09	-3.087644e+01	-5.730476e+02
3.000000e-08	-4.319785e-06	-8.785247e-09	-3.085188e+01	-5.728320e+02
4.000000e-08	-4.315305e-06	-8.778672e-09	-3.081988e+01	-5.725482e+02
5.000000e-08	-4.309795e-06	-8.771555e-09	-3.078053e+01	-5.721853e+02
6.000000e-08	-4.303161e-06	-8.762112e-09	-3.073315e+01	-5.717375e+02
7.000000e-08	-4.295433e-06	-8.750572e-09	-3.067795e+01	-5.712107e+02
8.000000e-08	-4.286505e-06	-8.742761e-09	-3.061419e+01	-5.706186e+02
9.000000e-08	-4.275922e-06	-8.742807e-09	-3.053861e+01	-5.699698e+02
1.000000e-07	-4.263502e-06	-8.743628e-09	-3.044991e+01	-5.692605e+02
1.100000e-07	-4.249520e-06	-8.719695e-09	-3.035005e+01	-5.684769e+02
1.200000e-07	-4.234223e-06	-8.678115e-09	-3.024080e+01	-5.676106e+02
1.300000e-07	-4.217827e-06	-8.652255e-09	-3.012369e+01	-5.666759e+02
1.400000e-07	-4.200285e-06	-8.672994e-09	-2.999841e+01	-5.657134e+02
1.500000e-07	-4.181601e-06	-8.664144e-09	-2.986497e+01	-5.647743e+02
1.600000e-07	-4.162118e-06	-8.599002e-09	-2.972582e+01	-5.638896e+02
1.700000e-07	-4.141747e-06	-8.601068e-09	-2.958033e+01	-5.630406e+02
1.800000e-07	-4.120199e-06	-8.617552e-09	-2.942643e+01	-5.621504e+02
1.900000e-07	-4.097670e-06	-8.574636e-09	-2.926553e+01	-5.611063e+02
2.000000e-07	-4.074307e-06	-8.531344e-09	-2.909868e+01	-5.598057e+02
2.100000e-07	-4.049792e-06	-8.511034e-09	-2.892359e+01	-5.582031e+02
2.200000e-07	-4.023874e-06	-8.489169e-09	-2.873848e+01	-5.563330e+02
2.300000e-07	-3.996654e-06	-8.466398e-09	-2.854408e+01	-5.542959e+02
2.400000e-07	-3.968331e-06	-8.438411e-09	-2.834179e+01	-5.522112e+02
2.500000e-07	-3.939009e-06	-8.415290e-09	-2.813238e+01	-5.501629e+02
2.600000e-07	-3.908616e-06	-8.401173e-09	-2.791531e+01	-5.481642e+02
2.700000e-07	-3.877168e-06	-8.344727e-09	-2.769071e+01	-5.461607e+02
2.800000e-07	-3.844782e-06	-8.298720e-09	-2.745941e+01	-5.440673e+02
2.900000e-07	-3.811220e-06	-8.295709e-09	-2.721971e+01	-5.418188e+02
3.000000e-07	-3.776305e-06	-8.236349e-09	-2.697035e+01	-5.394054e+02
3.100000e-07	-3.740180e-06	-8.176203e-09	-2.671234e+01	-5.368740e+02
3.200000e-07	-3.702989e-06	-8.191299e-09	-2.644672e+01	-5.342969e+02
3.300000e-07	-3.664738e-06	-8.145909e-09	-2.617354e+01	-5.317271e+02
3.400000e-07	-3.625439e-06	-8.071571e-09	-2.589287e+01	-5.291659e+02
3.500000e-07	-3.585244e-06	-8.051252e-09	-2.560579e+01	-5.265617e+02
3.600000e-07	-3.544019e-06	-7.997839e-09	-2.531136e+01	-5.238386e+02
3.700000e-07	-3.501468e-06	-7.940903e-09	-2.500746e+01	-5.209387e+02
3.800000e-07	-3.457650e-06	-7.920439e-09	-2.469451e+01	-5.178518e+02
3.900000e-07	-3.412860e-06	-7.862287e-09	-2.437463e+01	-5.146184e+02
4.000000e-07	-3.367236e-06	-7.799774e-09	-2.404878e+01	-5.113029e+02
4.100000e-07	-3.320673e-06	-7.776022e-09	-2.371623e+01	-5.079564e+02
4.200000e-07	-3.273184e-06	-7.717399e-09	-2.337706e+01	-5.045887e+02
4.300000e-07	-3.224796e-06	-7.639710e-09	-2.303147e+01	-5.011653e+02
4.400000e-07	-3.175272e-06	-7.590223e-09	-2.267778e+01	-4.976305e+02
4.500000e-07	-3.124350e-06	-7.549687e-09	-2.231409e+01	-4.939395e+02
4.600000e-07	-3.072233e-06	-7.496052e-09	-2.194187e+01	-4.900833e+02
4.700000e-07	-3.019283e-06	-7.429738e-09	-2.156370e+01	-4.860898e+02
4.800000e-07	-2.965481e-06	-7.359824e-09	-2.117945e+01	-4.820036e+02
4.900000e-07	-2.910805e-06	-7.300440e-09	-2.078895e+01	-4.778571e+02
5.000000e-07	-2.855377e-06	-7.240103e-09	-2.039309e+01	-4.736500e+02
5.100000e-07	-2.799402e-06	-7.163347e-09	-1.999331e+01	-4.693498e+02
5.200000e-07	-2.742845e-06	-7.096658e-09	-1.958938e+01	-4.649111e+02
5.300000e-07	-2.685324e-06	-7.033578e-09	-1.917857e+01	-4.603025e+02
5.400000e-07	-2.626747e-06	-6.958047e-09	-1.876021e+01	-4.555237e+02
5.500000e-07	-2.567341e-06	-6.884810e-09	-1.833593e+01	-4.506051e+02
5.600000e-07	-2.507290e-06	-6.810289e-09	-1.790705e+01	-4.455881e+02
5.700000e-07	-2.446607e-06	-6.724036e-09	-1.747365e+01	-4.404998e+02
5.800000e-07	-2.385290e-06	-6.641901e-09	-1.703573e+01	-4.353365e+02
5.900000e-07	-2.323380e-06	-6.564780e-09	-1.659357e+01	-4.300643e+02
6.000000e-07	-2.260860e-06	-6.480827e-09	-1.614705e+01	-4.246363e+02
6.100000e-07	-2.197716e-06	-6.393729e-09	-1.569607e+01	-4.190176e+02
6.200000e-07	-2.133964e-06	-6.304528e-09	-1.524075e+01	-4.132011e+02
6.300000e-07	-2.069649e-06	-6.215696e-09	-1.478142e+01	-4.072093e+02
6.400000e-07	-2.004743e-06	-6.125305e-09	-1.431786e+01	-4.010786e+02
6.500000e-07	-1.939094e-06	-6.028369e-09	-1.384900e+01	-3.948383e+02
6.600000e-07	-1.872644e-06	-5.926091e-09	-1.337441e+01	-3.884941e+02
6.700000e-07	-1.805463e-06	-5.824139e-09	-1.289461e+01	-3.820256e+02
6.800000e-07	-1.737748e-06	-5.721138e-09	-1.241098e+01	-3.753983e+02
6.900000e-07	-1.669689e-06	-5.614199e-09	-1.192491e+01	-3.685821e+02
7.000000e-07	-1.601276e-06	-5.507088e-09	-1.143630e+01	-3.615652e+02
7.100000e-07	-1.532477e-06	-5.399477e-09	-1.094494e+01	-3.543565e+02
7.200000e-07	-1.463268e-06	-5.288979e-09	-1.045065e+01	-3.469751e+02
7.300000e-07	-1.393612e-06	-5.171495e-09	-9.953167e+00	-3.394345e+02
7.400000e-07	-1.323496e-06	-5.047752e-09	-9.452399e+00	-3.317304e+02
7.500000e-07	-1.252958e-06	-4.921262e-09	-8.948619e+00	-3.238405e+02
7.600000e-07	-1.182044e-06	-4.796384e-09	-8.442148e+00	-3.157362e+02
7.700000e-07	-1.110829e-06	-4.671236e-09	-7.933531e+00	-3.073998e+02
7.800000e-07	-1.039390e-06	-4.541324e-09	-7.423318e+00	-2.988359e+02
7.900000e-07	-9.677396e-07	-4.407767e-09	-6.911590e+00	-2.900709e+02
8.000000e-07	-8.959023e-07	-4.271800e-09	-6.398529e+00	-2.811377e+02
8.100000e-07	-8.239122e-07	-4.133823e-09	-5.884376e+00	-2.720550e+02
8.200000e-07	-7.517656e-07	-3.990656e-09	-5.369106e+00	-2.628113e+02
8.300000e-07	-6.794640e-07	-3.840952e-09	-4.852728e+00	-2.533649e+02
8.400000e-07	-6.070094e-07	-3.689917e-09	-4.335257e+00	-2.436601e+02
8.500000e-07	-5.344627e-07	-3.539263e-09	-3.817129e+00	-2.336532e+02
8.600000e-07	-4.618297e-07	-3.383108e-09	-3.298385e+00	-2.233346e+02
8.700000e-07	-3.890145e-07	-3.219386e-09	-2.778339e+00	-2.127332e+02
8.800000e-07	-3.160743e-07	-3.051199e-09	-2.257401e+00	-2.019005e+02
8.900000e-07	-2.430620e-07	-2.881826e-09	-1.735947e+00	-1.908806e+02
9.000000e-07	-1.699622e-07	-2.711228e-09	-1.213869e+00	-1.796822e+02
9.100000e-07	-9.682679e-08	-2.535206e-09	-6.915363e-01	-1.682674e+02
9.200000e-07	-2.369284e-08	-2.354012e-09	-1.692141e-01	-1.565666e+02
9.300000e-07	4.948162e-08	-2.169331e-09	3.533974e-01	-1.445120e+02
9.400000e-07	1.226002e-07	-1.980407e-09	8.756101e-01	-1.320730e+02
9.500000e-07	1.956923e-07	-1.785841e-09	1.397633e+00	-1.192745e+02
9.600000e-07	2.688196e-07	-1.585400e-09	1.919908e+00	-1.061866e+02
9.700000e-07	3.418780e-07	-1.382544e-09	2.441690e+00	-9.288918e+01
9.800000e-07	4.148478e-07	-1.179361e-09	2.962841e+00	-7.942878e+01
9.900000e-07	4.876868e-07	-9.731520e-10	3.483056e+00	-6.579187e+01
1.000000e-06	5.603613e-07	-7.590808e-10	4.002097e+00	-5.190871e+01
1.010000e-06	6.328695e-07	-5.374147e-10	4.519950e+00	-3.768830e+01
1.020000e-06	7.052383e-07	-3.115987e-10	5.036807e+00	-2.306727e+01
1.030000e-06	7.774923e-07	-8.281735e-11	5.552845e+00	-8.047621e+00
1.040000e-06	8.496187e-07	1.493880e-10	6.067972e+00	7.296366e+00
1.050000e-06	9.215876e-07	3.857101e-10	6.581973e+00	2.284596e+01
1.060000e-06	9.933588e-07	6.245996e-10	7.094562e+00	3.848634e+01
1.070000e-06	1.064923e-06	8.631369e-10	7.605674e+00	5.415056e+01
1.080000e-06	1.136239e-06	1.102397e-09	8.115014e+00	6.983683e+01
1.090000e-06	1.207247e-06	1.344662e-09	8.622149e+00	8.559133e+01
1.100000e-06	1.277874e-06	1.589265e-09	9.126570e+00	1.014669e+02
1.110000e-06	1.348124e-06	1.833830e-09	9.628297e+00	1.174801e+02
1.120000e-06	1.418002e-06	2.078341e-09	1.012736e+01	1.335885e+02
1.130000e-06	1.487404e-06	2.322486e-09	1.062303e+01	1.496979e+02
1.140000e-06	1.556325e-06	2.565803e-09	1.111526e+01	1.656942e+02
1.150000e-06	1.624826e-06	2.806325e-09	1.160450e+01	1.814790e+02
1.160000e-06	1.693003e-06	3.039471e-09	1.209142e+01	1.969932e+02
1.170000e-06	1.760903e-06	3.268017e-09	1.257636e+01	2.122165e+02
1.180000e-06	1.828327e-06	3.496018e-09	1.305790e+01	2.271483e+02
1.190000e-06	1.895006e-06	3.720658e-09	1.353412e+01	2.417839e+02
1.200000e-06	1.960791e-06	3.938890e-09	1.400396e+01	2.561006e+02
1.210000e-06	2.025706e-06	4.150007e-09	1.446758e+01	2.700588e+02
1.220000e-06	2.090011e-06	4.355953e-09	1.492685e+01	2.836155e+02
1.230000e-06	2.153902e-06	4.555421e-09	1.538315e+01	2.967383e+02
1.240000e-06	2.217297e-06	4.745171e-09	1.583592e+01	3.094115e+02
1.250000e-06	2.280102e-06	4.926866e-09	1.628448e+01	3.216323e+02
1.260000e-06	2.342295e-06	5.103239e-09	1.672866e+01	3.334021e+02
1.270000e-06	2.403934e-06	5.275842e-09	1.716888e+01	3.447231e+02
1.280000e-06	2.464964e-06	5.443426e-09	1.760476e+01	3.556022e+02
1.290000e-06	2.525399e-06	5.604500e-09	1.803639e+01	3.660602e+02
1.300000e-06	2.585372e-06	5.759201e-09	1.846471e+01	3.761363e+02
1.310000e-06	2.644680e-06	5.909406e-09	1.888829e+01	3.858803e+02
1.320000e-06	2.702940e-06	6.055135e-09	1.930438e+01	3.953331e+02
1.330000e-06	2.760054e-06	6.193472e-09	1.971229e+01	4.045055e+02
1.340000e-06	2.816322e-06	6.326824e-09	2.011415e+01	4.133674e+02
1.350000e-06	2.871966e-06	6.457502e-09	2.051156e+01	4.218596e+02
1.360000e-06	2.926966e-06	6.582486e-09	2.090438e+01	4.299224e+02
1.370000e-06	2.981208e-06	6.698166e-09	2.129177e+01	4.375288e+02
1.380000e-06	3.034659e-06	6.804625e-09	2.167351e+01	4.447035e+02
1.390000e-06	3.087272e-06	6.905219e-09	2.204928e+01	4.515151e+02
1.400000e-06	3.138894e-06	7.001709e-09	2.241796e+01	4.580459e+02
1.410000e-06	3.189305e-06	7.096442e-09	2.277799e+01	4.643547e+02
1.420000e-06	3.238428e-06	7.189405e-09	2.312884e+01	4.704543e+02
1.430000e-06	3.286537e-06	7.277447e-09	2.347243e+01	4.763160e+02
1.440000e-06	3.333793e-06	7.360449e-09	2.380993e+01	4.818987e+02
1.450000e-06	3.380161e-06	7.439346e-09	2.414109e+01	4.871856e+02
1.460000e-06	3.425622e-06	7.513818e-09	2.446577e+01	4.922040e+02
1.470000e-06	3.470186e-06	7.584914e-09	2.478405e+01	4.970190e+02
1.480000e-06	3.513994e-06	7.653672e-09	2.509692e+01	5.017016e+02
1.490000e-06	3.556865e-06	7.721836e-09	2.540310e+01	5.062912e+02
1.500000e-06	3.598335e-06	7.790316e-09	2.569928e+01	5.107757e+02
1.510000e-06	3.638534e-06	7.855892e-09	2.598639e+01	5.151005e+02
1.520000e-06	3.677815e-06	7.917203e-09	2.626693e+01	5.192019e+02
1.530000e-06	3.716151e-06	7.974865e-09	2.654073e+01	5.230446e+02
1.540000e-06	3.753429e-06	8.029094e-09	2.680697e+01	5.266427e+02
1.550000e-06	3.789751e-06	8.079303e-09	2.706638e+01	5.300497e+02
1.560000e-06	3.825114e-06	8.126551e-09	2.731894e+01	5.333267e+02
1.570000e-06	3.859185e-06	8.172438e-09	2.756228e+01	5.365063e+02
1.580000e-06	3.891926e-06	8.217278e-09	2.779611e+01	5.395762e+02
1.590000e-06	3.923607e-06	8.259984e-09	2.802238e+01	5.424913e+02
1.600000e-06	3.954250e-06	8.299106e-09	2.824123e+01	5.452063e+02
1.610000e-06	3.983866e-06	8.335755e-09	2.845275e+01	5.477085e+02
1.620000e-06	4.012549e-06	8.369857e-09	2.865760e+01	5.500303e+02
1.630000e-06	4.040262e-06	8.401177e-09	2.885553e+01	5.522325e+02
1.640000e-06	4.066698e-06	8.431117e-09	2.904433e+01	5.543697e+02
1.650000e-06	4.091661e-06	8.459388e-09	2.922262e+01	5.564580e+02
1.660000e-06	4.115413e-06	8.487431e-09	2.939226e+01	5.584667e+02
1.670000e-06	4.138108e-06	8.514756e-09	2.955434e+01	5.603379e+02
1.680000e-06	4.159699e-06	8.538725e-09	2.970855e+01	5.620238e+02
1.690000e-06	4.180313e-06	8.559358e-09	2.985577e+01	5.635182e+02
1.700000e-06	4.199983e-06	8.577971e-09	2.999625e+01	5.648633e+02
1.710000e-06	4.218519e-06	8.597034e-09	3.012864e+01	5.661276e+02
1.720000e-06	4.235829e-06	8.615021e-09	3.025227e+01	5.673673e+02
1.730000e-06	4.251899e-06	8.630873e-09	3.036704e+01	5.685949e+02
1.740000e-06	4.266700e-06	8.646829e-09	3.047274e+01	5.697728e+02
1.750000e-06	4.280237e-06	8.662168e-09	3.056942e+01	5.708361e+02
1.760000e-06	4.292540e-06	8.674035e-09	3.065730e+01	5.717304e+02
1.770000e-06	4.303444e-06	8.681747e-09	3.073517e+01	5.724433e+02
1.780000e-06	4.312792e-06	8.687409e-09	3.080193e+01	5.730108e+02
1.790000e-06	4.320823e-06	8.693115e-09	3.085929e+01	5.734965e+02
1.800000e-06	4.327710e-06	8.701311e-09	3.090848e+01	5.739574e+02
1.810000e-06	4.333420e-06	8.711361e-09	3.094926e+01	5.744151e+02
1.820000e-06	4.338066e-06	8.720225e-09	3.098244e+01	5.748489e+02
1.830000e-06	4.341581e-06	8.727105e-09	3.100755e+01	5.752126e+02
1.840000e-06	4.343681e-06	8.730110e-09	3.102254e+01	5.754623e+02
1.850000e-06	4.344361e-06	8.728962e-09	3.102740e+01	5.755789e+02
1.860000e-06	4.343885e-06	8.724905e-09	3.102400e+01	5.755724e+02
1.870000e-06	4.342300e-06	8.720976e-09	3.101268e+01	5.754697e+02
1.880000e-06	4.339619e-06	8.719802e-09	3.099353e+01	5.752945e+02
1.890000e-06	4.335969e-06	8.719996e-09	3.096746e+01	5.750543e+02
1.900000e-06	4.331222e-06	8.719906e-09	3.093356e+01	5.747420e+02
1.910000e-06	4.325090e-06	8.717929e-09	3.088976e+01	5.743473e+02
1.920000e-06	4.317663e-06	8.714645e-09	3.083672e+01	5.738686e+02
1.930000e-06	4.309227e-06	8.709231e-09	3.077647e+01	5.733156e+02
1.940000e-06	4.299671e-06	8.689801e-09	3.070822e+01	5.727018e+02
1.950000e-06	4.288494e-06	8.658102e-09	3.062840e+01	5.720315e+02
1.960000e-06	4.275184e-06	8.654017e-09	3.053333e+01	5.712960e+02
1.970000e-06	4.260064e-06	8.674099e-09	3.042535e+01	5.704814e+02
1.980000e-06	4.244233e-06	8.680158e-09	3.031228e+01	5.695863e+02
1.990000e-06	4.228047e-06	8.625486e-09	3.019669e+01	5.686352e+02
2.000000e-06	4.210725e-06	8.601589e-09	3.007297e+01	5.676757e+02
2.010000e-06	4.191984e-06	8.655469e-09	2.993913e+01	5.667555e+02
2.020000e-06	4.172499e-06	8.620730e-09	2.979997e+01	5.658896e+02
2.030000e-06	4.152059e-06	8.566947e-09	2.965398e+01	5.650368e+02
2.040000e-06	4.129851e-06	8.603400e-09	2.949537e+01	5.641027e+02
2.050000e-06	4.106318e-06	8.607093e-09	2.932730e+01	5.629722e+02
2.060000e-06	4.081960e-06	8.553851e-09	2.915334e+01	5.615595e+02
2.070000e-06	4.056512e-06	8.534923e-09	2.897158e+01	5.598482e+02
2.080000e-06	4.030012e-06	8.516442e-09	2.878232e+01	5.579015e+02
2.090000e-06	4.002500e-06	8.478587e-09	2.858583e+01	5.558332e+02
2.100000e-06	3.973770e-06	8.423769e-09	2.838064e+01	5.537557e+02
2.110000e-06	3.943821e-06	8.358832e-09	2.816674e+01	5.517285e+02
2.120000e-06	3.912563e-06	8.375131e-09	2.794350e+01	5.497371e+02
2.130000e-06	3.880023e-06	8.369281e-09	2.771110e+01	5.477098e+02
2.140000e-06	3.846547e-06	8.269785e-09	2.747201e+01	5.455633e+02
2.150000e-06	3.812121e-06	8.281435e-09	2.722614e+01	5.432507e+02
2.160000e-06	3.776703e-06	8.290837e-09	2.697319e+01	5.407852e+02
2.170000e-06	3.740280e-06	8.151523e-09	2.671305e+01	5.382282e+02
2.180000e-06	3.702426e-06	8.125263e-09	2.644270e+01	5.356499e+02
2.190000e-06	3.663203e-06	8.141305e-09	2.616257e+01	5.330863e+02
2.200000e-06	3.623055e-06	8.060361e-09	2.587584e+01	5.305172e+02
2.210000e-06	3.581953e-06	8.047150e-09	2.558229e+01	5.278772e+02
2.220000e-06	3.539859e-06	8.020243e-09	2.528165e+01	5.250923e+02
2.230000e-06	3.496888e-06	7.935232e-09	2.497475e+01	5.221205e+02
2.240000e-06	3.453046e-06	7.917723e-09	2.466163e+01	5.189718e+02
2.250000e-06	3.408201e-06	7.864607e-09	2.434135e+01	5.156999e+02
2.260000e-06	3.362315e-06	7.775192e-09	2.401363e+01	5.123685e+02
2.270000e-06	3.315495e-06	7.744104e-09	2.367925e+01	5.090155e+02
2.280000e-06	3.267683e-06	7.710555e-09	2.333777e+01	5.056328e+02
2.290000e-06	3.218835e-06	7.657431e-09	2.298890e+01	5.021742e+02
2.300000e-06	3.169058e-06	7.590433e-09	2.263339e+01	4.985844e+02
2.310000e-06	3.118439e-06	7.525675e-09	2.227187e+01	4.948303e+02
2.320000e-06	3.066990e-06	7.476345e-09	2.190442e+01	4.909178e+02
2.330000e-06	3.014573e-06	7.416095e-09	2.153006e+01	4.868843e+02
2.340000e-06	2.961037e-06	7.346275e-09	2.114771e+01	4.827731e+02
2.350000e-06	2.906375e-06	7.286193e-09	2.075731e+01	4.786059e+02
2.360000e-06	2.850802e-06	7.236991e-09	2.036041e+01	4.743689e+02
2.370000e-06	2.794602e-06	7.161131e-09	1.995903e+01	4.700219e+02
2.380000e-06	2.737772e-06	7.077398e-09	1.955315e+01	4.655216e+02
2.390000e-06	2.680153e-06	7.023307e-09	1.914164e+01	4.608473e+02
2.400000e-06	2.621803e-06	6.950913e-09	1.872490e+01	4.560113e+02
2.410000e-06	2.562798e-06	6.870708e-09	1.830349e+01	4.510511e+02
2.420000e-06	2.503189e-06	6.806391e-09	1.787776e+01	4.460056e+02
2.430000e-06	2.443047e-06	6.728604e-09	1.744823e+01	4.408915e+02
2.440000e-06	2.382139e-06	6.646103e-09	1.701322e+01	4.356925e+02
2.450000e-06	2.320251e-06	6.559985e-09	1.657122e+01	4.303671e+02
2.460000e-06	2.257436e-06	6.476499e-09	1.612259e+01	4.248704e+02
2.470000e-06	2.193881e-06	6.396512e-09	1.566869e+01	4.191766e+02
2.480000e-06	2.129793e-06	6.304160e-09	1.521097e+01	4.132905e+02
2.490000e-06	2.065189e-06	6.213002e-09	1.474957e+01	4.072421e+02
2.500000e-06	2.000015e-06	6.122177e-09	1.428410e+01	4.010679e+02
2.510000e-06	1.934252e-06	6.029440e-09	1.381442e+01	3.947895e+02
2.520000e-06	1.867858e-06	5.932279e-09	1.334023e+01	3.884021e+02
2.530000e-06	1.800937e-06	5.833578e-09	1.286228e+01	3.818782e+02
2.540000e-06	1.733595e-06	5.736769e-09	1.238132e+01	3.751828e+02
2.550000e-06	1.665908e-06	5.629772e-09	1.189790e+01	3.682915e+02
2.560000e-06	1.597930e-06	5.520041e-09	1.141241e+01	3.612007e+02
2.570000e-06	1.529491e-06	5.409399e-09	1.092362e+01	3.539249e+02
2.580000e-06	1.460355e-06	5.298127e-09	1.042985e+01	3.464830e+02
2.590000e-06	1.390516e-06	5.187621e-09	9.931059e+00	3.388827e+02
2.600000e-06	1.320071e-06	5.072153e-09	9.427938e+00	3.311121e+02
2.610000e-06	1.249049e-06	4.953634e-09	8.920703e+00	3.231449e+02
2.620000e-06	1.177631e-06	4.830900e-09	8.410634e+00	3.149545e+02
2.630000e-06	1.106023e-06	4.703016e-09	7.899212e+00	3.065309e+02
2.640000e-06	1.034293e-06	4.568875e-09	7.386914e+00	2.978877e+02
2.650000e-06	9.623974e-07	4.430839e-09	6.873436e+00	2.890560e+02
2.660000e-06	8.902980e-07	4.295441e-09	6.358503e+00	2.800659e+02
2.670000e-06	8.179967e-07	4.160877e-09	5.842128e+00	2.709259e+02
2.680000e-06	7.455552e-07	4.022769e-09	5.324750e+00	2.616123e+02
2.690000e-06	6.729354e-07	3.878211e-09	4.806101e+00	2.520754e+02
2.700000e-06	6.001117e-07	3.729079e-09	4.285994e+00	2.422609e+02
2.710000e-06	5.271776e-07	3.575380e-09	3.765099e+00	2.321361e+02
2.720000e-06	4.541102e-07	3.416228e-09	3.243252e+00	2.217062e+02
2.730000e-06	3.808890e-07	3.252410e-09	2.720307e+00	2.110117e+02
2.740000e-06	3.076340e-07	3.086383e-09	2.197120e+00	2.001049e+02
2.750000e-06	2.343594e-07	2.920918e-09	1.673794e+00	1.890196e+02
2.760000e-06	1.609900e-07	2.752698e-09	1.149790e+00	1.777467e+02
2.770000e-06	8.759335e-08	2.577222e-09	6.255912e-01	1.662335e+02
2.780000e-06	1.422029e-08	2.395948e-09	1.015612e-01	1.544067e+02
2.790000e-06	-5.916579e-08	2.209783e-09	-4.225617e-01	1.422086e+02
2.800000e-06	-1.325615e-07	2.017887e-09	-9.467536e-01	1.296288e+02
2.810000e-06	-2.059298e-07	1.819416e-09	-1.470749e+00	1.167121e+02
2.820000e-06	-2.793099e-07	1.617444e-09	-1.994829e+00	1.035371e+02
2.830000e-06	-3.526401e-07	1.415016e-09	-2.518553e+00	9.017598e+01
2.840000e-06	-4.258485e-07	1.209084e-09	-3.041408e+00	7.665441e+01
2.850000e-06	-4.988926e-07	9.991141e-10	-3.563088e+00	6.293543e+01
2.860000e-06	-5.717725e-07	7.855935e-10	-4.083595e+00	4.893601e+01
2.870000e-06	-6.445017e-07	5.685462e-10	-4.603027e+00	3.456981e+01
2.880000e-06	-7.170182e-07	3.438376e-10	-5.120940e+00	1.979490e+01
2.890000e-06	-7.893729e-07	1.113376e-10	-5.637696e+00	4.641563e+00
2.900000e-06	-8.615834e-07	-1.246927e-10	-6.153423e+00	-1.079440e+01
2.910000e-06	-9.336034e-07	-3.625136e-10	-6.667790e+00	-2.638973e+01
2.920000e-06	-1.005437e-06	-6.005043e-10	-7.180823e+00	-4.204346e+01
2.930000e-06	-1.077108e-06	-8.393495e-10	-7.692699e+00	-5.771292e+01
2.940000e-06	-1.148618e-06	-1.078697e-09	-8.203419e+00	-7.341801e+01
2.950000e-06	-1.219889e-06	-1.318992e-09	-8.712441e+00	-8.921291e+01
