# Temperatura_=_20.0
# Concentracion g/m^3_=_10000.0
# C_Vs_to_Am_M_A/Vsm_=_65563218390.804596
# pendiente_HvsI_1/m_=_3716.3
# ordenada_HvsI_A/m_=_1297.0
# frecuencia_Hz_=_269365.5707091944

Tiempo_(s)	Campo_(V.s)	Magnetizacion_(V.s)	Campo_(kA/m)	Magnetizacion_(A/m)
0.000000e+00	-4.317142e-06	-8.713059e-09	-3.089387e+01	-5.676757e+02
1.000000e-08	-4.316339e-06	-8.712404e-09	-3.088812e+01	-5.674552e+02
2.000000e-08	-4.314293e-06	-8.707079e-09	-3.087348e+01	-5.671897e+02
3.000000e-08	-4.310922e-06	-8.700817e-09	-3.084936e+01	-5.669527e+02
4.000000e-08	-4.306444e-06	-8.697658e-09	-3.081731e+01	-5.667675e+02
5.000000e-08	-4.300881e-06	-8.695137e-09	-3.077750e+01	-5.666003e+02
6.000000e-08	-4.294151e-06	-8.689455e-09	-3.072934e+01	-5.663767e+02
7.000000e-08	-4.286392e-06	-8.675512e-09	-3.067382e+01	-5.660161e+02
8.000000e-08	-4.277529e-06	-8.660376e-09	-3.061040e+01	-5.654656e+02
9.000000e-08	-4.267061e-06	-8.679312e-09	-3.053548e+01	-5.647219e+02
1.000000e-07	-4.254697e-06	-8.688345e-09	-3.044701e+01	-5.638317e+02
1.100000e-07	-4.240723e-06	-8.662920e-09	-3.034701e+01	-5.628732e+02
1.200000e-07	-4.225462e-06	-8.570743e-09	-3.023780e+01	-5.619257e+02
1.300000e-07	-4.209035e-06	-8.545959e-09	-3.012024e+01	-5.610398e+02
1.400000e-07	-4.191461e-06	-8.644433e-09	-2.999448e+01	-5.602198e+02
1.500000e-07	-4.172791e-06	-8.598343e-09	-2.986088e+01	-5.594245e+02
1.600000e-07	-4.153279e-06	-8.486340e-09	-2.972125e+01	-5.585838e+02
1.700000e-07	-4.132933e-06	-8.557263e-09	-2.957565e+01	-5.576261e+02
1.800000e-07	-4.111450e-06	-8.562177e-09	-2.942192e+01	-5.565028e+02
1.900000e-07	-4.088986e-06	-8.440196e-09	-2.926116e+01	-5.552025e+02
2.000000e-07	-4.065701e-06	-8.481376e-09	-2.909454e+01	-5.537479e+02
2.100000e-07	-4.041269e-06	-8.452904e-09	-2.891969e+01	-5.521800e+02
2.200000e-07	-4.015469e-06	-8.329767e-09	-2.873507e+01	-5.505367e+02
2.300000e-07	-3.988328e-06	-8.400057e-09	-2.854084e+01	-5.488362e+02
2.400000e-07	-3.960029e-06	-8.411882e-09	-2.833833e+01	-5.470732e+02
2.500000e-07	-3.930757e-06	-8.300811e-09	-2.812886e+01	-5.452263e+02
2.600000e-07	-3.900416e-06	-8.312267e-09	-2.791174e+01	-5.432738e+02
2.700000e-07	-3.868913e-06	-8.269812e-09	-2.768630e+01	-5.412063e+02
2.800000e-07	-3.836478e-06	-8.209446e-09	-2.745419e+01	-5.390316e+02
2.900000e-07	-3.803020e-06	-8.225061e-09	-2.721476e+01	-5.367683e+02
3.000000e-07	-3.768208e-06	-8.137738e-09	-2.696564e+01	-5.344346e+02
3.100000e-07	-3.732120e-06	-8.089508e-09	-2.670740e+01	-5.320382e+02
3.200000e-07	-3.694942e-06	-8.130819e-09	-2.644134e+01	-5.295743e+02
3.300000e-07	-3.656741e-06	-8.060671e-09	-2.616798e+01	-5.270306e+02
3.400000e-07	-3.617510e-06	-7.977804e-09	-2.588724e+01	-5.243970e+02
3.500000e-07	-3.577350e-06	-7.964105e-09	-2.559985e+01	-5.216713e+02
3.600000e-07	-3.536229e-06	-7.898768e-09	-2.530558e+01	-5.188589e+02
3.700000e-07	-3.493775e-06	-7.864726e-09	-2.500178e+01	-5.159651e+02
3.800000e-07	-3.450031e-06	-7.850200e-09	-2.468874e+01	-5.129875e+02
3.900000e-07	-3.405342e-06	-7.762202e-09	-2.436894e+01	-5.099126e+02
4.000000e-07	-3.359777e-06	-7.706170e-09	-2.404288e+01	-5.067221e+02
4.100000e-07	-3.313285e-06	-7.698104e-09	-2.371017e+01	-5.034039e+02
4.200000e-07	-3.265861e-06	-7.631110e-09	-2.337080e+01	-4.999618e+02
4.300000e-07	-3.217530e-06	-7.538098e-09	-2.302494e+01	-4.964177e+02
4.400000e-07	-3.168098e-06	-7.502104e-09	-2.267120e+01	-4.928023e+02
4.500000e-07	-3.117352e-06	-7.467948e-09	-2.230806e+01	-4.891404e+02
4.600000e-07	-3.065469e-06	-7.414372e-09	-2.193678e+01	-4.854358e+02
4.700000e-07	-3.012675e-06	-7.343192e-09	-2.155898e+01	-4.816672e+02
4.800000e-07	-2.959017e-06	-7.265576e-09	-2.117500e+01	-4.777956e+02
4.900000e-07	-2.904543e-06	-7.214201e-09	-2.078518e+01	-4.737807e+02
5.000000e-07	-2.849236e-06	-7.160122e-09	-2.038940e+01	-4.695975e+02
5.100000e-07	-2.793288e-06	-7.081902e-09	-1.998903e+01	-4.652455e+02
5.200000e-07	-2.736837e-06	-7.010329e-09	-1.958506e+01	-4.607470e+02
5.300000e-07	-2.679471e-06	-6.949844e-09	-1.917454e+01	-4.561348e+02
5.400000e-07	-2.620958e-06	-6.879636e-09	-1.875582e+01	-4.514389e+02
5.500000e-07	-2.561571e-06	-6.807947e-09	-1.833084e+01	-4.466754e+02
5.600000e-07	-2.501628e-06	-6.722406e-09	-1.790188e+01	-4.418430e+02
5.700000e-07	-2.441155e-06	-6.635488e-09	-1.746913e+01	-4.369256e+02
5.800000e-07	-2.380001e-06	-6.567581e-09	-1.703151e+01	-4.318970e+02
5.900000e-07	-2.318212e-06	-6.501076e-09	-1.658934e+01	-4.267273e+02
6.000000e-07	-2.255867e-06	-6.413587e-09	-1.614320e+01	-4.213881e+02
6.100000e-07	-2.192835e-06	-6.319149e-09	-1.569213e+01	-4.158585e+02
6.200000e-07	-2.129179e-06	-6.237563e-09	-1.523660e+01	-4.101325e+02
6.300000e-07	-2.065066e-06	-6.154664e-09	-1.477780e+01	-4.042241e+02
6.400000e-07	-2.000404e-06	-6.061958e-09	-1.431508e+01	-3.981669e+02
6.500000e-07	-1.935017e-06	-5.958967e-09	-1.384716e+01	-3.920044e+02
6.600000e-07	-1.868693e-06	-5.862169e-09	-1.337254e+01	-3.857722e+02
6.700000e-07	-1.801544e-06	-5.772028e-09	-1.289202e+01	-3.794794e+02
6.800000e-07	-1.733898e-06	-5.672642e-09	-1.240793e+01	-3.730982e+02
6.900000e-07	-1.665934e-06	-5.563455e-09	-1.192158e+01	-3.665695e+02
7.000000e-07	-1.597688e-06	-5.457191e-09	-1.143320e+01	-3.598251e+02
7.100000e-07	-1.529042e-06	-5.359091e-09	-1.094197e+01	-3.528159e+02
7.200000e-07	-1.459917e-06	-5.255422e-09	-1.044730e+01	-3.455343e+02
7.300000e-07	-1.390366e-06	-5.137143e-09	-9.949589e+00	-3.380169e+02
7.400000e-07	-1.320452e-06	-5.010253e-09	-9.449276e+00	-3.303261e+02
7.500000e-07	-1.250139e-06	-4.890035e-09	-8.946111e+00	-3.225182e+02
7.600000e-07	-1.179430e-06	-4.772965e-09	-8.440112e+00	-3.146147e+02
7.700000e-07	-1.108361e-06	-4.650175e-09	-7.931535e+00	-3.065916e+02
7.800000e-07	-1.036962e-06	-4.521161e-09	-7.420595e+00	-2.983914e+02
7.900000e-07	-9.653009e-07	-4.394227e-09	-6.907782e+00	-2.899517e+02
8.000000e-07	-8.934496e-07	-4.269827e-09	-6.393608e+00	-2.812342e+02
8.100000e-07	-8.214762e-07	-4.135048e-09	-5.878560e+00	-2.722399e+02
8.200000e-07	-7.494326e-07	-3.987153e-09	-5.363009e+00	-2.630027e+02
8.300000e-07	-6.772858e-07	-3.834499e-09	-4.846720e+00	-2.535669e+02
8.400000e-07	-6.050367e-07	-3.688218e-09	-4.329699e+00	-2.439629e+02
8.500000e-07	-5.326629e-07	-3.542507e-09	-3.811785e+00	-2.341932e+02
8.600000e-07	-4.601745e-07	-3.390319e-09	-3.293052e+00	-2.242348e+02
8.700000e-07	-3.876363e-07	-3.232757e-09	-2.773961e+00	-2.140542e+02
8.800000e-07	-3.149895e-07	-3.075328e-09	-2.254094e+00	-2.036234e+02
8.900000e-07	-2.422323e-07	-2.915562e-09	-1.733436e+00	-1.929273e+02
9.000000e-07	-1.694190e-07	-2.745260e-09	-1.212378e+00	-1.819601e+02
9.100000e-07	-9.655365e-08	-2.567220e-09	-6.909469e-01	-1.707164e+02
9.200000e-07	-2.364117e-08	-2.388435e-09	-1.691784e-01	-1.591857e+02
9.300000e-07	4.929076e-08	-2.210687e-09	3.527292e-01	-1.473563e+02
9.400000e-07	1.222189e-07	-2.027586e-09	8.746095e-01	-1.352265e+02
9.500000e-07	1.951367e-07	-1.837660e-09	1.396416e+00	-1.228133e+02
9.600000e-07	2.679914e-07	-1.643486e-09	1.917772e+00	-1.101499e+02
9.700000e-07	3.407472e-07	-1.448678e-09	2.438418e+00	-9.726979e+01
9.800000e-07	4.133766e-07	-1.252010e-09	2.958162e+00	-8.418433e+01
9.900000e-07	4.858944e-07	-1.048080e-09	3.477105e+00	-7.086895e+01
1.000000e-06	5.583205e-07	-8.347552e-10	3.995393e+00	-5.726881e+01
1.010000e-06	6.305817e-07	-6.178281e-10	4.512501e+00	-4.332524e+01
1.020000e-06	7.027519e-07	-4.004289e-10	5.028958e+00	-2.901065e+01
1.030000e-06	7.748736e-07	-1.776695e-10	5.545067e+00	-1.435258e+01
1.040000e-06	8.468572e-07	5.066624e-11	6.060188e+00	5.686442e-01
1.050000e-06	9.187130e-07	2.806790e-10	6.574395e+00	1.565054e+01
1.060000e-06	9.904536e-07	5.090585e-10	7.087778e+00	3.081279e+01
1.070000e-06	1.061959e-06	7.377769e-10	7.599479e+00	4.603157e+01
1.080000e-06	1.133114e-06	9.720822e-10	8.108666e+00	6.134402e+01
1.090000e-06	1.203898e-06	1.211812e-09	8.615203e+00	7.681824e+01
1.100000e-06	1.274335e-06	1.451376e-09	9.119256e+00	9.250347e+01
1.110000e-06	1.344423e-06	1.690233e-09	9.620816e+00	1.083865e+02
1.120000e-06	1.414129e-06	1.932023e-09	1.011964e+01	1.243779e+02
1.130000e-06	1.483397e-06	2.175452e-09	1.061533e+01	1.403368e+02
1.140000e-06	1.552165e-06	2.415964e-09	1.110744e+01	1.561208e+02
1.150000e-06	1.620499e-06	2.650666e-09	1.159644e+01	1.716367e+02
1.160000e-06	1.688527e-06	2.880313e-09	1.208325e+01	1.868643e+02
1.170000e-06	1.756240e-06	3.108031e-09	1.256782e+01	2.018434e+02
1.180000e-06	1.823491e-06	3.334955e-09	1.304907e+01	2.166303e+02
1.190000e-06	1.890088e-06	3.556075e-09	1.352564e+01	2.312496e+02
1.200000e-06	1.955863e-06	3.771744e-09	1.399634e+01	2.456647e+02
1.210000e-06	2.020807e-06	3.983820e-09	1.446108e+01	2.597829e+02
1.220000e-06	2.085132e-06	4.191215e-09	1.492140e+01	2.734902e+02
1.230000e-06	2.149014e-06	4.390625e-09	1.537854e+01	2.866971e+02
1.240000e-06	2.212376e-06	4.579442e-09	1.583197e+01	2.993715e+02
1.250000e-06	2.275100e-06	4.760381e-09	1.628083e+01	3.115439e+02
1.260000e-06	2.337190e-06	4.938777e-09	1.672515e+01	3.232848e+02
1.270000e-06	2.398714e-06	5.113811e-09	1.716542e+01	3.346676e+02
1.280000e-06	2.459639e-06	5.282477e-09	1.760140e+01	3.457365e+02
1.290000e-06	2.519981e-06	5.445126e-09	1.803322e+01	3.564934e+02
1.300000e-06	2.579834e-06	5.603529e-09	1.846153e+01	3.669066e+02
1.310000e-06	2.639120e-06	5.758308e-09	1.888579e+01	3.769343e+02
1.320000e-06	2.697375e-06	5.904613e-09	1.930267e+01	3.865477e+02
1.330000e-06	2.754379e-06	6.041373e-09	1.971059e+01	3.957442e+02
1.340000e-06	2.810533e-06	6.173707e-09	2.011244e+01	4.045458e+02
1.350000e-06	2.866116e-06	6.304297e-09	2.051019e+01	4.129865e+02
1.360000e-06	2.921035e-06	6.429441e-09	2.090320e+01	4.210965e+02
1.370000e-06	2.975173e-06	6.546955e-09	2.129061e+01	4.288913e+02
1.380000e-06	3.028522e-06	6.657465e-09	2.167238e+01	4.363690e+02
1.390000e-06	3.081019e-06	6.763793e-09	2.204806e+01	4.435167e+02
1.400000e-06	3.132498e-06	6.865965e-09	2.241645e+01	4.503212e+02
1.410000e-06	3.182714e-06	6.963659e-09	2.277579e+01	4.567798e+02
1.420000e-06	3.231674e-06	7.055569e-09	2.312616e+01	4.629079e+02
1.430000e-06	3.279691e-06	7.141714e-09	2.346977e+01	4.687400e+02
1.440000e-06	3.326848e-06	7.225635e-09	2.380723e+01	4.743233e+02
1.450000e-06	3.373103e-06	7.306802e-09	2.413824e+01	4.797062e+02
1.460000e-06	3.418455e-06	7.384836e-09	2.446278e+01	4.849249e+02
1.470000e-06	3.462961e-06	7.460428e-09	2.478127e+01	4.899929e+02
1.480000e-06	3.506754e-06	7.533464e-09	2.509466e+01	4.949003e+02
1.490000e-06	3.549477e-06	7.605014e-09	2.540039e+01	4.996215e+02
1.500000e-06	3.590766e-06	7.674174e-09	2.569585e+01	5.041314e+02
1.510000e-06	3.630921e-06	7.738716e-09	2.598320e+01	5.084204e+02
1.520000e-06	3.670140e-06	7.799922e-09	2.626386e+01	5.125016e+02
1.530000e-06	3.708334e-06	7.858772e-09	2.653718e+01	5.164043e+02
1.540000e-06	3.745522e-06	7.914199e-09	2.680330e+01	5.201585e+02
1.550000e-06	3.781821e-06	7.966494e-09	2.706306e+01	5.237770e+02
1.560000e-06	3.817206e-06	8.018189e-09	2.731628e+01	5.272474e+02
1.570000e-06	3.851259e-06	8.068198e-09	2.755997e+01	5.305389e+02
1.580000e-06	3.883925e-06	8.114319e-09	2.779373e+01	5.336219e+02
1.590000e-06	3.915539e-06	8.157263e-09	2.801996e+01	5.364904e+02
1.600000e-06	3.946137e-06	8.197274e-09	2.823892e+01	5.391712e+02
1.610000e-06	3.975706e-06	8.235715e-09	2.845052e+01	5.417158e+02
1.620000e-06	4.004297e-06	8.272444e-09	2.865512e+01	5.441743e+02
1.630000e-06	4.031929e-06	8.305867e-09	2.885286e+01	5.465680e+02
1.640000e-06	4.058338e-06	8.336039e-09	2.904184e+01	5.488739e+02
1.650000e-06	4.083327e-06	8.364237e-09	2.922067e+01	5.510345e+02
1.660000e-06	4.107086e-06	8.392001e-09	2.939069e+01	5.529885e+02
1.670000e-06	4.129738e-06	8.418661e-09	2.955279e+01	5.547074e+02
1.680000e-06	4.151310e-06	8.442679e-09	2.970716e+01	5.562183e+02
1.690000e-06	4.171919e-06	8.463763e-09	2.985464e+01	5.575982e+02
1.700000e-06	4.191568e-06	8.482181e-09	2.999525e+01	5.589406e+02
1.710000e-06	4.210044e-06	8.501246e-09	3.012746e+01	5.603106e+02
1.720000e-06	4.227325e-06	8.521353e-09	3.025113e+01	5.617112e+02
1.730000e-06	4.243399e-06	8.538297e-09	3.036616e+01	5.630800e+02
1.740000e-06	4.258098e-06	8.552070e-09	3.047135e+01	5.643185e+02
1.750000e-06	4.271567e-06	8.565845e-09	3.056773e+01	5.653409e+02
1.760000e-06	4.283858e-06	8.579240e-09	3.065569e+01	5.661181e+02
1.770000e-06	4.294731e-06	8.589817e-09	3.073349e+01	5.666932e+02
1.780000e-06	4.304085e-06	8.597610e-09	3.080043e+01	5.671632e+02
1.790000e-06	4.312148e-06	8.604644e-09	3.085813e+01	5.676326e+02
1.800000e-06	4.319098e-06	8.613985e-09	3.090786e+01	5.681653e+02
1.810000e-06	4.324877e-06	8.624619e-09	3.094922e+01	5.687554e+02
1.820000e-06	4.329511e-06	8.632394e-09	3.098238e+01	5.693320e+02
1.830000e-06	4.333041e-06	8.636109e-09	3.100764e+01	5.697947e+02
1.840000e-06	4.335154e-06	8.638057e-09	3.102276e+01	5.700608e+02
1.850000e-06	4.335802e-06	8.638792e-09	3.102740e+01	5.701024e+02
1.860000e-06	4.335290e-06	8.636603e-09	3.102373e+01	5.699571e+02
1.870000e-06	4.333677e-06	8.630699e-09	3.101220e+01	5.697084e+02
1.880000e-06	4.330955e-06	8.626408e-09	3.099271e+01	5.694465e+02
1.890000e-06	4.327247e-06	8.626424e-09	3.096618e+01	5.692287e+02
1.900000e-06	4.322543e-06	8.627301e-09	3.093252e+01	5.690564e+02
1.910000e-06	4.316453e-06	8.625426e-09	3.088894e+01	5.688772e+02
1.920000e-06	4.309024e-06	8.623157e-09	3.083578e+01	5.686103e+02
1.930000e-06	4.300615e-06	8.629428e-09	3.077560e+01	5.681817e+02
1.940000e-06	4.291135e-06	8.594183e-09	3.070776e+01	5.675556e+02
1.950000e-06	4.280015e-06	8.550628e-09	3.062819e+01	5.667485e+02
1.960000e-06	4.266623e-06	8.538887e-09	3.053235e+01	5.658222e+02
1.970000e-06	4.251394e-06	8.607954e-09	3.042337e+01	5.648589e+02
1.980000e-06	4.235528e-06	8.609716e-09	3.030983e+01	5.639301e+02
1.990000e-06	4.219388e-06	8.483924e-09	3.019433e+01	5.630704e+02
2.000000e-06	4.202117e-06	8.505146e-09	3.007074e+01	5.622660e+02
2.010000e-06	4.183348e-06	8.597254e-09	2.993642e+01	5.614619e+02
2.020000e-06	4.163857e-06	8.498388e-09	2.979695e+01	5.605843e+02
2.030000e-06	4.143448e-06	8.446782e-09	2.965089e+01	5.595677e+02
2.040000e-06	4.121250e-06	8.546273e-09	2.949205e+01	5.583767e+02
2.050000e-06	4.097762e-06	8.464877e-09	2.932397e+01	5.570138e+02
2.060000e-06	4.073509e-06	8.411131e-09	2.915041e+01	5.555110e+02
2.070000e-06	4.048124e-06	8.513656e-09	2.896875e+01	5.539105e+02
2.080000e-06	4.021744e-06	8.409294e-09	2.877997e+01	5.522443e+02
2.090000e-06	3.994400e-06	8.327755e-09	2.858430e+01	5.505215e+02
2.100000e-06	3.965730e-06	8.396009e-09	2.837913e+01	5.487293e+02
2.110000e-06	3.935905e-06	8.301417e-09	2.816570e+01	5.468442e+02
2.120000e-06	3.904888e-06	8.292392e-09	2.794374e+01	5.448481e+02
2.130000e-06	3.872484e-06	8.300981e-09	2.771185e+01	5.427381e+02
2.140000e-06	3.839062e-06	8.181639e-09	2.747268e+01	5.405271e+02
2.150000e-06	3.804675e-06	8.231593e-09	2.722661e+01	5.382351e+02
2.160000e-06	3.769278e-06	8.218654e-09	2.697331e+01	5.358770e+02
2.170000e-06	3.732917e-06	8.056983e-09	2.671310e+01	5.334558e+02
2.180000e-06	3.695144e-06	8.084713e-09	2.644279e+01	5.309629e+02
2.190000e-06	3.655998e-06	8.076534e-09	2.616266e+01	5.283857e+02
2.200000e-06	3.615973e-06	7.995689e-09	2.587624e+01	5.257166e+02
2.210000e-06	3.574967e-06	8.013476e-09	2.558279e+01	5.229569e+02
2.220000e-06	3.532927e-06	7.925982e-09	2.528195e+01	5.201130e+02
2.230000e-06	3.489997e-06	7.868328e-09	2.497474e+01	5.171881e+02
2.240000e-06	3.446263e-06	7.878365e-09	2.466178e+01	5.141753e+02
2.250000e-06	3.401623e-06	7.796458e-09	2.434233e+01	5.110586e+02
2.260000e-06	3.355851e-06	7.726892e-09	2.401478e+01	5.078203e+02
2.270000e-06	3.309137e-06	7.696252e-09	2.368049e+01	5.044535e+02
2.280000e-06	3.261496e-06	7.674096e-09	2.333957e+01	5.009692e+02
2.290000e-06	3.212760e-06	7.609322e-09	2.299081e+01	4.973940e+02
2.300000e-06	3.163080e-06	7.517360e-09	2.263529e+01	4.937586e+02
2.310000e-06	3.112544e-06	7.476973e-09	2.227365e+01	4.900809e+02
2.320000e-06	3.061234e-06	7.431702e-09	2.190647e+01	4.863554e+02
2.330000e-06	3.009002e-06	7.378139e-09	2.153269e+01	4.825526e+02
2.340000e-06	2.955493e-06	7.313292e-09	2.114978e+01	4.786309e+02
2.350000e-06	2.900790e-06	7.241490e-09	2.075832e+01	4.745539e+02
2.360000e-06	2.845288e-06	7.204629e-09	2.036114e+01	4.703054e+02
2.370000e-06	2.789245e-06	7.123649e-09	1.996009e+01	4.658944e+02
2.380000e-06	2.732490e-06	7.039383e-09	1.955395e+01	4.613486e+02
2.390000e-06	2.674945e-06	6.983984e-09	1.914215e+01	4.567015e+02
2.400000e-06	2.616727e-06	6.904010e-09	1.872554e+01	4.519786e+02
2.410000e-06	2.557801e-06	6.850248e-09	1.830386e+01	4.471897e+02
2.420000e-06	2.498239e-06	6.784725e-09	1.787763e+01	4.423273e+02
2.430000e-06	2.438142e-06	6.697611e-09	1.744757e+01	4.373709e+02
2.440000e-06	2.377352e-06	6.613318e-09	1.701255e+01	4.322924e+02
2.450000e-06	2.315656e-06	6.529758e-09	1.657105e+01	4.270615e+02
2.460000e-06	2.252941e-06	6.459035e-09	1.612225e+01	4.216521e+02
2.470000e-06	2.189496e-06	6.367652e-09	1.566824e+01	4.160479e+02
2.480000e-06	2.125606e-06	6.275639e-09	1.521103e+01	4.102501e+02
2.490000e-06	2.061167e-06	6.192589e-09	1.474990e+01	4.042805e+02
2.500000e-06	1.996137e-06	6.105067e-09	1.428454e+01	3.981780e+02
2.510000e-06	1.930536e-06	6.011352e-09	1.381509e+01	3.919856e+02
2.520000e-06	1.864372e-06	5.905163e-09	1.334162e+01	3.857309e+02
2.530000e-06	1.797628e-06	5.811817e-09	1.286400e+01	3.794095e+02
2.540000e-06	1.730393e-06	5.722833e-09	1.238285e+01	3.729804e+02
2.550000e-06	1.662796e-06	5.620655e-09	1.189912e+01	3.663778e+02
2.560000e-06	1.594885e-06	5.512270e-09	1.141315e+01	3.595373e+02
2.570000e-06	1.526537e-06	5.398954e-09	1.092404e+01	3.524236e+02
2.580000e-06	1.457608e-06	5.292270e-09	1.043078e+01	3.450467e+02
2.590000e-06	1.388036e-06	5.183165e-09	9.932911e+00	3.374559e+02
2.600000e-06	1.317730e-06	5.064243e-09	9.429797e+00	3.297154e+02
2.610000e-06	1.246802e-06	4.943611e-09	8.922231e+00	3.218709e+02
2.620000e-06	1.175489e-06	4.823987e-09	8.411910e+00	3.139271e+02
2.630000e-06	1.103947e-06	4.705385e-09	7.899948e+00	3.058446e+02
2.640000e-06	1.032304e-06	4.573956e-09	7.387264e+00	2.975605e+02
2.650000e-06	9.605574e-07	4.434121e-09	6.873838e+00	2.890185e+02
2.660000e-06	8.886722e-07	4.298302e-09	6.359420e+00	2.801943e+02
2.670000e-06	8.165820e-07	4.168316e-09	5.843536e+00	2.711032e+02
2.680000e-06	7.442959e-07	4.034531e-09	5.326251e+00	2.617859e+02
2.690000e-06	6.719057e-07	3.887672e-09	4.808219e+00	2.522842e+02
2.700000e-06	5.993177e-07	3.739895e-09	4.288773e+00	2.426188e+02
2.710000e-06	5.265203e-07	3.592672e-09	3.767828e+00	2.327813e+02
2.720000e-06	4.535568e-07	3.440310e-09	3.245695e+00	2.227429e+02
2.730000e-06	3.804479e-07	3.278545e-09	2.722521e+00	2.124704e+02
2.740000e-06	3.072704e-07	3.113480e-09	2.198855e+00	2.019406e+02
2.750000e-06	2.340566e-07	2.952886e-09	1.674931e+00	1.911426e+02
2.760000e-06	1.608617e-07	2.789754e-09	1.151141e+00	1.800720e+02
2.770000e-06	8.766139e-08	2.618055e-09	6.273130e-01	1.687216e+02
2.780000e-06	1.443429e-08	2.437788e-09	1.032931e-01	1.570793e+02
2.790000e-06	-5.876445e-08	2.256359e-09	-4.205238e-01	1.451359e+02
2.800000e-06	-1.319784e-07	2.072642e-09	-9.444500e-01	1.328961e+02
2.810000e-06	-2.052056e-07	1.881577e-09	-1.468470e+00	1.203841e+02
2.820000e-06	-2.784361e-07	1.684426e-09	-1.992514e+00	1.076356e+02
2.830000e-06	-3.516350e-07	1.485318e-09	-2.516333e+00	9.467828e+01
2.840000e-06	-4.247222e-07	1.286841e-09	-3.039351e+00	8.151083e+01
2.850000e-06	-4.977142e-07	1.086339e-09	-3.561689e+00	6.809540e+01
2.860000e-06	-5.705911e-07	8.784340e-10	-4.083202e+00	5.437179e+01
2.870000e-06	-6.432882e-07	6.628748e-10	-4.603430e+00	4.028902e+01
2.880000e-06	-7.157574e-07	4.422208e-10	-5.122026e+00	2.583855e+01
2.890000e-06	-7.880429e-07	2.179483e-10	-5.639308e+00	1.106965e+01
2.900000e-06	-8.601305e-07	-1.056332e-11	-6.155173e+00	-3.924263e+00
2.910000e-06	-9.319826e-07	-2.437318e-10	-6.669354e+00	-1.904381e+01
2.920000e-06	-1.003683e-06	-4.767226e-10	-7.182446e+00	-3.422713e+01
2.930000e-06	-1.075274e-06	-7.082538e-10	-7.694760e+00	-4.947470e+01
2.940000e-06	-1.146717e-06	-9.416088e-10	-8.206016e+00	-6.484033e+01
2.950000e-06	-1.217871e-06	-1.179851e-09	-8.715198e+00	-8.039118e+01
