# Temperatura_=_20.0
# Concentracion g/m^3_=_10000.0
# C_Vs_to_Am_M_A/Vsm_=_65563218390.804596
# pendiente_HvsI_1/m_=_3716.3
# ordenada_HvsI_A/m_=_1297.0
# frecuencia_Hz_=_269361.10582575755

Tiempo_(s)	Campo_(V.s)	Magnetizacion_(V.s)	Campo_(kA/m)	Magnetizacion_(A/m)
0.000000e+00	-4.325342e-06	-8.760414e-09	-3.089984e+01	-5.707005e+02
1.000000e-08	-4.324545e-06	-8.758804e-09	-3.089414e+01	-5.705942e+02
2.000000e-08	-4.322320e-06	-8.751750e-09	-3.087824e+01	-5.703509e+02
3.000000e-08	-4.318665e-06	-8.741222e-09	-3.085214e+01	-5.700263e+02
4.000000e-08	-4.314016e-06	-8.733061e-09	-3.081892e+01	-5.696805e+02
5.000000e-08	-4.308328e-06	-8.728398e-09	-3.077829e+01	-5.693478e+02
6.000000e-08	-4.301488e-06	-8.723053e-09	-3.072942e+01	-5.690171e+02
7.000000e-08	-4.293640e-06	-8.708964e-09	-3.067336e+01	-5.686345e+02
8.000000e-08	-4.284665e-06	-8.698939e-09	-3.060924e+01	-5.681299e+02
9.000000e-08	-4.273995e-06	-8.724249e-09	-3.053302e+01	-5.674547e+02
1.000000e-07	-4.261431e-06	-8.730454e-09	-3.044326e+01	-5.666109e+02
1.100000e-07	-4.247281e-06	-8.691027e-09	-3.034218e+01	-5.656557e+02
1.200000e-07	-4.231807e-06	-8.588510e-09	-3.023163e+01	-5.646772e+02
1.300000e-07	-4.215182e-06	-8.585492e-09	-3.011286e+01	-5.637534e+02
1.400000e-07	-4.197474e-06	-8.695841e-09	-2.998636e+01	-5.629146e+02
1.500000e-07	-4.178716e-06	-8.611798e-09	-2.985236e+01	-5.621286e+02
1.600000e-07	-4.159111e-06	-8.512552e-09	-2.971230e+01	-5.613170e+02
1.700000e-07	-4.138629e-06	-8.624468e-09	-2.956598e+01	-5.603929e+02
1.800000e-07	-4.117011e-06	-8.595213e-09	-2.941154e+01	-5.592995e+02
1.900000e-07	-4.094436e-06	-8.469228e-09	-2.925026e+01	-5.580312e+02
2.000000e-07	-4.070949e-06	-8.543847e-09	-2.908248e+01	-5.566262e+02
2.100000e-07	-4.046273e-06	-8.493931e-09	-2.890619e+01	-5.551380e+02
2.200000e-07	-4.020319e-06	-8.372757e-09	-2.872078e+01	-5.536018e+02
2.300000e-07	-3.993066e-06	-8.464068e-09	-2.852609e+01	-5.520163e+02
2.400000e-07	-3.964621e-06	-8.451614e-09	-2.832288e+01	-5.503477e+02
2.500000e-07	-3.935158e-06	-8.344197e-09	-2.811239e+01	-5.485533e+02
2.600000e-07	-3.904667e-06	-8.368031e-09	-2.789457e+01	-5.466082e+02
2.700000e-07	-3.873118e-06	-8.309902e-09	-2.766919e+01	-5.445199e+02
2.800000e-07	-3.840661e-06	-8.256023e-09	-2.743732e+01	-5.423222e+02
2.900000e-07	-3.807084e-06	-8.281061e-09	-2.719745e+01	-5.400550e+02
3.000000e-07	-3.772032e-06	-8.188243e-09	-2.694704e+01	-5.377410e+02
3.100000e-07	-3.735740e-06	-8.142123e-09	-2.668778e+01	-5.353745e+02
3.200000e-07	-3.698434e-06	-8.181358e-09	-2.642126e+01	-5.329279e+02
3.300000e-07	-3.660054e-06	-8.107164e-09	-2.614708e+01	-5.303708e+02
3.400000e-07	-3.620657e-06	-8.027617e-09	-2.586563e+01	-5.276894e+02
3.500000e-07	-3.580364e-06	-8.010184e-09	-2.557778e+01	-5.248940e+02
3.600000e-07	-3.539029e-06	-7.949259e-09	-2.528249e+01	-5.220123e+02
3.700000e-07	-3.496329e-06	-7.921314e-09	-2.497745e+01	-5.190705e+02
3.800000e-07	-3.452365e-06	-7.902418e-09	-2.466337e+01	-5.160770e+02
3.900000e-07	-3.407442e-06	-7.813907e-09	-2.434244e+01	-5.130161e+02
4.000000e-07	-3.361659e-06	-7.760746e-09	-2.401538e+01	-5.098568e+02
4.100000e-07	-3.315007e-06	-7.755826e-09	-2.368209e+01	-5.065698e+02
4.200000e-07	-3.267420e-06	-7.688681e-09	-2.334214e+01	-5.031437e+02
4.300000e-07	-3.218871e-06	-7.592988e-09	-2.299531e+01	-4.995904e+02
4.400000e-07	-3.169095e-06	-7.555273e-09	-2.263971e+01	-4.959383e+02
4.500000e-07	-3.117955e-06	-7.520434e-09	-2.227438e+01	-4.922159e+02
4.600000e-07	-3.065806e-06	-7.463826e-09	-2.190183e+01	-4.884363e+02
4.700000e-07	-3.012819e-06	-7.391391e-09	-2.152330e+01	-4.845900e+02
4.800000e-07	-2.958931e-06	-7.317403e-09	-2.113832e+01	-4.806484e+02
4.900000e-07	-2.904155e-06	-7.267621e-09	-2.074701e+01	-4.765761e+02
5.000000e-07	-2.848645e-06	-7.212136e-09	-2.035045e+01	-4.723457e+02
5.100000e-07	-2.792632e-06	-7.134330e-09	-1.995030e+01	-4.679486e+02
5.200000e-07	-2.736072e-06	-7.059992e-09	-1.954624e+01	-4.633981e+02
5.300000e-07	-2.678559e-06	-6.992280e-09	-1.913538e+01	-4.587241e+02
5.400000e-07	-2.619874e-06	-6.921806e-09	-1.871614e+01	-4.539624e+02
5.500000e-07	-2.560361e-06	-6.855404e-09	-1.829098e+01	-4.491411e+02
5.600000e-07	-2.500353e-06	-6.773548e-09	-1.786228e+01	-4.442687e+02
5.700000e-07	-2.439729e-06	-6.686372e-09	-1.742919e+01	-4.393276e+02
5.800000e-07	-2.378448e-06	-6.617124e-09	-1.699140e+01	-4.342771e+02
5.900000e-07	-2.316590e-06	-6.549410e-09	-1.654950e+01	-4.290646e+02
6.000000e-07	-2.254070e-06	-6.458470e-09	-1.610286e+01	-4.236451e+02
6.100000e-07	-2.190890e-06	-6.360591e-09	-1.565151e+01	-4.179999e+02
6.200000e-07	-2.127163e-06	-6.276911e-09	-1.519625e+01	-4.121462e+02
6.300000e-07	-2.062865e-06	-6.193076e-09	-1.473691e+01	-4.061326e+02
6.400000e-07	-1.997942e-06	-6.100147e-09	-1.427311e+01	-4.000175e+02
6.500000e-07	-1.932284e-06	-5.997116e-09	-1.380405e+01	-3.938413e+02
6.600000e-07	-1.865731e-06	-5.898281e-09	-1.332860e+01	-3.876044e+02
6.700000e-07	-1.798470e-06	-5.806171e-09	-1.284810e+01	-3.812628e+02
6.800000e-07	-1.730809e-06	-5.706668e-09	-1.236473e+01	-3.747465e+02
6.900000e-07	-1.662790e-06	-5.596026e-09	-1.187881e+01	-3.679914e+02
7.000000e-07	-1.594380e-06	-5.483267e-09	-1.139010e+01	-3.609709e+02
7.100000e-07	-1.525508e-06	-5.376390e-09	-1.089808e+01	-3.537076e+02
7.200000e-07	-1.456208e-06	-5.267589e-09	-1.040301e+01	-3.462600e+02
7.300000e-07	-1.386525e-06	-5.148028e-09	-9.905201e+00	-3.386899e+02
7.400000e-07	-1.316398e-06	-5.021469e-09	-9.404220e+00	-3.310263e+02
7.500000e-07	-1.245869e-06	-4.900963e-09	-8.900373e+00	-3.232477e+02
7.600000e-07	-1.174920e-06	-4.785027e-09	-8.393519e+00	-3.152918e+02
7.700000e-07	-1.103588e-06	-4.661456e-09	-7.883926e+00	-3.070874e+02
7.800000e-07	-1.032016e-06	-4.524856e-09	-7.372623e+00	-2.985923e+02
7.900000e-07	-9.602752e-07	-4.387164e-09	-6.860115e+00	-2.898147e+02
8.000000e-07	-8.883990e-07	-4.255539e-09	-6.346639e+00	-2.808062e+02
8.100000e-07	-8.163706e-07	-4.119359e-09	-5.832074e+00	-2.716312e+02
8.200000e-07	-7.442207e-07	-3.973299e-09	-5.316643e+00	-2.623286e+02
8.300000e-07	-6.719815e-07	-3.823138e-09	-4.800572e+00	-2.528890e+02
8.400000e-07	-5.996524e-07	-3.678471e-09	-4.283860e+00	-2.432590e+02
8.500000e-07	-5.271784e-07	-3.532177e-09	-3.766113e+00	-2.333701e+02
8.600000e-07	-4.545799e-07	-3.375080e-09	-3.247476e+00	-2.231751e+02
8.700000e-07	-3.818904e-07	-3.209405e-09	-2.728189e+00	-2.126708e+02
8.800000e-07	-3.090220e-07	-3.044100e-09	-2.207624e+00	-2.018943e+02
8.900000e-07	-2.359965e-07	-2.880022e-09	-1.685937e+00	-1.908953e+02
9.000000e-07	-1.629260e-07	-2.708911e-09	-1.163928e+00	-1.797023e+02
9.100000e-07	-8.983572e-08	-2.530325e-09	-6.417779e-01	-1.683026e+02
9.200000e-07	-1.671200e-08	-2.350832e-09	-1.193890e-01	-1.566477e+02
9.300000e-07	5.640155e-08	-2.171466e-09	4.029273e-01	-1.446807e+02
9.400000e-07	1.295103e-07	-1.985789e-09	9.252095e-01	-1.323690e+02
9.500000e-07	2.026464e-07	-1.792359e-09	1.447686e+00	-1.197231e+02
9.600000e-07	2.757401e-07	-1.592197e-09	1.969861e+00	-1.067890e+02
9.700000e-07	3.487060e-07	-1.390955e-09	2.491123e+00	-9.362022e+01
9.800000e-07	4.215280e-07	-1.189783e-09	3.011356e+00	-8.024467e+01
9.900000e-07	4.941892e-07	-9.836554e-10	3.530441e+00	-6.664717e+01
1.000000e-06	5.667137e-07	-7.693456e-10	4.048549e+00	-5.277700e+01
1.010000e-06	6.390653e-07	-5.496506e-10	4.565422e+00	-3.857687e+01
1.020000e-06	7.112672e-07	-3.290630e-10	5.081226e+00	-2.401677e+01
1.030000e-06	7.833769e-07	-1.043120e-10	5.596371e+00	-9.114012e+00
1.040000e-06	8.553738e-07	1.275582e-10	6.110710e+00	6.070993e+00
1.050000e-06	9.272759e-07	3.632559e-10	6.624371e+00	2.145952e+01
1.060000e-06	9.990728e-07	5.987059e-10	7.137282e+00	3.698523e+01
1.070000e-06	1.070711e-06	8.348511e-10	7.649060e+00	5.261376e+01
1.080000e-06	1.142035e-06	1.075634e-09	8.158587e+00	6.834147e+01
1.090000e-06	1.212917e-06	1.319623e-09	8.664962e+00	8.417629e+01
1.100000e-06	1.283410e-06	1.561320e-09	9.168561e+00	1.001130e+02
1.110000e-06	1.353584e-06	1.801033e-09	9.669878e+00	1.161173e+02
1.120000e-06	1.423449e-06	2.042255e-09	1.016898e+01	1.321272e+02
1.130000e-06	1.492881e-06	2.284234e-09	1.066500e+01	1.480686e+02
1.140000e-06	1.561755e-06	2.525157e-09	1.115703e+01	1.638746e+02
1.150000e-06	1.630169e-06	2.763543e-09	1.164578e+01	1.794983e+02
1.160000e-06	1.698270e-06	2.998272e-09	1.213228e+01	1.949117e+02
1.170000e-06	1.766062e-06	3.229752e-09	1.261658e+01	2.100940e+02
1.180000e-06	1.833386e-06	3.457753e-09	1.309754e+01	2.250185e+02
1.190000e-06	1.900010e-06	3.678538e-09	1.357349e+01	2.396455e+02
1.200000e-06	1.965696e-06	3.892777e-09	1.404274e+01	2.539258e+02
1.210000e-06	2.030498e-06	4.102013e-09	1.450569e+01	2.678123e+02
1.220000e-06	2.094767e-06	4.306056e-09	1.496482e+01	2.812712e+02
1.230000e-06	2.158689e-06	4.502774e-09	1.542147e+01	2.942872e+02
1.240000e-06	2.222104e-06	4.691026e-09	1.587450e+01	3.068616e+02
1.250000e-06	2.284867e-06	4.873592e-09	1.632287e+01	3.190044e+02
1.260000e-06	2.347026e-06	5.051861e-09	1.676693e+01	3.307269e+02
1.270000e-06	2.408557e-06	5.225059e-09	1.720650e+01	3.420387e+02
1.280000e-06	2.469401e-06	5.392432e-09	1.764117e+01	3.529497e+02
1.290000e-06	2.529675e-06	5.554404e-09	1.807176e+01	3.634723e+02
1.300000e-06	2.589535e-06	5.709386e-09	1.849940e+01	3.736228e+02
1.310000e-06	2.648734e-06	5.858003e-09	1.892230e+01	3.834174e+02
1.320000e-06	2.706792e-06	6.001394e-09	1.933706e+01	3.928669e+02
1.330000e-06	2.763699e-06	6.139802e-09	1.974360e+01	4.019724e+02
1.340000e-06	2.819864e-06	6.274030e-09	2.014484e+01	4.107249e+02
1.350000e-06	2.875519e-06	6.404188e-09	2.054244e+01	4.191111e+02
1.360000e-06	2.930497e-06	6.528007e-09	2.093520e+01	4.271202e+02
1.370000e-06	2.984662e-06	6.643807e-09	2.132214e+01	4.347504e+02
1.380000e-06	3.038030e-06	6.750300e-09	2.170340e+01	4.420111e+02
1.390000e-06	3.090573e-06	6.850304e-09	2.207876e+01	4.489211e+02
1.400000e-06	3.142120e-06	6.947864e-09	2.244701e+01	4.555048e+02
1.410000e-06	3.192336e-06	7.042209e-09	2.280575e+01	4.617886e+02
1.420000e-06	3.241233e-06	7.132532e-09	2.315506e+01	4.677991e+02
1.430000e-06	3.289233e-06	7.219148e-09	2.349797e+01	4.735617e+02
1.440000e-06	3.336426e-06	7.303815e-09	2.383511e+01	4.790990e+02
1.450000e-06	3.382707e-06	7.386230e-09	2.416574e+01	4.844287e+02
1.460000e-06	3.428095e-06	7.463644e-09	2.448999e+01	4.895612e+02
1.470000e-06	3.472596e-06	7.536024e-09	2.480789e+01	4.944993e+02
1.480000e-06	3.516312e-06	7.605024e-09	2.512020e+01	4.992420e+02
1.490000e-06	3.558994e-06	7.672499e-09	2.542512e+01	5.037894e+02
1.500000e-06	3.600291e-06	7.738545e-09	2.572014e+01	5.081480e+02
1.510000e-06	3.640467e-06	7.801253e-09	2.600715e+01	5.123307e+02
1.520000e-06	3.679721e-06	7.861302e-09	2.628758e+01	5.163518e+02
1.530000e-06	3.717924e-06	7.920664e-09	2.656050e+01	5.202194e+02
1.540000e-06	3.755096e-06	7.977828e-09	2.682605e+01	5.239296e+02
1.550000e-06	3.791370e-06	8.029521e-09	2.708519e+01	5.274666e+02
1.560000e-06	3.826747e-06	8.076299e-09	2.733792e+01	5.308118e+02
1.570000e-06	3.860821e-06	8.120397e-09	2.758134e+01	5.339559e+02
1.580000e-06	3.893499e-06	8.162910e-09	2.781479e+01	5.369077e+02
1.590000e-06	3.925091e-06	8.203741e-09	2.804048e+01	5.396958e+02
1.600000e-06	3.955670e-06	8.242706e-09	2.825893e+01	5.423579e+02
1.610000e-06	3.985236e-06	8.280330e-09	2.847015e+01	5.449258e+02
1.620000e-06	4.013835e-06	8.317527e-09	2.867446e+01	5.474113e+02
1.630000e-06	4.041452e-06	8.351474e-09	2.887175e+01	5.498015e+02
1.640000e-06	4.067806e-06	8.380513e-09	2.906002e+01	5.520658e+02
1.650000e-06	4.092748e-06	8.407412e-09	2.923820e+01	5.541716e+02
1.660000e-06	4.116444e-06	8.435483e-09	2.940749e+01	5.560996e+02
1.670000e-06	4.139057e-06	8.462150e-09	2.956903e+01	5.578528e+02
1.680000e-06	4.160626e-06	8.484722e-09	2.972312e+01	5.594549e+02
1.690000e-06	4.181206e-06	8.505026e-09	2.987014e+01	5.609398e+02
1.700000e-06	4.200801e-06	8.524138e-09	3.001012e+01	5.623384e+02
1.710000e-06	4.219147e-06	8.544048e-09	3.014119e+01	5.636685e+02
1.720000e-06	4.236262e-06	8.562520e-09	3.026346e+01	5.649320e+02
1.730000e-06	4.252241e-06	8.577958e-09	3.037761e+01	5.661171e+02
1.740000e-06	4.266912e-06	8.591822e-09	3.048242e+01	5.672058e+02
1.750000e-06	4.280328e-06	8.605421e-09	3.057826e+01	5.681803e+02
1.760000e-06	4.292515e-06	8.617990e-09	3.066532e+01	5.690297e+02
1.770000e-06	4.303231e-06	8.628023e-09	3.074188e+01	5.697535e+02
1.780000e-06	4.312399e-06	8.636493e-09	3.080737e+01	5.703645e+02
1.790000e-06	4.320311e-06	8.646011e-09	3.086390e+01	5.708874e+02
1.800000e-06	4.327137e-06	8.655948e-09	3.091266e+01	5.713523e+02
1.810000e-06	4.332810e-06	8.663873e-09	3.095318e+01	5.717844e+02
1.820000e-06	4.337384e-06	8.668883e-09	3.098586e+01	5.721912e+02
1.830000e-06	4.340788e-06	8.672250e-09	3.101018e+01	5.725555e+02
1.840000e-06	4.342696e-06	8.676396e-09	3.102381e+01	5.728379e+02
1.850000e-06	4.343198e-06	8.679871e-09	3.102740e+01	5.729922e+02
1.860000e-06	4.342594e-06	8.680979e-09	3.102308e+01	5.729870e+02
1.870000e-06	4.340879e-06	8.678245e-09	3.101083e+01	5.728243e+02
1.880000e-06	4.338090e-06	8.676034e-09	3.099091e+01	5.725431e+02
1.890000e-06	4.334319e-06	8.675465e-09	3.096397e+01	5.722042e+02
1.900000e-06	4.329384e-06	8.672581e-09	3.092871e+01	5.718615e+02
1.910000e-06	4.323044e-06	8.667669e-09	3.088342e+01	5.715335e+02
1.920000e-06	4.315515e-06	8.668175e-09	3.082963e+01	5.711912e+02
1.930000e-06	4.307014e-06	8.674924e-09	3.076890e+01	5.707707e+02
1.940000e-06	4.297386e-06	8.631600e-09	3.070012e+01	5.702055e+02
1.950000e-06	4.286067e-06	8.589072e-09	3.061926e+01	5.694637e+02
1.960000e-06	4.272460e-06	8.595401e-09	3.052205e+01	5.685689e+02
1.970000e-06	4.257131e-06	8.675040e-09	3.041254e+01	5.675942e+02
1.980000e-06	4.241305e-06	8.655751e-09	3.029948e+01	5.666290e+02
1.990000e-06	4.225181e-06	8.518880e-09	3.018429e+01	5.657369e+02
2.000000e-06	4.207785e-06	8.577433e-09	3.006002e+01	5.649247e+02
2.010000e-06	4.188915e-06	8.657943e-09	2.992522e+01	5.641397e+02
2.020000e-06	4.169435e-06	8.518626e-09	2.978605e+01	5.632953e+02
2.030000e-06	4.148904e-06	8.512969e-09	2.963938e+01	5.623117e+02
2.040000e-06	4.126489e-06	8.619596e-09	2.947925e+01	5.611505e+02
2.050000e-06	4.102881e-06	8.488741e-09	2.931059e+01	5.598249e+02
2.060000e-06	4.078433e-06	8.467120e-09	2.913594e+01	5.583828e+02
2.070000e-06	4.052795e-06	8.578643e-09	2.895278e+01	5.568742e+02
2.080000e-06	4.026245e-06	8.448583e-09	2.876312e+01	5.553217e+02
2.090000e-06	3.998699e-06	8.400171e-09	2.856633e+01	5.537100e+02
2.100000e-06	3.969807e-06	8.454608e-09	2.835993e+01	5.519988e+02
2.110000e-06	3.939816e-06	8.340401e-09	2.814567e+01	5.501492e+02
2.120000e-06	3.908567e-06	8.370589e-09	2.792244e+01	5.481478e+02
2.130000e-06	3.875948e-06	8.365120e-09	2.768941e+01	5.460136e+02
2.140000e-06	3.842385e-06	8.226149e-09	2.744963e+01	5.437856e+02
2.150000e-06	3.807844e-06	8.299253e-09	2.720288e+01	5.414997e+02
2.160000e-06	3.772358e-06	8.275121e-09	2.694937e+01	5.391681e+02
2.170000e-06	3.735895e-06	8.109439e-09	2.668888e+01	5.367754e+02
2.180000e-06	3.697923e-06	8.148097e-09	2.641762e+01	5.342904e+02
2.190000e-06	3.658631e-06	8.133905e-09	2.613692e+01	5.316870e+02
2.200000e-06	3.618449e-06	8.055101e-09	2.584986e+01	5.289603e+02
2.210000e-06	3.577269e-06	8.062625e-09	2.555567e+01	5.261290e+02
2.220000e-06	3.535127e-06	7.974777e-09	2.525462e+01	5.232223e+02
2.230000e-06	3.492110e-06	7.919782e-09	2.494731e+01	5.202614e+02
2.240000e-06	3.448261e-06	7.919560e-09	2.463405e+01	5.172456e+02
2.250000e-06	3.403475e-06	7.845664e-09	2.431410e+01	5.141518e+02
2.260000e-06	3.357552e-06	7.769581e-09	2.398603e+01	5.109473e+02
2.270000e-06	3.310680e-06	7.734689e-09	2.365119e+01	5.076081e+02
2.280000e-06	3.262845e-06	7.721206e-09	2.330946e+01	5.041317e+02
2.290000e-06	3.213873e-06	7.649503e-09	2.295961e+01	5.005377e+02
2.300000e-06	3.163969e-06	7.563424e-09	2.260310e+01	4.968564e+02
2.310000e-06	3.113268e-06	7.523146e-09	2.224090e+01	4.931121e+02
2.320000e-06	3.061762e-06	7.469791e-09	2.187294e+01	4.893099e+02
2.330000e-06	3.009278e-06	7.417097e-09	2.149800e+01	4.854318e+02
2.340000e-06	2.955633e-06	7.346253e-09	2.111476e+01	4.814452e+02
2.350000e-06	2.900864e-06	7.277401e-09	2.072350e+01	4.773160e+02
2.360000e-06	2.845243e-06	7.235396e-09	2.032615e+01	4.730229e+02
2.370000e-06	2.788987e-06	7.150155e-09	1.992426e+01	4.685656e+02
2.380000e-06	2.731995e-06	7.077981e-09	1.951712e+01	4.639646e+02
2.390000e-06	2.674268e-06	7.019480e-09	1.910472e+01	4.592536e+02
2.400000e-06	2.615874e-06	6.932396e-09	1.868756e+01	4.544671e+02
2.410000e-06	2.556831e-06	6.871522e-09	1.826576e+01	4.496269e+02
2.420000e-06	2.497265e-06	6.806615e-09	1.784022e+01	4.447322e+02
2.430000e-06	2.437110e-06	6.724002e-09	1.741049e+01	4.397559e+02
2.440000e-06	2.376085e-06	6.633160e-09	1.697453e+01	4.346508e+02
2.450000e-06	2.314055e-06	6.552346e-09	1.653139e+01	4.293649e+02
2.460000e-06	2.251121e-06	6.483611e-09	1.608179e+01	4.238611e+02
2.470000e-06	2.187544e-06	6.390629e-09	1.562761e+01	4.181336e+02
2.480000e-06	2.123464e-06	6.297442e-09	1.516983e+01	4.122132e+02
2.490000e-06	2.058850e-06	6.208195e-09	1.470823e+01	4.061550e+02
2.500000e-06	1.993673e-06	6.120323e-09	1.424261e+01	4.000140e+02
2.510000e-06	1.927928e-06	6.028786e-09	1.377294e+01	3.938176e+02
2.520000e-06	1.861595e-06	5.925430e-09	1.329906e+01	3.875485e+02
2.530000e-06	1.794679e-06	5.831251e-09	1.282102e+01	3.811500e+02
2.540000e-06	1.727365e-06	5.737094e-09	1.234013e+01	3.745502e+02
2.550000e-06	1.659719e-06	5.634348e-09	1.185687e+01	3.676961e+02
2.560000e-06	1.591688e-06	5.525553e-09	1.137087e+01	3.605793e+02
2.570000e-06	1.523195e-06	5.411240e-09	1.088156e+01	3.532390e+02
2.580000e-06	1.454028e-06	5.302522e-09	1.038744e+01	3.457394e+02
2.590000e-06	1.384143e-06	5.194469e-09	9.888188e+00	3.381333e+02
2.600000e-06	1.313581e-06	5.078621e-09	9.384096e+00	3.304318e+02
2.610000e-06	1.242467e-06	4.955655e-09	8.876069e+00	3.225954e+02
2.620000e-06	1.171069e-06	4.831880e-09	8.366007e+00	3.145537e+02
2.630000e-06	1.099513e-06	4.710913e-09	7.854820e+00	3.062427e+02
2.640000e-06	1.027845e-06	4.579565e-09	7.342828e+00	2.976379e+02
2.650000e-06	9.560278e-07	4.438283e-09	6.829772e+00	2.887661e+02
2.660000e-06	8.840081e-07	4.299569e-09	6.315271e+00	2.796883e+02
2.670000e-06	8.117775e-07	4.169032e-09	5.799262e+00	2.704632e+02
2.680000e-06	7.393059e-07	4.033888e-09	5.281532e+00	2.611131e+02
2.690000e-06	6.666519e-07	3.882287e-09	4.762499e+00	2.516099e+02
2.700000e-06	5.938294e-07	3.728529e-09	4.242261e+00	2.418904e+02
2.710000e-06	5.208449e-07	3.577100e-09	3.720867e+00	2.318901e+02
2.720000e-06	4.477532e-07	3.423623e-09	3.198707e+00	2.215769e+02
2.730000e-06	3.745467e-07	3.262464e-09	2.675726e+00	2.109648e+02
2.740000e-06	3.012586e-07	3.095447e-09	2.152163e+00	2.000994e+02
2.750000e-06	2.279475e-07	2.930064e-09	1.628436e+00	1.890263e+02
2.760000e-06	1.546305e-07	2.762558e-09	1.104666e+00	1.777596e+02
2.770000e-06	8.128379e-08	2.586829e-09	5.806837e-01	1.662711e+02
2.780000e-06	7.892334e-09	2.403214e-09	5.638209e-02	1.545051e+02
2.790000e-06	-6.549528e-08	2.216674e-09	-4.678921e-01	1.424105e+02
2.800000e-06	-1.388644e-07	2.027186e-09	-9.920344e-01	1.299699e+02
2.810000e-06	-2.122621e-07	1.833545e-09	-1.516380e+00	1.172094e+02
2.820000e-06	-2.856237e-07	1.636247e-09	-2.040469e+00	1.041817e+02
2.830000e-06	-3.588518e-07	1.434314e-09	-2.563603e+00	9.093423e+01
2.840000e-06	-4.319839e-07	1.228439e-09	-3.086052e+00	7.747957e+01
2.850000e-06	-5.050215e-07	1.020812e-09	-3.607826e+00	6.378687e+01
2.860000e-06	-5.778991e-07	8.085374e-10	-4.128457e+00	4.979886e+01
2.870000e-06	-6.506169e-07	5.888078e-10	-4.647946e+00	3.546489e+01
2.880000e-06	-7.231710e-07	3.618480e-10	-5.166265e+00	2.077158e+01
2.890000e-06	-7.954930e-07	1.314736e-10	-5.682927e+00	5.754210e+00
2.900000e-06	-8.675902e-07	-1.009239e-10	-6.197983e+00	-9.516320e+00
2.910000e-06	-9.395186e-07	-3.376606e-10	-6.711832e+00	-2.496260e+01
2.920000e-06	-1.011286e-06	-5.764433e-10	-7.224529e+00	-4.052901e+01
2.930000e-06	-1.082916e-06	-8.150585e-10	-7.736250e+00	-5.619402e+01
2.940000e-06	-1.154400e-06	-1.054215e-09	-8.246922e+00	-7.196119e+01
2.950000e-06	-1.225651e-06	-1.296980e-09	-8.755936e+00	-8.783621e+01
