# Temperatura_=_20.0
# Concentracion g/m^3_=_10000.0
# C_Vs_to_Am_M_A/Vsm_=_65563218390.804596
# pendiente_HvsI_1/m_=_3716.3
# ordenada_HvsI_A/m_=_1297.0
# frecuencia_Hz_=_269365.1865605745

Tiempo_(s)	Campo_(V.s)	Magnetizacion_(V.s)	Campo_(kA/m)	Magnetizacion_(A/m)
0.000000e+00	-4.324323e-06	-8.768349e-09	-3.090000e+01	-5.705078e+02
1.000000e-08	-4.323572e-06	-8.768074e-09	-3.089464e+01	-5.704161e+02
2.000000e-08	-4.321464e-06	-8.765606e-09	-3.087957e+01	-5.702230e+02
3.000000e-08	-4.317984e-06	-8.760628e-09	-3.085471e+01	-5.699688e+02
4.000000e-08	-4.313469e-06	-8.755763e-09	-3.082244e+01	-5.696857e+02
5.000000e-08	-4.307944e-06	-8.750169e-09	-3.078296e+01	-5.693852e+02
6.000000e-08	-4.301265e-06	-8.742888e-09	-3.073524e+01	-5.690545e+02
7.000000e-08	-4.293538e-06	-8.726967e-09	-3.068003e+01	-5.686613e+02
8.000000e-08	-4.284753e-06	-8.703982e-09	-3.061725e+01	-5.681667e+02
9.000000e-08	-4.274336e-06	-8.722766e-09	-3.054281e+01	-5.675424e+02
1.000000e-07	-4.262000e-06	-8.748168e-09	-3.045466e+01	-5.667837e+02
1.100000e-07	-4.248046e-06	-8.731218e-09	-3.035496e+01	-5.659144e+02
1.200000e-07	-4.232729e-06	-8.630435e-09	-3.024550e+01	-5.649790e+02
1.300000e-07	-4.216322e-06	-8.569640e-09	-3.012827e+01	-5.640267e+02
1.400000e-07	-4.198873e-06	-8.692242e-09	-3.000358e+01	-5.630913e+02
1.500000e-07	-4.180267e-06	-8.695884e-09	-2.987063e+01	-5.621788e+02
1.600000e-07	-4.160757e-06	-8.510033e-09	-2.973122e+01	-5.612646e+02
1.700000e-07	-4.140395e-06	-8.587532e-09	-2.958572e+01	-5.603049e+02
1.800000e-07	-4.118914e-06	-8.654289e-09	-2.943222e+01	-5.592537e+02
1.900000e-07	-4.096497e-06	-8.473799e-09	-2.927204e+01	-5.580796e+02
2.000000e-07	-4.073190e-06	-8.512110e-09	-2.910550e+01	-5.567738e+02
2.100000e-07	-4.048712e-06	-8.553047e-09	-2.893059e+01	-5.553459e+02
2.200000e-07	-4.022879e-06	-8.398658e-09	-2.874599e+01	-5.538131e+02
2.300000e-07	-3.995687e-06	-8.437410e-09	-2.855169e+01	-5.521864e+02
2.400000e-07	-3.967381e-06	-8.492115e-09	-2.834942e+01	-5.504647e+02
2.500000e-07	-3.938101e-06	-8.369563e-09	-2.814020e+01	-5.486364e+02
2.600000e-07	-3.907782e-06	-8.361020e-09	-2.792356e+01	-5.466891e+02
2.700000e-07	-3.876366e-06	-8.324127e-09	-2.769907e+01	-5.446202e+02
2.800000e-07	-3.844017e-06	-8.264882e-09	-2.746791e+01	-5.424413e+02
2.900000e-07	-3.810574e-06	-8.300001e-09	-2.722894e+01	-5.401751e+02
3.000000e-07	-3.775683e-06	-8.212393e-09	-2.697963e+01	-5.378447e+02
3.100000e-07	-3.739518e-06	-8.136018e-09	-2.672120e+01	-5.354622e+02
3.200000e-07	-3.702293e-06	-8.197933e-09	-2.645521e+01	-5.330225e+02
3.300000e-07	-3.664007e-06	-8.126825e-09	-2.618163e+01	-5.305052e+02
3.400000e-07	-3.624687e-06	-8.024666e-09	-2.590066e+01	-5.278854e+02
3.500000e-07	-3.584476e-06	-8.030960e-09	-2.561333e+01	-5.251453e+02
3.600000e-07	-3.543301e-06	-7.961116e-09	-2.531911e+01	-5.222834e+02
3.700000e-07	-3.500819e-06	-7.917606e-09	-2.501555e+01	-5.193141e+02
3.800000e-07	-3.457070e-06	-7.911889e-09	-2.470294e+01	-5.162604e+02
3.900000e-07	-3.412293e-06	-7.824282e-09	-2.438297e+01	-5.131415e+02
4.000000e-07	-3.366573e-06	-7.754492e-09	-2.405628e+01	-5.099622e+02
4.100000e-07	-3.319958e-06	-7.753620e-09	-2.372318e+01	-5.067105e+02
4.200000e-07	-3.272456e-06	-7.699166e-09	-2.338375e+01	-5.033625e+02
4.300000e-07	-3.224084e-06	-7.607751e-09	-2.303811e+01	-4.998939e+02
4.400000e-07	-3.174589e-06	-7.567175e-09	-2.268443e+01	-4.962923e+02
4.500000e-07	-3.123755e-06	-7.524149e-09	-2.232119e+01	-4.925630e+02
4.600000e-07	-3.071790e-06	-7.467747e-09	-2.194987e+01	-4.887263e+02
4.700000e-07	-3.018905e-06	-7.401256e-09	-2.157197e+01	-4.848064e+02
4.800000e-07	-2.965163e-06	-7.324251e-09	-2.118795e+01	-4.808172e+02
4.900000e-07	-2.910579e-06	-7.266065e-09	-2.079792e+01	-4.767521e+02
5.000000e-07	-2.855267e-06	-7.219250e-09	-2.040268e+01	-4.725847e+02
5.100000e-07	-2.799389e-06	-7.147198e-09	-2.000339e+01	-4.682794e+02
5.200000e-07	-2.742993e-06	-7.073590e-09	-1.960040e+01	-4.638093e+02
5.300000e-07	-2.685716e-06	-7.001394e-09	-1.919112e+01	-4.591728e+02
5.400000e-07	-2.627212e-06	-6.924075e-09	-1.877308e+01	-4.543978e+02
5.500000e-07	-2.567746e-06	-6.860807e-09	-1.834816e+01	-4.495318e+02
5.600000e-07	-2.507738e-06	-6.780065e-09	-1.791936e+01	-4.446190e+02
5.700000e-07	-2.447161e-06	-6.690051e-09	-1.748650e+01	-4.396759e+02
5.800000e-07	-2.385866e-06	-6.616778e-09	-1.704851e+01	-4.346773e+02
5.900000e-07	-2.323956e-06	-6.552702e-09	-1.660612e+01	-4.295616e+02
6.000000e-07	-2.261456e-06	-6.465859e-09	-1.615952e+01	-4.242557e+02
6.100000e-07	-2.198343e-06	-6.366877e-09	-1.570854e+01	-4.187076e+02
6.200000e-07	-2.134672e-06	-6.280468e-09	-1.525357e+01	-4.129126e+02
6.300000e-07	-2.070448e-06	-6.198313e-09	-1.479465e+01	-4.069168e+02
6.400000e-07	-2.005650e-06	-6.110621e-09	-1.433163e+01	-4.007966e+02
6.500000e-07	-1.940134e-06	-6.008700e-09	-1.386347e+01	-3.946209e+02
6.600000e-07	-1.873720e-06	-5.906652e-09	-1.338890e+01	-3.884159e+02
6.700000e-07	-1.806530e-06	-5.811559e-09	-1.290879e+01	-3.821492e+02
6.800000e-07	-1.738874e-06	-5.714659e-09	-1.242535e+01	-3.757436e+02
6.900000e-07	-1.670892e-06	-5.607490e-09	-1.193957e+01	-3.691126e+02
7.000000e-07	-1.602603e-06	-5.498260e-09	-1.145161e+01	-3.622021e+02
7.100000e-07	-1.533902e-06	-5.393241e-09	-1.096069e+01	-3.550144e+02
7.200000e-07	-1.464665e-06	-5.287484e-09	-1.046595e+01	-3.476043e+02
7.300000e-07	-1.395013e-06	-5.170864e-09	-9.968242e+00	-3.400484e+02
7.400000e-07	-1.324967e-06	-5.042552e-09	-9.467722e+00	-3.324041e+02
7.500000e-07	-1.254490e-06	-4.917215e-09	-8.964119e+00	-3.246809e+02
7.600000e-07	-1.183645e-06	-4.798750e-09	-8.457885e+00	-3.168374e+02
7.700000e-07	-1.112460e-06	-4.680166e-09	-7.949225e+00	-3.088053e+02
7.800000e-07	-1.040992e-06	-4.551868e-09	-7.438539e+00	-3.005262e+02
7.900000e-07	-9.693369e-07	-4.420363e-09	-6.926520e+00	-2.919795e+02
8.000000e-07	-8.975228e-07	-4.290318e-09	-6.413363e+00	-2.831871e+02
8.100000e-07	-8.255677e-07	-4.156534e-09	-5.899199e+00	-2.741938e+02
8.200000e-07	-7.535176e-07	-4.013638e-09	-5.384356e+00	-2.650354e+02
8.300000e-07	-6.813176e-07	-3.862514e-09	-4.868442e+00	-2.557146e+02
8.400000e-07	-6.089647e-07	-3.714191e-09	-4.351435e+00	-2.461993e+02
8.500000e-07	-5.364787e-07	-3.566639e-09	-3.833477e+00	-2.364414e+02
8.600000e-07	-4.638280e-07	-3.413776e-09	-3.314342e+00	-2.264069e+02
8.700000e-07	-3.910552e-07	-3.252313e-09	-2.794335e+00	-2.160952e+02
8.800000e-07	-3.182194e-07	-3.088262e-09	-2.273877e+00	-2.055372e+02
8.900000e-07	-2.453081e-07	-2.926638e-09	-1.752880e+00	-1.947718e+02
9.000000e-07	-1.723347e-07	-2.761668e-09	-1.231439e+00	-1.838160e+02
9.100000e-07	-9.928155e-08	-2.588224e-09	-7.094290e-01	-1.726468e+02
9.200000e-07	-2.615241e-08	-2.408793e-09	-1.868754e-01	-1.612083e+02
9.300000e-07	4.700009e-08	-2.227963e-09	3.358451e-01	-1.494399e+02
9.400000e-07	1.200673e-07	-2.044939e-09	8.579561e-01	-1.373118e+02
9.500000e-07	1.930905e-07	-1.856482e-09	1.379753e+00	-1.248443e+02
9.600000e-07	2.660694e-07	-1.659399e-09	1.901233e+00	-1.121004e+02
9.700000e-07	3.389518e-07	-1.460949e-09	2.422023e+00	-9.915216e+01
9.800000e-07	4.117565e-07	-1.264087e-09	2.942258e+00	-8.604020e+01
9.900000e-07	4.844199e-07	-1.063680e-09	3.461484e+00	-7.274819e+01
1.000000e-06	5.569514e-07	-8.535203e-10	3.979767e+00	-5.920767e+01
1.010000e-06	6.293367e-07	-6.362268e-10	4.497006e+00	-4.533219e+01
1.020000e-06	7.016033e-07	-4.191247e-10	5.013395e+00	-3.106332e+01
1.030000e-06	7.737624e-07	-1.996169e-10	5.529017e+00	-1.640451e+01
1.040000e-06	8.457809e-07	2.748977e-11	6.043635e+00	-1.425252e+00
1.050000e-06	9.176635e-07	2.600085e-10	6.557281e+00	1.376639e+01
1.060000e-06	9.893783e-07	4.921252e-10	7.069729e+00	2.906810e+01
1.070000e-06	1.060881e-06	7.229658e-10	7.580662e+00	4.442142e+01
1.080000e-06	1.132184e-06	9.566253e-10	8.090166e+00	5.982492e+01
1.090000e-06	1.203178e-06	1.195001e-09	8.597458e+00	7.531734e+01
1.100000e-06	1.273744e-06	1.433994e-09	9.101702e+00	9.094128e+01
1.110000e-06	1.343908e-06	1.671088e-09	9.603066e+00	1.067073e+02
1.120000e-06	1.413693e-06	1.909201e-09	1.010172e+01	1.225760e+02
1.130000e-06	1.483097e-06	2.150716e-09	1.059766e+01	1.384652e+02
1.140000e-06	1.552077e-06	2.393242e-09	1.109057e+01	1.542757e+02
1.150000e-06	1.620613e-06	2.631293e-09	1.158030e+01	1.699207e+02
1.160000e-06	1.688762e-06	2.863096e-09	1.206726e+01	1.853442e+02
1.170000e-06	1.756570e-06	3.092493e-09	1.255179e+01	2.005214e+02
1.180000e-06	1.823939e-06	3.321227e-09	1.303319e+01	2.154447e+02
1.190000e-06	1.890628e-06	3.543795e-09	1.350972e+01	2.301048e+02
1.200000e-06	1.956460e-06	3.759628e-09	1.398013e+01	2.444788e+02
1.210000e-06	2.021471e-06	3.970498e-09	1.444468e+01	2.585291e+02
1.220000e-06	2.085861e-06	4.178691e-09	1.490478e+01	2.722124e+02
1.230000e-06	2.149827e-06	4.381006e-09	1.536186e+01	2.854911e+02
1.240000e-06	2.213324e-06	4.572421e-09	1.581559e+01	2.983410e+02
1.250000e-06	2.276195e-06	4.756579e-09	1.626484e+01	3.107534e+02
1.260000e-06	2.338427e-06	4.937835e-09	1.670953e+01	3.227308e+02
1.270000e-06	2.400051e-06	5.116337e-09	1.714987e+01	3.342823e+02
1.280000e-06	2.461033e-06	5.287816e-09	1.758563e+01	3.454217e+02
1.290000e-06	2.521430e-06	5.451578e-09	1.801720e+01	3.561661e+02
1.300000e-06	2.581362e-06	5.609564e-09	1.844545e+01	3.665367e+02
1.310000e-06	2.640666e-06	5.764436e-09	1.886921e+01	3.765555e+02
1.320000e-06	2.698947e-06	5.912786e-09	1.928567e+01	3.862404e+02
1.330000e-06	2.756117e-06	6.051901e-09	1.969419e+01	3.955989e+02
1.340000e-06	2.812444e-06	6.185817e-09	2.009667e+01	4.046251e+02
1.350000e-06	2.868131e-06	6.319334e-09	2.049460e+01	4.133013e+02
1.360000e-06	2.923164e-06	6.449999e-09	2.088784e+01	4.216056e+02
1.370000e-06	2.977426e-06	6.571101e-09	2.127557e+01	4.295221e+02
1.380000e-06	3.030873e-06	6.682364e-09	2.165749e+01	4.370483e+02
1.390000e-06	3.083473e-06	6.787946e-09	2.203335e+01	4.441988e+02
1.400000e-06	3.135166e-06	6.890032e-09	2.240273e+01	4.510029e+02
1.410000e-06	3.185640e-06	6.987716e-09	2.276340e+01	4.574979e+02
1.420000e-06	3.234712e-06	7.079343e-09	2.311404e+01	4.637215e+02
1.430000e-06	3.282769e-06	7.166326e-09	2.345744e+01	4.697053e+02
1.440000e-06	3.330041e-06	7.252978e-09	2.379523e+01	4.754703e+02
1.450000e-06	3.376415e-06	7.338927e-09	2.412660e+01	4.810260e+02
1.460000e-06	3.421857e-06	7.420830e-09	2.445131e+01	4.863718e+02
1.470000e-06	3.466424e-06	7.496790e-09	2.476977e+01	4.915018e+02
1.480000e-06	3.510248e-06	7.568321e-09	2.508292e+01	4.964103e+02
1.490000e-06	3.553107e-06	7.638972e-09	2.538918e+01	5.010992e+02
1.500000e-06	3.594589e-06	7.707181e-09	2.568559e+01	5.055811e+02
1.510000e-06	3.634804e-06	7.768948e-09	2.597296e+01	5.098786e+02
1.520000e-06	3.674068e-06	7.827684e-09	2.625352e+01	5.140164e+02
1.530000e-06	3.712383e-06	7.887272e-09	2.652730e+01	5.180114e+02
1.540000e-06	3.749648e-06	7.946787e-09	2.679359e+01	5.218626e+02
1.550000e-06	3.786000e-06	8.001943e-09	2.705334e+01	5.255502e+02
1.560000e-06	3.821444e-06	8.052357e-09	2.730662e+01	5.290437e+02
1.570000e-06	3.855629e-06	8.100403e-09	2.755089e+01	5.323179e+02
1.580000e-06	3.888481e-06	8.146799e-09	2.778564e+01	5.353687e+02
1.590000e-06	3.920260e-06	8.189906e-09	2.801272e+01	5.382216e+02
1.600000e-06	3.951007e-06	8.227502e-09	2.823242e+01	5.409249e+02
1.610000e-06	3.980695e-06	8.263605e-09	2.844456e+01	5.435311e+02
1.620000e-06	4.009386e-06	8.301565e-09	2.864958e+01	5.460737e+02
1.630000e-06	4.037115e-06	8.339734e-09	2.884772e+01	5.485514e+02
1.640000e-06	4.063608e-06	8.373464e-09	2.903703e+01	5.509285e+02
1.650000e-06	4.088636e-06	8.402117e-09	2.921587e+01	5.531512e+02
1.660000e-06	4.112443e-06	8.428879e-09	2.938598e+01	5.551749e+02
1.670000e-06	4.135165e-06	8.455192e-09	2.954835e+01	5.569865e+02
1.680000e-06	4.156827e-06	8.478584e-09	2.970313e+01	5.586125e+02
1.690000e-06	4.177493e-06	8.497081e-09	2.985081e+01	5.601085e+02
1.700000e-06	4.197208e-06	8.515295e-09	2.999168e+01	5.615337e+02
1.710000e-06	4.215839e-06	8.536511e-09	3.012481e+01	5.629254e+02
1.720000e-06	4.233205e-06	8.557524e-09	3.024890e+01	5.642835e+02
1.730000e-06	4.249295e-06	8.574546e-09	3.036388e+01	5.655733e+02
1.740000e-06	4.264085e-06	8.588406e-09	3.046956e+01	5.667445e+02
1.750000e-06	4.277642e-06	8.601982e-09	3.056643e+01	5.677570e+02
1.760000e-06	4.290004e-06	8.614295e-09	3.065477e+01	5.685995e+02
1.770000e-06	4.300946e-06	8.623685e-09	3.073295e+01	5.692956e+02
1.780000e-06	4.310298e-06	8.630694e-09	3.079979e+01	5.698925e+02
1.790000e-06	4.318367e-06	8.638651e-09	3.085744e+01	5.704408e+02
1.800000e-06	4.325315e-06	8.648776e-09	3.090709e+01	5.709739e+02
1.810000e-06	4.331030e-06	8.658663e-09	3.094792e+01	5.714954e+02
1.820000e-06	4.335632e-06	8.666061e-09	3.098081e+01	5.719801e+02
1.830000e-06	4.339226e-06	8.670628e-09	3.100649e+01	5.723857e+02
1.840000e-06	4.341442e-06	8.673786e-09	3.102233e+01	5.726703e+02
1.850000e-06	4.342152e-06	8.674904e-09	3.102740e+01	5.728080e+02
1.860000e-06	4.341704e-06	8.673033e-09	3.102420e+01	5.727980e+02
1.870000e-06	4.340159e-06	8.668207e-09	3.101316e+01	5.726635e+02
1.880000e-06	4.337495e-06	8.665200e-09	3.099412e+01	5.724428e+02
1.890000e-06	4.333867e-06	8.665941e-09	3.096820e+01	5.721749e+02
1.900000e-06	4.329187e-06	8.666171e-09	3.093475e+01	5.718852e+02
1.910000e-06	4.323069e-06	8.663201e-09	3.089104e+01	5.715761e+02
1.920000e-06	4.315652e-06	8.662931e-09	3.083804e+01	5.712264e+02
1.930000e-06	4.307294e-06	8.677721e-09	3.077832e+01	5.707994e+02
1.940000e-06	4.297846e-06	8.646627e-09	3.071080e+01	5.702584e+02
1.950000e-06	4.286816e-06	8.579478e-09	3.063199e+01	5.695827e+02
1.960000e-06	4.273597e-06	8.564841e-09	3.053753e+01	5.687783e+02
1.970000e-06	4.258481e-06	8.650465e-09	3.042952e+01	5.678782e+02
1.980000e-06	4.242682e-06	8.691898e-09	3.031662e+01	5.669311e+02
1.990000e-06	4.226641e-06	8.541315e-09	3.020200e+01	5.659824e+02
2.000000e-06	4.209472e-06	8.502390e-09	3.007932e+01	5.650566e+02
2.010000e-06	4.190744e-06	8.677533e-09	2.994550e+01	5.641476e+02
2.020000e-06	4.171263e-06	8.567219e-09	2.980629e+01	5.632220e+02
2.030000e-06	4.150909e-06	8.445373e-09	2.966085e+01	5.622328e+02
2.040000e-06	4.128756e-06	8.625027e-09	2.950255e+01	5.611380e+02
2.050000e-06	4.105289e-06	8.544309e-09	2.933487e+01	5.599143e+02
2.060000e-06	4.081067e-06	8.409160e-09	2.916179e+01	5.585608e+02
2.070000e-06	4.055727e-06	8.571935e-09	2.898072e+01	5.570916e+02
2.080000e-06	4.029411e-06	8.495095e-09	2.879267e+01	5.555228e+02
2.090000e-06	4.002129e-06	8.347873e-09	2.859772e+01	5.538613e+02
2.100000e-06	3.973527e-06	8.434503e-09	2.839334e+01	5.521012e+02
2.110000e-06	3.943724e-06	8.356809e-09	2.818038e+01	5.502293e+02
2.120000e-06	3.912631e-06	8.344274e-09	2.795820e+01	5.482360e+02
2.130000e-06	3.880181e-06	8.370812e-09	2.772633e+01	5.461236e+02
2.140000e-06	3.846749e-06	8.202950e-09	2.748744e+01	5.439090e+02
2.150000e-06	3.812347e-06	8.261275e-09	2.724161e+01	5.416163e+02
2.160000e-06	3.776982e-06	8.306817e-09	2.698890e+01	5.392658e+02
2.170000e-06	3.740693e-06	8.077595e-09	2.672959e+01	5.368634e+02
2.180000e-06	3.702888e-06	8.123651e-09	2.645946e+01	5.343974e+02
2.190000e-06	3.663618e-06	8.162572e-09	2.617885e+01	5.318444e+02
2.200000e-06	3.623441e-06	8.024676e-09	2.589176e+01	5.291808e+02
2.210000e-06	3.582257e-06	8.060739e-09	2.559747e+01	5.263942e+02
2.220000e-06	3.540149e-06	7.988531e-09	2.529658e+01	5.234895e+02
2.230000e-06	3.497242e-06	7.897363e-09	2.498999e+01	5.204858e+02
2.240000e-06	3.453475e-06	7.920920e-09	2.467725e+01	5.174059e+02
2.250000e-06	3.408798e-06	7.847232e-09	2.435800e+01	5.142647e+02
2.260000e-06	3.363024e-06	7.775567e-09	2.403091e+01	5.110605e+02
2.270000e-06	3.316317e-06	7.737397e-09	2.369716e+01	5.077757e+02
2.280000e-06	3.268697e-06	7.702106e-09	2.335689e+01	5.043848e+02
2.290000e-06	3.219942e-06	7.656098e-09	2.300850e+01	5.008669e+02
2.300000e-06	3.170226e-06	7.566259e-09	2.265326e+01	4.972157e+02
2.310000e-06	3.119617e-06	7.522442e-09	2.229162e+01	4.934432e+02
2.320000e-06	3.068188e-06	7.472495e-09	2.192413e+01	4.895727e+02
2.330000e-06	3.015940e-06	7.414901e-09	2.155079e+01	4.856261e+02
2.340000e-06	2.962436e-06	7.358744e-09	2.116846e+01	4.816103e+02
2.350000e-06	2.907647e-06	7.267549e-09	2.077696e+01	4.775108e+02
2.360000e-06	2.852068e-06	7.226212e-09	2.037982e+01	4.732957e+02
2.370000e-06	2.795919e-06	7.156261e-09	1.997860e+01	4.689305e+02
2.380000e-06	2.739051e-06	7.081127e-09	1.957224e+01	4.643966e+02
2.390000e-06	2.681410e-06	7.033896e-09	1.916036e+01	4.597034e+02
2.400000e-06	2.623085e-06	6.935190e-09	1.874359e+01	4.548882e+02
2.410000e-06	2.564067e-06	6.875702e-09	1.832187e+01	4.500004e+02
2.420000e-06	2.504490e-06	6.815986e-09	1.789615e+01	4.450764e+02
2.430000e-06	2.444408e-06	6.726501e-09	1.746683e+01	4.401177e+02
2.440000e-06	2.383561e-06	6.642779e-09	1.703204e+01	4.350836e+02
2.450000e-06	2.321646e-06	6.561254e-09	1.658962e+01	4.299047e+02
2.460000e-06	2.258724e-06	6.499927e-09	1.614000e+01	4.245119e+02
2.470000e-06	2.195199e-06	6.408661e-09	1.568607e+01	4.188688e+02
2.480000e-06	2.131259e-06	6.306871e-09	1.522918e+01	4.129907e+02
2.490000e-06	2.066809e-06	6.219301e-09	1.476864e+01	4.069387e+02
2.500000e-06	2.001678e-06	6.130324e-09	1.430324e+01	4.007912e+02
2.510000e-06	1.935906e-06	6.046486e-09	1.383326e+01	3.946046e+02
2.520000e-06	1.869634e-06	5.944735e-09	1.335971e+01	3.883832e+02
2.530000e-06	1.802848e-06	5.848197e-09	1.288248e+01	3.820748e+02
2.540000e-06	1.735568e-06	5.757579e-09	1.240172e+01	3.755938e+02
2.550000e-06	1.667931e-06	5.651960e-09	1.191841e+01	3.688615e+02
2.560000e-06	1.600018e-06	5.544517e-09	1.143313e+01	3.618435e+02
2.570000e-06	1.531674e-06	5.425946e-09	1.094477e+01	3.545639e+02
2.580000e-06	1.462660e-06	5.317699e-09	1.045162e+01	3.470903e+02
2.590000e-06	1.392942e-06	5.215498e-09	9.953442e+00	3.394966e+02
2.600000e-06	1.322538e-06	5.101815e-09	9.450360e+00	3.318246e+02
2.610000e-06	1.251506e-06	4.980174e-09	8.942795e+00	3.240632e+02
2.620000e-06	1.180126e-06	4.854425e-09	8.432739e+00	3.161572e+02
2.630000e-06	1.108576e-06	4.736125e-09	7.921470e+00	3.080376e+02
2.640000e-06	1.036910e-06	4.607001e-09	7.409371e+00	2.996581e+02
2.650000e-06	9.651215e-07	4.467442e-09	6.896399e+00	2.910148e+02
2.660000e-06	8.931445e-07	4.329396e-09	6.382077e+00	2.821416e+02
2.670000e-06	8.209842e-07	4.199092e-09	5.866447e+00	2.730835e+02
2.680000e-06	7.486297e-07	4.069569e-09	5.349429e+00	2.638659e+02
2.690000e-06	6.760664e-07	3.924528e-09	4.830919e+00	2.544773e+02
2.700000e-06	6.032840e-07	3.776266e-09	4.310843e+00	2.448765e+02
2.710000e-06	5.303816e-07	3.628650e-09	3.789909e+00	2.350172e+02
2.720000e-06	4.573879e-07	3.479780e-09	3.268324e+00	2.248768e+02
2.730000e-06	3.842233e-07	3.321463e-09	2.745517e+00	2.144680e+02
2.740000e-06	3.109451e-07	3.152562e-09	2.221898e+00	2.038281e+02
2.750000e-06	2.376250e-07	2.986701e-09	1.697980e+00	1.929913e+02
2.760000e-06	1.643217e-07	2.824790e-09	1.174182e+00	1.819603e+02
2.770000e-06	9.099171e-08	2.659498e-09	6.501928e-01	1.706977e+02
2.780000e-06	1.760290e-08	2.482657e-09	1.257837e-01	1.591415e+02
2.790000e-06	-5.578587e-08	2.298555e-09	-3.986250e-01	1.472392e+02
2.800000e-06	-1.291555e-07	2.112665e-09	-9.228972e-01	1.349786e+02
2.810000e-06	-2.024679e-07	1.923255e-09	-1.446760e+00	1.223986e+02
2.820000e-06	-2.757645e-07	1.727460e-09	-1.970510e+00	1.095704e+02
2.830000e-06	-3.490453e-07	1.525396e-09	-2.494148e+00	9.655876e+01
2.840000e-06	-4.222207e-07	1.323537e-09	-3.017032e+00	8.338439e+01
2.850000e-06	-4.952805e-07	1.124766e-09	-3.539090e+00	7.000910e+01
2.860000e-06	-5.682632e-07	9.199993e-10	-4.060597e+00	5.635253e+01
2.870000e-06	-6.411427e-07	7.048581e-10	-4.581367e+00	4.233348e+01
2.880000e-06	-7.138384e-07	4.827262e-10	-5.100823e+00	2.791410e+01
2.890000e-06	-7.862918e-07	2.565176e-10	-5.618548e+00	1.312398e+01
2.900000e-06	-8.584841e-07	2.647970e-11	-6.134408e+00	-1.948338e+00
2.910000e-06	-9.304675e-07	-2.092595e-10	-6.648774e+00	-1.719158e+01
2.920000e-06	-1.002274e-06	-4.461650e-10	-7.161880e+00	-3.251644e+01
2.930000e-06	-1.073925e-06	-6.809390e-10	-7.673864e+00	-4.788600e+01
2.940000e-06	-1.145407e-06	-9.160666e-10	-8.184650e+00	-6.331727e+01
2.950000e-06	-1.216632e-06	-1.154882e-09	-8.693598e+00	-7.885513e+01
