# Temperatura_=_20.0
# Concentracion g/m^3_=_10000.0
# C_Vs_to_Am_M_A/Vsm_=_65563218390.804596
# pendiente_HvsI_1/m_=_3716.3
# ordenada_HvsI_A/m_=_1297.0
# frecuencia_Hz_=_269359.4482076015

Tiempo_(s)	Campo_(V.s)	Magnetizacion_(V.s)	Campo_(kA/m)	Magnetizacion_(A/m)
0.000000e+00	-4.325571e-06	-8.776405e-09	-3.089932e+01	-5.720560e+02
1.000000e-08	-4.324891e-06	-8.776812e-09	-3.089446e+01	-5.720439e+02
2.000000e-08	-4.322903e-06	-8.776059e-09	-3.088026e+01	-5.719675e+02
3.000000e-08	-4.319491e-06	-8.771724e-09	-3.085589e+01	-5.717905e+02
4.000000e-08	-4.314995e-06	-8.765935e-09	-3.082377e+01	-5.714861e+02
5.000000e-08	-4.309435e-06	-8.757952e-09	-3.078405e+01	-5.710565e+02
6.000000e-08	-4.302730e-06	-8.746346e-09	-3.073616e+01	-5.705353e+02
7.000000e-08	-4.294939e-06	-8.727014e-09	-3.068050e+01	-5.699678e+02
8.000000e-08	-4.286030e-06	-8.709310e-09	-3.061687e+01	-5.693839e+02
9.000000e-08	-4.275529e-06	-8.738154e-09	-3.054185e+01	-5.687788e+02
1.000000e-07	-4.263153e-06	-8.758674e-09	-3.045344e+01	-5.681168e+02
1.100000e-07	-4.249200e-06	-8.728699e-09	-3.035377e+01	-5.673561e+02
1.200000e-07	-4.233841e-06	-8.615271e-09	-3.024406e+01	-5.664796e+02
1.300000e-07	-4.217328e-06	-8.589356e-09	-3.012610e+01	-5.655128e+02
1.400000e-07	-4.199799e-06	-8.728695e-09	-3.000088e+01	-5.645148e+02
1.500000e-07	-4.181167e-06	-8.663491e-09	-2.986778e+01	-5.635458e+02
1.600000e-07	-4.161632e-06	-8.496476e-09	-2.972824e+01	-5.626288e+02
1.700000e-07	-4.141190e-06	-8.620968e-09	-2.958221e+01	-5.617273e+02
1.800000e-07	-4.119596e-06	-8.657467e-09	-2.942796e+01	-5.607534e+02
1.900000e-07	-4.097110e-06	-8.474498e-09	-2.926733e+01	-5.596046e+02
2.000000e-07	-4.073816e-06	-8.530293e-09	-2.910093e+01	-5.582090e+02
2.100000e-07	-4.049299e-06	-8.543077e-09	-2.892579e+01	-5.565566e+02
2.200000e-07	-4.023372e-06	-8.390885e-09	-2.874059e+01	-5.546998e+02
2.300000e-07	-3.996136e-06	-8.457176e-09	-2.854603e+01	-5.527247e+02
2.400000e-07	-3.967799e-06	-8.482081e-09	-2.834361e+01	-5.507098e+02
2.500000e-07	-3.938491e-06	-8.359511e-09	-2.813425e+01	-5.486937e+02
2.600000e-07	-3.908142e-06	-8.384553e-09	-2.791745e+01	-5.466681e+02
2.700000e-07	-3.876688e-06	-8.341154e-09	-2.769277e+01	-5.445958e+02
2.800000e-07	-3.844342e-06	-8.259430e-09	-2.746171e+01	-5.424409e+02
2.900000e-07	-3.810918e-06	-8.290789e-09	-2.722295e+01	-5.401909e+02
3.000000e-07	-3.775996e-06	-8.211927e-09	-2.697348e+01	-5.378595e+02
3.100000e-07	-3.739786e-06	-8.145808e-09	-2.671482e+01	-5.354698e+02
3.200000e-07	-3.702547e-06	-8.194657e-09	-2.644881e+01	-5.330316e+02
3.300000e-07	-3.664250e-06	-8.137254e-09	-2.617524e+01	-5.305280e+02
3.400000e-07	-3.624863e-06	-8.048712e-09	-2.589388e+01	-5.279207e+02
3.500000e-07	-3.584586e-06	-8.029937e-09	-2.560616e+01	-5.251717e+02
3.600000e-07	-3.543357e-06	-7.965557e-09	-2.531164e+01	-5.222664e+02
3.700000e-07	-3.500790e-06	-7.926532e-09	-2.500757e+01	-5.192257e+02
3.800000e-07	-3.457031e-06	-7.907723e-09	-2.469499e+01	-5.160971e+02
3.900000e-07	-3.412287e-06	-7.827746e-09	-2.437536e+01	-5.129297e+02
4.000000e-07	-3.366529e-06	-7.770306e-09	-2.404849e+01	-5.097479e+02
4.100000e-07	-3.319802e-06	-7.761157e-09	-2.371471e+01	-5.065369e+02
4.200000e-07	-3.272227e-06	-7.706428e-09	-2.337486e+01	-5.032497e+02
4.300000e-07	-3.223867e-06	-7.613702e-09	-2.302940e+01	-4.998301e+02
4.400000e-07	-3.174337e-06	-7.566502e-09	-2.267559e+01	-4.962403e+02
4.500000e-07	-3.123347e-06	-7.527984e-09	-2.231135e+01	-4.924775e+02
4.600000e-07	-3.071278e-06	-7.473269e-09	-2.193939e+01	-4.885729e+02
4.700000e-07	-3.018392e-06	-7.403161e-09	-2.156161e+01	-4.845729e+02
4.800000e-07	-2.964563e-06	-7.327664e-09	-2.117708e+01	-4.805153e+02
4.900000e-07	-2.909860e-06	-7.274168e-09	-2.078632e+01	-4.764103e+02
5.000000e-07	-2.854473e-06	-7.219690e-09	-2.039067e+01	-4.722383e+02
5.100000e-07	-2.798529e-06	-7.144489e-09	-1.999104e+01	-4.679605e+02
5.200000e-07	-2.741990e-06	-7.072052e-09	-1.958715e+01	-4.635391e+02
5.300000e-07	-2.684560e-06	-7.006316e-09	-1.917691e+01	-4.589539e+02
5.400000e-07	-2.626026e-06	-6.935961e-09	-1.875878e+01	-4.542093e+02
5.500000e-07	-2.566584e-06	-6.867344e-09	-1.833416e+01	-4.493289e+02
5.600000e-07	-2.506547e-06	-6.783542e-09	-1.790529e+01	-4.443425e+02
5.700000e-07	-2.445923e-06	-6.694008e-09	-1.747222e+01	-4.392710e+02
5.800000e-07	-2.384622e-06	-6.617416e-09	-1.703433e+01	-4.341168e+02
5.900000e-07	-2.322729e-06	-6.547494e-09	-1.659220e+01	-4.288628e+02
6.000000e-07	-2.260270e-06	-6.461467e-09	-1.614603e+01	-4.234793e+02
6.100000e-07	-2.197121e-06	-6.365290e-09	-1.569493e+01	-4.179353e+02
6.200000e-07	-2.133346e-06	-6.280094e-09	-1.523936e+01	-4.122093e+02
6.300000e-07	-2.069082e-06	-6.196934e-09	-1.478030e+01	-4.062954e+02
6.400000e-07	-2.004204e-06	-6.106888e-09	-1.431685e+01	-4.002041e+02
6.500000e-07	-1.938566e-06	-6.003722e-09	-1.384797e+01	-3.939557e+02
6.600000e-07	-1.872080e-06	-5.900774e-09	-1.337303e+01	-3.875718e+02
6.700000e-07	-1.804848e-06	-5.804786e-09	-1.289277e+01	-3.810655e+02
6.800000e-07	-1.737164e-06	-5.706103e-09	-1.240927e+01	-3.744370e+02
6.900000e-07	-1.669160e-06	-5.597395e-09	-1.192349e+01	-3.676723e+02
7.000000e-07	-1.600834e-06	-5.485755e-09	-1.143541e+01	-3.607485e+02
7.100000e-07	-1.532078e-06	-5.381333e-09	-1.094426e+01	-3.536407e+02
7.200000e-07	-1.462792e-06	-5.276034e-09	-1.044932e+01	-3.463288e+02
7.300000e-07	-1.393104e-06	-5.158866e-09	-9.951510e+00	-3.388017e+02
7.400000e-07	-1.323076e-06	-5.030374e-09	-9.451270e+00	-3.310577e+02
7.500000e-07	-1.252649e-06	-4.903452e-09	-8.948181e+00	-3.231031e+02
7.600000e-07	-1.181782e-06	-4.780752e-09	-8.441950e+00	-3.149495e+02
7.700000e-07	-1.110521e-06	-4.655911e-09	-7.932907e+00	-3.066114e+02
7.800000e-07	-1.039001e-06	-4.522816e-09	-7.422006e+00	-2.981021e+02
7.900000e-07	-9.672825e-07	-4.388178e-09	-6.909694e+00	-2.894292e+02
8.000000e-07	-8.953865e-07	-4.256716e-09	-6.396111e+00	-2.805890e+02
8.100000e-07	-8.233481e-07	-4.121049e-09	-5.881512e+00	-2.715629e+02
8.200000e-07	-7.511828e-07	-3.976065e-09	-5.366006e+00	-2.623190e+02
8.300000e-07	-6.789009e-07	-3.822997e-09	-4.849666e+00	-2.528211e+02
8.400000e-07	-6.065160e-07	-3.673033e-09	-4.332591e+00	-2.430430e+02
8.500000e-07	-5.340197e-07	-3.523126e-09	-3.814721e+00	-2.329816e+02
8.600000e-07	-4.614085e-07	-3.366203e-09	-3.296029e+00	-2.226621e+02
8.700000e-07	-3.886771e-07	-3.201037e-09	-2.776479e+00	-2.121272e+02
8.800000e-07	-3.158199e-07	-3.033648e-09	-2.256030e+00	-2.014155e+02
8.900000e-07	-2.428441e-07	-2.868140e-09	-1.734735e+00	-1.905366e+02
9.000000e-07	-1.697892e-07	-2.698952e-09	-1.212873e+00	-1.794570e+02
9.100000e-07	-9.675015e-08	-2.522367e-09	-6.911258e-01	-1.681074e+02
9.200000e-07	-2.371816e-08	-2.341537e-09	-1.694285e-01	-1.564108e+02
9.300000e-07	4.940529e-08	-2.158750e-09	3.529222e-01	-1.443197e+02
9.400000e-07	1.225780e-07	-1.969877e-09	8.756248e-01	-1.318425e+02
9.500000e-07	1.957292e-07	-1.775253e-09	1.398174e+00	-1.190446e+02
9.600000e-07	2.687739e-07	-1.574821e-09	1.919962e+00	-1.060184e+02
9.700000e-07	3.417043e-07	-1.373630e-09	2.440933e+00	-9.283741e+01
9.800000e-07	4.145374e-07	-1.174016e-09	2.961210e+00	-7.951536e+01
9.900000e-07	4.872134e-07	-9.704099e-10	3.480364e+00	-6.599433e+01
1.000000e-06	5.597879e-07	-7.573523e-10	3.998794e+00	-5.216970e+01
1.010000e-06	6.322962e-07	-5.356448e-10	4.516750e+00	-3.794171e+01
1.020000e-06	7.046451e-07	-3.099884e-10	5.033568e+00	-2.326846e+01
1.030000e-06	7.768295e-07	-8.114937e-11	5.549211e+00	-8.193026e+00
1.040000e-06	8.488646e-07	1.520733e-10	6.063787e+00	7.169625e+00
1.050000e-06	9.207240e-07	3.889275e-10	6.577108e+00	2.267997e+01
1.060000e-06	9.924510e-07	6.262313e-10	7.089483e+00	3.823137e+01
1.070000e-06	1.063995e-06	8.620258e-10	7.600551e+00	5.378854e+01
1.080000e-06	1.135242e-06	1.098655e-09	8.109499e+00	6.938817e+01
1.090000e-06	1.206181e-06	1.339627e-09	8.616245e+00	8.510264e+01
1.100000e-06	1.276742e-06	1.583617e-09	9.120287e+00	1.009869e+02
1.110000e-06	1.346948e-06	1.827522e-09	9.621801e+00	1.170360e+02
1.120000e-06	1.416812e-06	2.071720e-09	1.012087e+01	1.331747e+02
1.130000e-06	1.486261e-06	2.316215e-09	1.061697e+01	1.492804e+02
1.140000e-06	1.555228e-06	2.559597e-09	1.110963e+01	1.652273e+02
1.150000e-06	1.623740e-06	2.797273e-09	1.159904e+01	1.809255e+02
1.160000e-06	1.691909e-06	3.028982e-09	1.208599e+01	1.963384e+02
1.170000e-06	1.759726e-06	3.258080e-09	1.257044e+01	2.114712e+02
1.180000e-06	1.827140e-06	3.485260e-09	1.305200e+01	2.263424e+02
1.190000e-06	1.893872e-06	3.706458e-09	1.352870e+01	2.409541e+02
1.200000e-06	1.959680e-06	3.921485e-09	1.399879e+01	2.552782e+02
1.210000e-06	2.024617e-06	4.132871e-09	1.446267e+01	2.692613e+02
1.220000e-06	2.088923e-06	4.340027e-09	1.492203e+01	2.828426e+02
1.230000e-06	2.152826e-06	4.539581e-09	1.537851e+01	2.959735e+02
1.240000e-06	2.216285e-06	4.727735e-09	1.583183e+01	3.086275e+02
1.250000e-06	2.279097e-06	4.907976e-09	1.628052e+01	3.208005e+02
1.260000e-06	2.341268e-06	5.084444e-09	1.672464e+01	3.325037e+02
1.270000e-06	2.402944e-06	5.256524e-09	1.716521e+01	3.437579e+02
1.280000e-06	2.464058e-06	5.422144e-09	1.760177e+01	3.545915e+02
1.290000e-06	2.524502e-06	5.582222e-09	1.803355e+01	3.650401e+02
1.300000e-06	2.584440e-06	5.737480e-09	1.846171e+01	3.751431e+02
1.310000e-06	2.643814e-06	5.888716e-09	1.888584e+01	3.849344e+02
1.320000e-06	2.702111e-06	6.033291e-09	1.930228e+01	3.944302e+02
1.330000e-06	2.759180e-06	6.169683e-09	1.970995e+01	4.036191e+02
1.340000e-06	2.815439e-06	6.302042e-09	2.011183e+01	4.124645e+02
1.350000e-06	2.871154e-06	6.432807e-09	2.050983e+01	4.209191e+02
1.360000e-06	2.926198e-06	6.557723e-09	2.090302e+01	4.289464e+02
1.370000e-06	2.980453e-06	6.672870e-09	2.129060e+01	4.365399e+02
1.380000e-06	3.033870e-06	6.779481e-09	2.167218e+01	4.437278e+02
1.390000e-06	3.086429e-06	6.881133e-09	2.204763e+01	4.505630e+02
1.400000e-06	3.138078e-06	6.979022e-09	2.241657e+01	4.571020e+02
1.410000e-06	3.188542e-06	7.072959e-09	2.277706e+01	4.633867e+02
1.420000e-06	3.237675e-06	7.164210e-09	2.312803e+01	4.694354e+02
1.430000e-06	3.285756e-06	7.252091e-09	2.347150e+01	4.752490e+02
1.440000e-06	3.332979e-06	7.336717e-09	2.380883e+01	4.808247e+02
1.450000e-06	3.379343e-06	7.417652e-09	2.414003e+01	4.861679e+02
1.460000e-06	3.424795e-06	7.494268e-09	2.446471e+01	4.912948e+02
1.470000e-06	3.469351e-06	7.567293e-09	2.478299e+01	4.962260e+02
1.480000e-06	3.513175e-06	7.637180e-09	2.509604e+01	5.009757e+02
1.490000e-06	3.555979e-06	7.704856e-09	2.540181e+01	5.055468e+02
1.500000e-06	3.597365e-06	7.771226e-09	2.569745e+01	5.099341e+02
1.510000e-06	3.637588e-06	7.834963e-09	2.598478e+01	5.141344e+02
1.520000e-06	3.676927e-06	7.895663e-09	2.626579e+01	5.181545e+02
1.530000e-06	3.715323e-06	7.954150e-09	2.654007e+01	5.220110e+02
1.540000e-06	3.752672e-06	8.010013e-09	2.680687e+01	5.257198e+02
1.550000e-06	3.789018e-06	8.061789e-09	2.706650e+01	5.292834e+02
1.560000e-06	3.824419e-06	8.110726e-09	2.731939e+01	5.326848e+02
1.570000e-06	3.858591e-06	8.156536e-09	2.756349e+01	5.358952e+02
1.580000e-06	3.891376e-06	8.198536e-09	2.779769e+01	5.388922e+02
1.590000e-06	3.923011e-06	8.239639e-09	2.802367e+01	5.416795e+02
1.600000e-06	3.953632e-06	8.280730e-09	2.824241e+01	5.442926e+02
1.610000e-06	3.983212e-06	8.321025e-09	2.845371e+01	5.467868e+02
1.620000e-06	4.011845e-06	8.358358e-09	2.865825e+01	5.492100e+02
1.630000e-06	4.039599e-06	8.391511e-09	2.885651e+01	5.515774e+02
1.640000e-06	4.066072e-06	8.420862e-09	2.904562e+01	5.538609e+02
1.650000e-06	4.091014e-06	8.447130e-09	2.922378e+01	5.560039e+02
1.660000e-06	4.114777e-06	8.471423e-09	2.939353e+01	5.579519e+02
1.670000e-06	4.137497e-06	8.494207e-09	2.955583e+01	5.596842e+02
1.680000e-06	4.159123e-06	8.517218e-09	2.971032e+01	5.612278e+02
1.690000e-06	4.179765e-06	8.540603e-09	2.985777e+01	5.626443e+02
1.700000e-06	4.199481e-06	8.561946e-09	2.999861e+01	5.639988e+02
1.710000e-06	4.217981e-06	8.581982e-09	3.013076e+01	5.653261e+02
1.720000e-06	4.235190e-06	8.600382e-09	3.025369e+01	5.666157e+02
1.730000e-06	4.251216e-06	8.615793e-09	3.036817e+01	5.678220e+02
1.740000e-06	4.265945e-06	8.628608e-09	3.047339e+01	5.688946e+02
1.750000e-06	4.279442e-06	8.638975e-09	3.056980e+01	5.698093e+02
1.760000e-06	4.291808e-06	8.648119e-09	3.065814e+01	5.705820e+02
1.770000e-06	4.302735e-06	8.657659e-09	3.073619e+01	5.712586e+02
1.780000e-06	4.312041e-06	8.667074e-09	3.080267e+01	5.718869e+02
1.790000e-06	4.320088e-06	8.676237e-09	3.086015e+01	5.724891e+02
1.800000e-06	4.326998e-06	8.686572e-09	3.090951e+01	5.730512e+02
1.810000e-06	4.332666e-06	8.696766e-09	3.095001e+01	5.735349e+02
1.820000e-06	4.337254e-06	8.703483e-09	3.098278e+01	5.739040e+02
1.830000e-06	4.340778e-06	8.706013e-09	3.100795e+01	5.741469e+02
1.840000e-06	4.342861e-06	8.706409e-09	3.102283e+01	5.742826e+02
1.850000e-06	4.343501e-06	8.706270e-09	3.102740e+01	5.743459e+02
1.860000e-06	4.342994e-06	8.704297e-09	3.102378e+01	5.743623e+02
1.870000e-06	4.341373e-06	8.700548e-09	3.101220e+01	5.743298e+02
1.880000e-06	4.338708e-06	8.700046e-09	3.099316e+01	5.742201e+02
1.890000e-06	4.335101e-06	8.701648e-09	3.096740e+01	5.739972e+02
1.900000e-06	4.330388e-06	8.700847e-09	3.093373e+01	5.736438e+02
1.910000e-06	4.324205e-06	8.696830e-09	3.088956e+01	5.731748e+02
1.920000e-06	4.316743e-06	8.695856e-09	3.083626e+01	5.726312e+02
1.930000e-06	4.308341e-06	8.706700e-09	3.077624e+01	5.720558e+02
1.940000e-06	4.298809e-06	8.659513e-09	3.070815e+01	5.714665e+02
1.950000e-06	4.287620e-06	8.600202e-09	3.062823e+01	5.708454e+02
1.960000e-06	4.274184e-06	8.599641e-09	3.053224e+01	5.701507e+02
1.970000e-06	4.258918e-06	8.704017e-09	3.042319e+01	5.693465e+02
1.980000e-06	4.243048e-06	8.708093e-09	3.030983e+01	5.684309e+02
1.990000e-06	4.226931e-06	8.529030e-09	3.019469e+01	5.674446e+02
2.000000e-06	4.209626e-06	8.570551e-09	3.007108e+01	5.664517e+02
2.010000e-06	4.190824e-06	8.722473e-09	2.993677e+01	5.655026e+02
2.020000e-06	4.171338e-06	8.554406e-09	2.979757e+01	5.645990e+02
2.030000e-06	4.150889e-06	8.475693e-09	2.965149e+01	5.636825e+02
2.040000e-06	4.128615e-06	8.668266e-09	2.949239e+01	5.626544e+02
2.050000e-06	4.105068e-06	8.562978e-09	2.932418e+01	5.614186e+02
2.060000e-06	4.080729e-06	8.448814e-09	2.915031e+01	5.599243e+02
2.070000e-06	4.055277e-06	8.594489e-09	2.896850e+01	5.581865e+02
2.080000e-06	4.028892e-06	8.489016e-09	2.878002e+01	5.562747e+02
2.090000e-06	4.001526e-06	8.375101e-09	2.858453e+01	5.542773e+02
2.100000e-06	3.972760e-06	8.443776e-09	2.837905e+01	5.522602e+02
2.110000e-06	3.942787e-06	8.326926e-09	2.816494e+01	5.502437e+02
2.120000e-06	3.911638e-06	8.335346e-09	2.794243e+01	5.482056e+02
2.130000e-06	3.879149e-06	8.366392e-09	2.771035e+01	5.461056e+02
2.140000e-06	3.845657e-06	8.204021e-09	2.747110e+01	5.439150e+02
2.150000e-06	3.811226e-06	8.269904e-09	2.722514e+01	5.416320e+02
2.160000e-06	3.775837e-06	8.287492e-09	2.697235e+01	5.392763e+02
2.170000e-06	3.739495e-06	8.087043e-09	2.671274e+01	5.368686e+02
2.180000e-06	3.701608e-06	8.117140e-09	2.644210e+01	5.344094e+02
2.190000e-06	3.662325e-06	8.125238e-09	2.616148e+01	5.318720e+02
2.200000e-06	3.622214e-06	8.035972e-09	2.587495e+01	5.292153e+02
2.210000e-06	3.581081e-06	8.055810e-09	2.558113e+01	5.264076e+02
2.220000e-06	3.538961e-06	7.966982e-09	2.528025e+01	5.234473e+02
2.230000e-06	3.495988e-06	7.909207e-09	2.497327e+01	5.203675e+02
2.240000e-06	3.452178e-06	7.911995e-09	2.466032e+01	5.172195e+02
2.250000e-06	3.407411e-06	7.829204e-09	2.434053e+01	5.140459e+02
2.260000e-06	3.361523e-06	7.763588e-09	2.401273e+01	5.108570e+02
2.270000e-06	3.314731e-06	7.718518e-09	2.367848e+01	5.076241e+02
2.280000e-06	3.267037e-06	7.703142e-09	2.333778e+01	5.042935e+02
2.290000e-06	3.218292e-06	7.651059e-09	2.298958e+01	5.008129e+02
2.300000e-06	3.168560e-06	7.556373e-09	2.263432e+01	4.971565e+02
2.310000e-06	3.117939e-06	7.517018e-09	2.227271e+01	4.933356e+02
2.320000e-06	3.066526e-06	7.460303e-09	2.190545e+01	4.893898e+02
2.330000e-06	3.014160e-06	7.403844e-09	2.153137e+01	4.853651e+02
2.340000e-06	2.960552e-06	7.342062e-09	2.114843e+01	4.812903e+02
2.350000e-06	2.905788e-06	7.262261e-09	2.075723e+01	4.771639e+02
2.360000e-06	2.850219e-06	7.222856e-09	2.036028e+01	4.729572e+02
2.370000e-06	2.794046e-06	7.141059e-09	1.995901e+01	4.686295e+02
2.380000e-06	2.737180e-06	7.064189e-09	1.955280e+01	4.641478e+02
2.390000e-06	2.679565e-06	7.014389e-09	1.914123e+01	4.595011e+02
2.400000e-06	2.621201e-06	6.928147e-09	1.872431e+01	4.547021e+02
2.410000e-06	2.562124e-06	6.867293e-09	1.830230e+01	4.497788e+02
2.420000e-06	2.502493e-06	6.797661e-09	1.787633e+01	4.447590e+02
2.430000e-06	2.442318e-06	6.715439e-09	1.744647e+01	4.396574e+02
2.440000e-06	2.381423e-06	6.627944e-09	1.701148e+01	4.344687e+02
2.450000e-06	2.319560e-06	6.538797e-09	1.656956e+01	4.291700e+02
2.460000e-06	2.256715e-06	6.473486e-09	1.612064e+01	4.237297e+02
2.470000e-06	2.193204e-06	6.386684e-09	1.566695e+01	4.181193e+02
2.480000e-06	2.129172e-06	6.296129e-09	1.520955e+01	4.123226e+02
2.490000e-06	2.064587e-06	6.205872e-09	1.474819e+01	4.063404e+02
2.500000e-06	1.999425e-06	6.114134e-09	1.428271e+01	4.001876e+02
2.510000e-06	1.933708e-06	6.025010e-09	1.381326e+01	3.938861e+02
2.520000e-06	1.867462e-06	5.918967e-09	1.334004e+01	3.874555e+02
2.530000e-06	1.800653e-06	5.820520e-09	1.286280e+01	3.809043e+02
2.540000e-06	1.733345e-06	5.724934e-09	1.238199e+01	3.742270e+02
2.550000e-06	1.665667e-06	5.621753e-09	1.189854e+01	3.674056e+02
2.560000e-06	1.597620e-06	5.514677e-09	1.141245e+01	3.604157e+02
2.570000e-06	1.529177e-06	5.397901e-09	1.092354e+01	3.532333e+02
2.580000e-06	1.460158e-06	5.288796e-09	1.043051e+01	3.458416e+02
2.590000e-06	1.390425e-06	5.181949e-09	9.932372e+00	3.382330e+02
2.600000e-06	1.320023e-06	5.067787e-09	9.429461e+00	3.304089e+02
2.610000e-06	1.249021e-06	4.945530e-09	8.922264e+00	3.223782e+02
2.620000e-06	1.177639e-06	4.817813e-09	8.412357e+00	3.141538e+02
2.630000e-06	1.106087e-06	4.693416e-09	7.901229e+00	3.057502e+02
2.640000e-06	1.034392e-06	4.562016e-09	7.389088e+00	2.971792e+02
2.650000e-06	9.625509e-07	4.424490e-09	6.875894e+00	2.884448e+02
2.660000e-06	8.905703e-07	4.286414e-09	6.361708e+00	2.795379e+02
2.670000e-06	8.183721e-07	4.154719e-09	5.845967e+00	2.704345e+02
2.680000e-06	7.459182e-07	4.022425e-09	5.328399e+00	2.610995e+02
2.690000e-06	6.732830e-07	3.874924e-09	4.809536e+00	2.514986e+02
2.700000e-06	6.004973e-07	3.721358e-09	4.289597e+00	2.416131e+02
2.710000e-06	5.275723e-07	3.565165e-09	3.768665e+00	2.314508e+02
2.720000e-06	4.545376e-07	3.409166e-09	3.246948e+00	2.210452e+02
2.730000e-06	3.813688e-07	3.249371e-09	2.724273e+00	2.104406e+02
2.740000e-06	3.080977e-07	3.084111e-09	2.200868e+00	1.996674e+02
2.750000e-06	2.347965e-07	2.920961e-09	1.677248e+00	1.887196e+02
2.760000e-06	1.614703e-07	2.757302e-09	1.153448e+00	1.775481e+02
2.770000e-06	8.811713e-08	2.586673e-09	6.294567e-01	1.660766e+02
2.780000e-06	1.472425e-08	2.403480e-09	1.051813e-01	1.542351e+02
2.790000e-06	-5.869044e-08	2.213290e-09	-4.192498e-01	1.419949e+02
2.800000e-06	-1.320740e-07	2.019976e-09	-9.434584e-01	1.293875e+02
2.810000e-06	-2.054345e-07	1.824141e-09	-1.467503e+00	1.164931e+02
2.820000e-06	-2.787364e-07	1.627008e-09	-1.991128e+00	1.034029e+02
2.830000e-06	-3.519359e-07	1.426690e-09	-2.514022e+00	9.017143e+01
2.840000e-06	-4.250418e-07	1.223425e-09	-3.036247e+00	7.678504e+01
2.850000e-06	-4.980734e-07	1.017310e-09	-3.557942e+00	6.316350e+01
2.860000e-06	-5.709700e-07	8.054812e-10	-4.078672e+00	4.919726e+01
2.870000e-06	-6.436938e-07	5.847416e-10	-4.598168e+00	3.480291e+01
2.880000e-06	-7.162779e-07	3.560126e-10	-5.116666e+00	1.996928e+01
2.890000e-06	-7.886612e-07	1.235119e-10	-5.633729e+00	4.770143e+00
2.900000e-06	-8.608575e-07	-1.094160e-10	-6.149457e+00	-1.066359e+01
2.910000e-06	-9.328654e-07	-3.448148e-10	-6.663839e+00	-2.619842e+01
2.920000e-06	-1.004671e-06	-5.832041e-10	-7.176776e+00	-4.175177e+01
2.930000e-06	-1.076324e-06	-8.218058e-10	-7.688624e+00	-5.731749e+01
2.940000e-06	-1.147815e-06	-1.060085e-09	-8.199313e+00	-7.295140e+01
2.950000e-06	-1.219027e-06	-1.300216e-09	-8.708007e+00	-8.872557e+01
