# Temperatura_=_20.0
# Concentracion g/m^3_=_10000.0
# C_Vs_to_Am_M_A/Vsm_=_65563218390.804596
# pendiente_HvsI_1/m_=_3716.3
# ordenada_HvsI_A/m_=_1297.0
# frecuencia_Hz_=_269365.34515779465

Tiempo_(s)	Campo_(V.s)	Magnetizacion_(V.s)	Campo_(kA/m)	Magnetizacion_(A/m)
0.000000e+00	-4.322907e-06	-8.746368e-09	-3.089794e+01	-5.699182e+02
1.000000e-08	-4.321814e-06	-8.746756e-09	-3.089013e+01	-5.699007e+02
2.000000e-08	-4.319314e-06	-8.744167e-09	-3.087226e+01	-5.697704e+02
3.000000e-08	-4.315485e-06	-8.740569e-09	-3.084489e+01	-5.695269e+02
4.000000e-08	-4.310649e-06	-8.737584e-09	-3.081032e+01	-5.691885e+02
5.000000e-08	-4.304780e-06	-8.730705e-09	-3.076837e+01	-5.687849e+02
6.000000e-08	-4.297732e-06	-8.715890e-09	-3.071800e+01	-5.683416e+02
7.000000e-08	-4.289640e-06	-8.686229e-09	-3.066016e+01	-5.678631e+02
8.000000e-08	-4.280363e-06	-8.684224e-09	-3.059386e+01	-5.673276e+02
9.000000e-08	-4.269273e-06	-8.753952e-09	-3.051459e+01	-5.666973e+02
1.000000e-07	-4.256325e-06	-8.763667e-09	-3.042205e+01	-5.659404e+02
1.100000e-07	-4.241926e-06	-8.678863e-09	-3.031913e+01	-5.650537e+02
1.200000e-07	-4.226307e-06	-8.500781e-09	-3.020749e+01	-5.640698e+02
1.300000e-07	-4.209621e-06	-8.591170e-09	-3.008823e+01	-5.630459e+02
1.400000e-07	-4.191853e-06	-8.791160e-09	-2.996123e+01	-5.620360e+02
1.500000e-07	-4.173011e-06	-8.535344e-09	-2.982656e+01	-5.610638e+02
1.600000e-07	-4.153337e-06	-8.454125e-09	-2.968594e+01	-5.601097e+02
1.700000e-07	-4.132610e-06	-8.699158e-09	-2.953779e+01	-5.591198e+02
1.800000e-07	-4.110671e-06	-8.549154e-09	-2.938098e+01	-5.580323e+02
1.900000e-07	-4.087890e-06	-8.378421e-09	-2.921816e+01	-5.568057e+02
2.000000e-07	-4.064199e-06	-8.594878e-09	-2.904882e+01	-5.554334e+02
2.100000e-07	-4.039239e-06	-8.450253e-09	-2.887043e+01	-5.539381e+02
2.200000e-07	-4.012911e-06	-8.266989e-09	-2.868225e+01	-5.523502e+02
2.300000e-07	-3.985312e-06	-8.513419e-09	-2.848498e+01	-5.506849e+02
2.400000e-07	-3.956652e-06	-8.446620e-09	-2.828013e+01	-5.489324e+02
2.500000e-07	-3.927020e-06	-8.266599e-09	-2.806834e+01	-5.470656e+02
2.600000e-07	-3.896210e-06	-8.349304e-09	-2.784813e+01	-5.450615e+02
2.700000e-07	-3.864357e-06	-8.260905e-09	-2.762046e+01	-5.429200e+02
2.800000e-07	-3.831741e-06	-8.227567e-09	-2.738733e+01	-5.406684e+02
2.900000e-07	-3.797911e-06	-8.265682e-09	-2.714554e+01	-5.383489e+02
3.000000e-07	-3.762575e-06	-8.100041e-09	-2.689297e+01	-5.359956e+02
3.100000e-07	-3.726106e-06	-8.130951e-09	-2.663231e+01	-5.336156e+02
3.200000e-07	-3.688641e-06	-8.191361e-09	-2.636453e+01	-5.311863e+02
3.300000e-07	-3.650099e-06	-8.043729e-09	-2.608905e+01	-5.286697e+02
3.400000e-07	-3.610466e-06	-7.989864e-09	-2.580577e+01	-5.260347e+02
3.500000e-07	-3.569986e-06	-7.982881e-09	-2.551645e+01	-5.232744e+02
3.600000e-07	-3.528540e-06	-7.900625e-09	-2.522021e+01	-5.204067e+02
3.700000e-07	-3.485640e-06	-7.902741e-09	-2.491358e+01	-5.174591e+02
3.800000e-07	-3.441515e-06	-7.878284e-09	-2.459820e+01	-5.144486e+02
3.900000e-07	-3.396455e-06	-7.752148e-09	-2.427613e+01	-5.113678e+02
4.000000e-07	-3.350506e-06	-7.728450e-09	-2.394771e+01	-5.081881e+02
4.100000e-07	-3.303660e-06	-7.735513e-09	-2.361288e+01	-5.048769e+02
4.200000e-07	-3.255875e-06	-7.643996e-09	-2.327133e+01	-5.014186e+02
4.300000e-07	-3.207169e-06	-7.542400e-09	-2.292321e+01	-4.978261e+02
4.400000e-07	-3.157198e-06	-7.521279e-09	-2.256604e+01	-4.941351e+02
4.500000e-07	-3.105863e-06	-7.485226e-09	-2.219912e+01	-4.903848e+02
4.600000e-07	-3.053565e-06	-7.432221e-09	-2.182533e+01	-4.865954e+02
4.700000e-07	-3.000420e-06	-7.354726e-09	-2.144547e+01	-4.827565e+02
4.800000e-07	-2.946382e-06	-7.266951e-09	-2.105924e+01	-4.788307e+02
4.900000e-07	-2.891525e-06	-7.232635e-09	-2.066715e+01	-4.747723e+02
5.000000e-07	-2.835955e-06	-7.182521e-09	-2.026997e+01	-4.705479e+02
5.100000e-07	-2.779870e-06	-7.100881e-09	-1.986910e+01	-4.661508e+02
5.200000e-07	-2.723165e-06	-7.018883e-09	-1.946380e+01	-4.616005e+02
5.300000e-07	-2.665354e-06	-6.955412e-09	-1.905060e+01	-4.569307e+02
5.400000e-07	-2.606438e-06	-6.895578e-09	-1.862949e+01	-4.521732e+02
5.500000e-07	-2.546791e-06	-6.823770e-09	-1.820316e+01	-4.473455e+02
5.600000e-07	-2.486615e-06	-6.724960e-09	-1.777306e+01	-4.424459e+02
5.700000e-07	-2.425812e-06	-6.639830e-09	-1.733847e+01	-4.374567e+02
5.800000e-07	-2.364297e-06	-6.584938e-09	-1.689879e+01	-4.323499e+02
5.900000e-07	-2.302231e-06	-6.515898e-09	-1.645517e+01	-4.270936e+02
6.000000e-07	-2.239569e-06	-6.416155e-09	-1.600730e+01	-4.216594e+02
6.100000e-07	-2.176175e-06	-6.315739e-09	-1.555419e+01	-4.160285e+02
6.200000e-07	-2.112223e-06	-6.240876e-09	-1.509710e+01	-4.101994e+02
6.300000e-07	-2.047821e-06	-6.160458e-09	-1.463679e+01	-4.041926e+02
6.400000e-07	-1.982830e-06	-6.064842e-09	-1.417226e+01	-3.980468e+02
6.500000e-07	-1.917103e-06	-5.953153e-09	-1.370247e+01	-3.918055e+02
6.600000e-07	-1.850539e-06	-5.853968e-09	-1.322671e+01	-3.854965e+02
6.700000e-07	-1.783245e-06	-5.769888e-09	-1.274573e+01	-3.791137e+02
6.800000e-07	-1.715437e-06	-5.671525e-09	-1.226107e+01	-3.726118e+02
6.900000e-07	-1.647286e-06	-5.555733e-09	-1.177396e+01	-3.659211e+02
7.000000e-07	-1.578783e-06	-5.441516e-09	-1.128434e+01	-3.589767e+02
7.100000e-07	-1.509879e-06	-5.346266e-09	-1.079185e+01	-3.517503e+02
7.200000e-07	-1.440561e-06	-5.240858e-09	-1.029640e+01	-3.442659e+02
7.300000e-07	-1.370791e-06	-5.113426e-09	-9.797718e+00	-3.365897e+02
7.400000e-07	-1.300619e-06	-4.980354e-09	-9.296165e+00	-3.287973e+02
7.500000e-07	-1.230062e-06	-4.863304e-09	-8.791856e+00	-3.209335e+02
7.600000e-07	-1.159085e-06	-4.753693e-09	-8.284551e+00	-3.129856e+02
7.700000e-07	-1.087788e-06	-4.629667e-09	-7.774953e+00	-3.048872e+02
7.800000e-07	-1.016243e-06	-4.493431e-09	-7.263590e+00	-2.965483e+02
7.900000e-07	-9.444878e-07	-4.362599e-09	-6.750718e+00	-2.878997e+02
8.000000e-07	-8.725660e-07	-4.239487e-09	-6.236658e+00	-2.789254e+02
8.100000e-07	-8.004598e-07	-4.100897e-09	-5.721279e+00	-2.696680e+02
8.200000e-07	-7.282096e-07	-3.945088e-09	-5.204872e+00	-2.602034e+02
8.300000e-07	-6.558754e-07	-3.787797e-09	-4.687864e+00	-2.505990e+02
8.400000e-07	-5.834549e-07	-3.644453e-09	-4.170239e+00	-2.408798e+02
8.500000e-07	-5.109223e-07	-3.500006e-09	-3.651813e+00	-2.310165e+02
8.600000e-07	-4.383194e-07	-3.342313e-09	-3.132884e+00	-2.209436e+02
8.700000e-07	-3.655859e-07	-3.177525e-09	-2.613022e+00	-2.105924e+02
8.800000e-07	-2.926721e-07	-3.016931e-09	-2.091871e+00	-1.999224e+02
8.900000e-07	-2.197286e-07	-2.858459e-09	-1.570508e+00	-1.889326e+02
9.000000e-07	-1.467633e-07	-2.683909e-09	-1.048990e+00	-1.776514e+02
9.100000e-07	-7.375996e-08	-2.498637e-09	-5.271986e-01	-1.661137e+02
9.200000e-07	-7.439208e-10	-2.315713e-09	-5.317167e-03	-1.543387e+02
9.300000e-07	7.231140e-08	-2.138391e-09	5.168450e-01	-1.423241e+02
9.400000e-07	1.453626e-07	-1.954216e-09	1.038978e+00	-1.300528e+02
9.500000e-07	2.183688e-07	-1.758179e-09	1.560789e+00	-1.175086e+02
9.600000e-07	2.912839e-07	-1.557743e-09	2.081949e+00	-1.046846e+02
9.700000e-07	3.641199e-07	-1.362579e-09	2.602544e+00	-9.158248e+01
9.800000e-07	4.369512e-07	-1.167122e-09	3.123105e+00	-7.820176e+01
9.900000e-07	5.096943e-07	-9.573943e-10	3.643035e+00	-6.453146e+01
1.000000e-06	5.822120e-07	-7.359208e-10	4.161355e+00	-5.055171e+01
1.010000e-06	6.545929e-07	-5.131456e-10	4.678697e+00	-3.624715e+01
1.020000e-06	7.268850e-07	-2.938217e-10	5.195404e+00	-2.162428e+01
1.030000e-06	7.990549e-07	-6.955635e-11	5.711238e+00	-6.720262e+00
1.040000e-06	8.710679e-07	1.631756e-10	6.225950e+00	8.404688e+00
1.050000e-06	9.429300e-07	3.968186e-10	6.739584e+00	2.368945e+01
1.060000e-06	1.014648e-06	6.267571e-10	7.252186e+00	3.909645e+01
1.070000e-06	1.086129e-06	8.586335e-10	7.763099e+00	5.462321e+01
1.080000e-06	1.157270e-06	1.100415e-09	8.271578e+00	7.029241e+01
1.090000e-06	1.228088e-06	1.347198e-09	8.777747e+00	8.612431e+01
1.100000e-06	1.298571e-06	1.590482e-09	9.281522e+00	1.021065e+02
1.110000e-06	1.368676e-06	1.830136e-09	9.782599e+00	1.181784e+02
1.120000e-06	1.438442e-06	2.073913e-09	1.028125e+01	1.342407e+02
1.130000e-06	1.507744e-06	2.318983e-09	1.077659e+01	1.501852e+02
1.140000e-06	1.576507e-06	2.559555e-09	1.126807e+01	1.659293e+02
1.150000e-06	1.644877e-06	2.791922e-09	1.175674e+01	1.814364e+02
1.160000e-06	1.712949e-06	3.019365e-09	1.224329e+01	1.967114e+02
1.170000e-06	1.780582e-06	3.248023e-09	1.272669e+01	2.117750e+02
1.180000e-06	1.847592e-06	3.475830e-09	1.320564e+01	2.266309e+02
1.190000e-06	1.913855e-06	3.696713e-09	1.367926e+01	2.412454e+02
1.200000e-06	1.979269e-06	3.910854e-09	1.414681e+01	2.555490e+02
1.210000e-06	2.043969e-06	4.122740e-09	1.460925e+01	2.694577e+02
1.220000e-06	2.108183e-06	4.329186e-09	1.506822e+01	2.829033e+02
1.230000e-06	2.171968e-06	4.523959e-09	1.552412e+01	2.958536e+02
1.240000e-06	2.235294e-06	4.707546e-09	1.597674e+01	3.083160e+02
1.250000e-06	2.298016e-06	4.886150e-09	1.642505e+01	3.203237e+02
1.260000e-06	2.360041e-06	5.062498e-09	1.686837e+01	3.319155e+02
1.270000e-06	2.421391e-06	5.233917e-09	1.730687e+01	3.431200e+02
1.280000e-06	2.482137e-06	5.397976e-09	1.774105e+01	3.539513e+02
1.290000e-06	2.542378e-06	5.557955e-09	1.817162e+01	3.644148e+02
1.300000e-06	2.602116e-06	5.714117e-09	1.859860e+01	3.745150e+02
1.310000e-06	2.661057e-06	5.864557e-09	1.901988e+01	3.842593e+02
1.320000e-06	2.718874e-06	6.006842e-09	1.943313e+01	3.936552e+02
1.330000e-06	2.775677e-06	6.142324e-09	1.983913e+01	4.027039e+02
1.340000e-06	2.831776e-06	6.274716e-09	2.024009e+01	4.113975e+02
1.350000e-06	2.887295e-06	6.403915e-09	2.063691e+01	4.197221e+02
1.360000e-06	2.942110e-06	6.525064e-09	2.102870e+01	4.276677e+02
1.370000e-06	2.996109e-06	6.637007e-09	2.141466e+01	4.352359e+02
1.380000e-06	3.049252e-06	6.743679e-09	2.179450e+01	4.424430e+02
1.390000e-06	3.101501e-06	6.847119e-09	2.216795e+01	4.493144e+02
1.400000e-06	3.152681e-06	6.945476e-09	2.253376e+01	4.558751e+02
1.410000e-06	3.202569e-06	7.038519e-09	2.289033e+01	4.621425e+02
1.420000e-06	3.251293e-06	7.128386e-09	2.323859e+01	4.681268e+02
1.430000e-06	3.299139e-06	7.214083e-09	2.358057e+01	4.738380e+02
1.440000e-06	3.346124e-06	7.296291e-09	2.391639e+01	4.792944e+02
1.450000e-06	3.392210e-06	7.375817e-09	2.424579e+01	4.845259e+02
1.460000e-06	3.437384e-06	7.451529e-09	2.456867e+01	4.895675e+02
1.470000e-06	3.481704e-06	7.524207e-09	2.488545e+01	4.944479e+02
1.480000e-06	3.525280e-06	7.593595e-09	2.519691e+01	4.991786e+02
1.490000e-06	3.567682e-06	7.659996e-09	2.549998e+01	5.037517e+02
1.500000e-06	3.608660e-06	7.725153e-09	2.579286e+01	5.081479e+02
1.510000e-06	3.648577e-06	7.787638e-09	2.607817e+01	5.123504e+02
1.520000e-06	3.687509e-06	7.847657e-09	2.635643e+01	5.163561e+02
1.530000e-06	3.725392e-06	7.905778e-09	2.662720e+01	5.201771e+02
1.540000e-06	3.762311e-06	7.961041e-09	2.689108e+01	5.238316e+02
1.550000e-06	3.798351e-06	8.012174e-09	2.714868e+01	5.273316e+02
1.560000e-06	3.833384e-06	8.060368e-09	2.739908e+01	5.306747e+02
1.570000e-06	3.867025e-06	8.106386e-09	2.763952e+01	5.338472e+02
1.580000e-06	3.899352e-06	8.149012e-09	2.787058e+01	5.368365e+02
1.590000e-06	3.930622e-06	8.188912e-09	2.809409e+01	5.396450e+02
1.600000e-06	3.960921e-06	8.227318e-09	2.831065e+01	5.422948e+02
1.610000e-06	3.990254e-06	8.264944e-09	2.852030e+01	5.448204e+02
1.620000e-06	4.018629e-06	8.300593e-09	2.872312e+01	5.472514e+02
1.630000e-06	4.046004e-06	8.333816e-09	2.891878e+01	5.495956e+02
1.640000e-06	4.071957e-06	8.364623e-09	2.910428e+01	5.518336e+02
1.650000e-06	4.096508e-06	8.392379e-09	2.927976e+01	5.539290e+02
1.660000e-06	4.119976e-06	8.418541e-09	2.944749e+01	5.558486e+02
1.670000e-06	4.142346e-06	8.442865e-09	2.960738e+01	5.575823e+02
1.680000e-06	4.163634e-06	8.464597e-09	2.975954e+01	5.591501e+02
1.690000e-06	4.183984e-06	8.485015e-09	2.990499e+01	5.605936e+02
1.700000e-06	4.203335e-06	8.505388e-09	3.004330e+01	5.619559e+02
1.710000e-06	4.221369e-06	8.525292e-09	3.017220e+01	5.632617e+02
1.720000e-06	4.238105e-06	8.543150e-09	3.029182e+01	5.645089e+02
1.730000e-06	4.253607e-06	8.558846e-09	3.040262e+01	5.656742e+02
1.740000e-06	4.267873e-06	8.572912e-09	3.050459e+01	5.667299e+02
1.750000e-06	4.281013e-06	8.585472e-09	3.059850e+01	5.676595e+02
1.760000e-06	4.292923e-06	8.596941e-09	3.068363e+01	5.684656e+02
1.770000e-06	4.303316e-06	8.606534e-09	3.075791e+01	5.691654e+02
1.780000e-06	4.312195e-06	8.614097e-09	3.082137e+01	5.697796e+02
1.790000e-06	4.319863e-06	8.621929e-09	3.087618e+01	5.703227e+02
1.800000e-06	4.326360e-06	8.630819e-09	3.092262e+01	5.707994e+02
1.810000e-06	4.331658e-06	8.639510e-09	3.096048e+01	5.712086e+02
1.820000e-06	4.335935e-06	8.645859e-09	3.099105e+01	5.715492e+02
1.830000e-06	4.339109e-06	8.649714e-09	3.101374e+01	5.718224e+02
1.840000e-06	4.340759e-06	8.652380e-09	3.102554e+01	5.720287e+02
1.850000e-06	4.341020e-06	8.654091e-09	3.102740e+01	5.721622e+02
1.860000e-06	4.340207e-06	8.651889e-09	3.102159e+01	5.722085e+02
1.870000e-06	4.338260e-06	8.645694e-09	3.100768e+01	5.721500e+02
1.880000e-06	4.335240e-06	8.644194e-09	3.098609e+01	5.719765e+02
1.890000e-06	4.331334e-06	8.644151e-09	3.095817e+01	5.716946e+02
1.900000e-06	4.326213e-06	8.642041e-09	3.092157e+01	5.713283e+02
1.910000e-06	4.319572e-06	8.640031e-09	3.087410e+01	5.709079e+02
1.920000e-06	4.311843e-06	8.653269e-09	3.081886e+01	5.704525e+02
1.930000e-06	4.303196e-06	8.660722e-09	3.075706e+01	5.699566e+02
1.940000e-06	4.293358e-06	8.555773e-09	3.068674e+01	5.693904e+02
1.950000e-06	4.281631e-06	8.509724e-09	3.060292e+01	5.687154e+02
1.960000e-06	4.267504e-06	8.568358e-09	3.050195e+01	5.679084e+02
1.970000e-06	4.251894e-06	8.738474e-09	3.039037e+01	5.669799e+02
1.980000e-06	4.235993e-06	8.604530e-09	3.027672e+01	5.659740e+02
1.990000e-06	4.219678e-06	8.357847e-09	3.016011e+01	5.649503e+02
2.000000e-06	4.201880e-06	8.628625e-09	3.003290e+01	5.639542e+02
2.010000e-06	4.182710e-06	8.670345e-09	2.989589e+01	5.629936e+02
2.020000e-06	4.163040e-06	8.362016e-09	2.975529e+01	5.620336e+02
2.030000e-06	4.142152e-06	8.515465e-09	2.960600e+01	5.610141e+02
2.040000e-06	4.119432e-06	8.682345e-09	2.944360e+01	5.598777e+02
2.050000e-06	4.095705e-06	8.358978e-09	2.927401e+01	5.585955e+02
2.060000e-06	4.071107e-06	8.459341e-09	2.909820e+01	5.571736e+02
2.070000e-06	4.045338e-06	8.669572e-09	2.891402e+01	5.556406e+02
2.080000e-06	4.018700e-06	8.332739e-09	2.872362e+01	5.540235e+02
2.090000e-06	3.990925e-06	8.353492e-09	2.852510e+01	5.523281e+02
2.100000e-06	3.961746e-06	8.510392e-09	2.831654e+01	5.505364e+02
2.110000e-06	3.931491e-06	8.289981e-09	2.810029e+01	5.486201e+02
2.120000e-06	3.899931e-06	8.381050e-09	2.787472e+01	5.465631e+02
2.130000e-06	3.867067e-06	8.334983e-09	2.763983e+01	5.443761e+02
2.140000e-06	3.833377e-06	8.171870e-09	2.739902e+01	5.420942e+02
2.150000e-06	3.798691e-06	8.377383e-09	2.715111e+01	5.397594e+02
2.160000e-06	3.763070e-06	8.208402e-09	2.689651e+01	5.373972e+02
2.170000e-06	3.726375e-06	8.024546e-09	2.663423e+01	5.350028e+02
2.180000e-06	3.688049e-06	8.198342e-09	2.636030e+01	5.325456e+02
2.190000e-06	3.648526e-06	8.095602e-09	2.607780e+01	5.299873e+02
2.200000e-06	3.608153e-06	8.033359e-09	2.578924e+01	5.273049e+02
2.210000e-06	3.566745e-06	8.081224e-09	2.549328e+01	5.245014e+02
2.220000e-06	3.524414e-06	7.922464e-09	2.519071e+01	5.216008e+02
2.230000e-06	3.481241e-06	7.921732e-09	2.488214e+01	5.186290e+02
2.240000e-06	3.437198e-06	7.919326e-09	2.456734e+01	5.155947e+02
2.250000e-06	3.392061e-06	7.816469e-09	2.424472e+01	5.124810e+02
2.260000e-06	3.345799e-06	7.762245e-09	2.391407e+01	5.092555e+02
2.270000e-06	3.298712e-06	7.713804e-09	2.357752e+01	5.058897e+02
2.280000e-06	3.250647e-06	7.725212e-09	2.323397e+01	5.023782e+02
2.290000e-06	3.201494e-06	7.628149e-09	2.288265e+01	4.987441e+02
2.300000e-06	3.151468e-06	7.537112e-09	2.252509e+01	4.950270e+02
2.310000e-06	3.100596e-06	7.515099e-09	2.216148e+01	4.912614e+02
2.320000e-06	3.048935e-06	7.447492e-09	2.179224e+01	4.874566e+02
2.330000e-06	2.996205e-06	7.425247e-09	2.141535e+01	4.835907e+02
2.340000e-06	2.942112e-06	7.327863e-09	2.102872e+01	4.796205e+02
2.350000e-06	2.886984e-06	7.244190e-09	2.063469e+01	4.755026e+02
2.360000e-06	2.831235e-06	7.227868e-09	2.023622e+01	4.712129e+02
2.370000e-06	2.774935e-06	7.131729e-09	1.983382e+01	4.667552e+02
2.380000e-06	2.717867e-06	7.070852e-09	1.942593e+01	4.621560e+02
2.390000e-06	2.659987e-06	6.996031e-09	1.901224e+01	4.574504e+02
2.400000e-06	2.601365e-06	6.911094e-09	1.859323e+01	4.526658e+02
2.410000e-06	2.542142e-06	6.878841e-09	1.816993e+01	4.478124e+02
2.420000e-06	2.482463e-06	6.790466e-09	1.774339e+01	4.428823e+02
2.430000e-06	2.422201e-06	6.703322e-09	1.731266e+01	4.378528e+02
2.440000e-06	2.361123e-06	6.613077e-09	1.687611e+01	4.326938e+02
2.450000e-06	2.299034e-06	6.541770e-09	1.643232e+01	4.273740e+02
2.460000e-06	2.236033e-06	6.477683e-09	1.598202e+01	4.218676e+02
2.470000e-06	2.172428e-06	6.365386e-09	1.552741e+01	4.161616e+02
2.480000e-06	2.108272e-06	6.280004e-09	1.506886e+01	4.102626e+02
2.490000e-06	2.043510e-06	6.188195e-09	1.460597e+01	4.041986e+02
2.500000e-06	1.978182e-06	6.108045e-09	1.413904e+01	3.980125e+02
2.510000e-06	1.912312e-06	6.018790e-09	1.366823e+01	3.917442e+02
2.520000e-06	1.845849e-06	5.902038e-09	1.319319e+01	3.854107e+02
2.530000e-06	1.778833e-06	5.815160e-09	1.271419e+01	3.789905e+02
2.540000e-06	1.711441e-06	5.723266e-09	1.223251e+01	3.724267e+02
2.550000e-06	1.643716e-06	5.623351e-09	1.174844e+01	3.656473e+02
2.560000e-06	1.575608e-06	5.504634e-09	1.126165e+01	3.585980e+02
2.570000e-06	1.506982e-06	5.383634e-09	1.077114e+01	3.512694e+02
2.580000e-06	1.437659e-06	5.285026e-09	1.027565e+01	3.437041e+02
2.590000e-06	1.367639e-06	5.177297e-09	9.775188e+00	3.359765e+02
2.600000e-06	1.296985e-06	5.054677e-09	9.270187e+00	3.281551e+02
2.610000e-06	1.225854e-06	4.923476e-09	8.761782e+00	3.202647e+02
2.620000e-06	1.154445e-06	4.804712e-09	8.251383e+00	3.122705e+02
2.630000e-06	1.082846e-06	4.689869e-09	7.739629e+00	3.040925e+02
2.640000e-06	1.011157e-06	4.553926e-09	7.227232e+00	2.956434e+02
2.650000e-06	9.393658e-07	4.409492e-09	6.714108e+00	2.868713e+02
2.660000e-06	8.673538e-07	4.270199e-09	6.199403e+00	2.777835e+02
2.670000e-06	7.950835e-07	4.142094e-09	5.682852e+00	2.684392e+02
2.680000e-06	7.226248e-07	4.003875e-09	5.164954e+00	2.589162e+02
2.690000e-06	6.499990e-07	3.847798e-09	4.645862e+00	2.492690e+02
2.700000e-06	5.771668e-07	3.697033e-09	4.125294e+00	2.395019e+02
2.710000e-06	5.041875e-07	3.550620e-09	3.603676e+00	2.295689e+02
2.720000e-06	4.310913e-07	3.401657e-09	3.081221e+00	2.193989e+02
2.730000e-06	3.578822e-07	3.238647e-09	2.557960e+00	2.089310e+02
2.740000e-06	2.846384e-07	3.066737e-09	2.034450e+00	1.981393e+02
2.750000e-06	2.113792e-07	2.900897e-09	1.510831e+00	1.870362e+02
2.760000e-06	1.380922e-07	2.734497e-09	9.870129e-01	1.756555e+02
2.770000e-06	6.474701e-08	2.558258e-09	4.627787e-01	1.640279e+02
2.780000e-06	-8.692508e-09	2.371776e-09	-6.212962e-02	1.521646e+02
2.790000e-06	-8.205393e-08	2.186487e-09	-5.864797e-01	1.400562e+02
2.800000e-06	-1.552828e-07	2.001627e-09	-1.109883e+00	1.276843e+02
2.810000e-06	-2.285194e-07	1.810168e-09	-1.633341e+00	1.150355e+02
2.820000e-06	-3.017614e-07	1.609724e-09	-2.156837e+00	1.021071e+02
2.830000e-06	-3.749428e-07	1.404641e-09	-2.679900e+00	8.890122e+01
2.840000e-06	-4.480227e-07	1.202858e-09	-3.202238e+00	7.541404e+01
2.850000e-06	-5.209544e-07	9.974972e-10	-3.723517e+00	6.163037e+01
2.860000e-06	-5.937168e-07	7.814331e-10	-4.243585e+00	4.752998e+01
2.870000e-06	-6.663542e-07	5.573806e-10	-4.762760e+00	3.310389e+01
2.880000e-06	-7.388795e-07	3.314333e-10	-5.281135e+00	1.836983e+01
2.890000e-06	-8.112334e-07	1.061941e-10	-5.798283e+00	3.375483e+00
2.900000e-06	-8.833292e-07	-1.239014e-10	-6.313587e+00	-1.181556e+01
2.910000e-06	-9.552277e-07	-3.622048e-10	-6.827481e+00	-2.714853e+01
2.920000e-06	-1.026992e-06	-6.006619e-10	-7.340416e+00	-4.259873e+01
2.930000e-06	-1.098562e-06	-8.358887e-10	-7.851964e+00	-5.817546e+01
2.940000e-06	-1.169872e-06	-1.073970e-09	-8.361648e+00	-7.390428e+01
2.950000e-06	-1.240885e-06	-1.318985e-09	-8.869211e+00	-8.979628e+01
