# Temperatura_=_20.0
# Concentracion g/m^3_=_10000.0
# C_Vs_to_Am_M_A/Vsm_=_65563218390.804596
# pendiente_HvsI_1/m_=_3716.3
# ordenada_HvsI_A/m_=_1297.0
# frecuencia_Hz_=_269361.86339296063

Tiempo_(s)	Campo_(V.s)	Magnetizacion_(V.s)	Campo_(kA/m)	Magnetizacion_(A/m)
0.000000e+00	-4.348497e-06	-8.773763e-09	-3.090050e+01	-5.713426e+02
1.000000e-08	-4.347732e-06	-8.773414e-09	-3.089507e+01	-5.712924e+02
2.000000e-08	-4.345690e-06	-8.771727e-09	-3.088056e+01	-5.711698e+02
3.000000e-08	-4.342267e-06	-8.767606e-09	-3.085623e+01	-5.709829e+02
4.000000e-08	-4.337745e-06	-8.762810e-09	-3.082410e+01	-5.707286e+02
5.000000e-08	-4.332229e-06	-8.757809e-09	-3.078490e+01	-5.703983e+02
6.000000e-08	-4.325557e-06	-8.751765e-09	-3.073749e+01	-5.699859e+02
7.000000e-08	-4.317769e-06	-8.741032e-09	-3.068215e+01	-5.694925e+02
8.000000e-08	-4.308853e-06	-8.728741e-09	-3.061880e+01	-5.689242e+02
9.000000e-08	-4.298342e-06	-8.729397e-09	-3.054410e+01	-5.682874e+02
1.000000e-07	-4.285935e-06	-8.736478e-09	-3.045594e+01	-5.675850e+02
1.100000e-07	-4.271848e-06	-8.725518e-09	-3.035583e+01	-5.668184e+02
1.200000e-07	-4.256392e-06	-8.679095e-09	-3.024600e+01	-5.659934e+02
1.300000e-07	-4.239836e-06	-8.634995e-09	-3.012836e+01	-5.651255e+02
1.400000e-07	-4.222251e-06	-8.663666e-09	-3.000340e+01	-5.642377e+02
1.500000e-07	-4.203556e-06	-8.666835e-09	-2.987055e+01	-5.633503e+02
1.600000e-07	-4.183979e-06	-8.596222e-09	-2.973143e+01	-5.624656e+02
1.700000e-07	-4.163554e-06	-8.595173e-09	-2.958630e+01	-5.615570e+02
1.800000e-07	-4.141982e-06	-8.606817e-09	-2.943300e+01	-5.605698e+02
1.900000e-07	-4.119363e-06	-8.540240e-09	-2.927227e+01	-5.594377e+02
2.000000e-07	-4.095891e-06	-8.511037e-09	-2.910548e+01	-5.581072e+02
2.100000e-07	-4.071237e-06	-8.502824e-09	-2.893029e+01	-5.565597e+02
2.200000e-07	-4.045129e-06	-8.450995e-09	-2.874476e+01	-5.548206e+02
2.300000e-07	-4.017778e-06	-8.445944e-09	-2.855040e+01	-5.529488e+02
2.400000e-07	-3.989297e-06	-8.442671e-09	-2.834802e+01	-5.510126e+02
2.500000e-07	-3.959737e-06	-8.387066e-09	-2.813796e+01	-5.490616e+02
2.600000e-07	-3.929173e-06	-8.366668e-09	-2.792078e+01	-5.471088e+02
2.700000e-07	-3.897613e-06	-8.334172e-09	-2.769651e+01	-5.451293e+02
2.800000e-07	-3.865084e-06	-8.271743e-09	-2.746536e+01	-5.430763e+02
2.900000e-07	-3.831362e-06	-8.259664e-09	-2.722573e+01	-5.409048e+02
3.000000e-07	-3.796266e-06	-8.229841e-09	-2.697634e+01	-5.385917e+02
3.100000e-07	-3.760005e-06	-8.167905e-09	-2.671867e+01	-5.361450e+02
3.200000e-07	-3.722652e-06	-8.156358e-09	-2.645323e+01	-5.335969e+02
3.300000e-07	-3.684201e-06	-8.132534e-09	-2.618000e+01	-5.309873e+02
3.400000e-07	-3.644775e-06	-8.062069e-09	-2.589984e+01	-5.283450e+02
3.500000e-07	-3.604394e-06	-8.012731e-09	-2.561289e+01	-5.256754e+02
3.600000e-07	-3.562847e-06	-7.975159e-09	-2.531766e+01	-5.229578e+02
3.700000e-07	-3.519990e-06	-7.929554e-09	-2.501312e+01	-5.201547e+02
3.800000e-07	-3.475967e-06	-7.891521e-09	-2.470029e+01	-5.172258e+02
3.900000e-07	-3.430966e-06	-7.842662e-09	-2.438051e+01	-5.141436e+02
4.000000e-07	-3.385039e-06	-7.784535e-09	-2.405415e+01	-5.109028e+02
4.100000e-07	-3.338175e-06	-7.746508e-09	-2.372113e+01	-5.075216e+02
4.200000e-07	-3.290447e-06	-7.697035e-09	-2.338198e+01	-5.040350e+02
4.300000e-07	-3.241734e-06	-7.623015e-09	-2.303582e+01	-5.004807e+02
4.400000e-07	-3.191705e-06	-7.567254e-09	-2.268032e+01	-4.968852e+02
4.500000e-07	-3.140366e-06	-7.525117e-09	-2.231550e+01	-4.932524e+02
4.600000e-07	-3.088049e-06	-7.468470e-09	-2.194374e+01	-4.895615e+02
4.700000e-07	-3.034875e-06	-7.402834e-09	-2.156588e+01	-4.857735e+02
4.800000e-07	-2.980830e-06	-7.338371e-09	-2.118184e+01	-4.818455e+02
4.900000e-07	-2.925944e-06	-7.278890e-09	-2.079182e+01	-4.777464e+02
5.000000e-07	-2.870374e-06	-7.217792e-09	-2.039694e+01	-4.734692e+02
5.100000e-07	-2.814275e-06	-7.147152e-09	-1.999829e+01	-4.690328e+02
5.200000e-07	-2.757475e-06	-7.078286e-09	-1.959467e+01	-4.644748e+02
5.300000e-07	-2.699667e-06	-7.011483e-09	-1.918388e+01	-4.598360e+02
5.400000e-07	-2.640784e-06	-6.937761e-09	-1.876546e+01	-4.551438e+02
5.500000e-07	-2.581103e-06	-6.861794e-09	-1.834136e+01	-4.504015e+02
5.600000e-07	-2.520819e-06	-6.786779e-09	-1.791299e+01	-4.455859e+02
5.700000e-07	-2.459894e-06	-6.706679e-09	-1.748005e+01	-4.406553e+02
5.800000e-07	-2.398341e-06	-6.625775e-09	-1.704266e+01	-4.355634e+02
5.900000e-07	-2.336187e-06	-6.549071e-09	-1.660099e+01	-4.302755e+02
6.000000e-07	-2.273371e-06	-6.468062e-09	-1.615462e+01	-4.247790e+02
6.100000e-07	-2.209911e-06	-6.380609e-09	-1.570367e+01	-4.190882e+02
6.200000e-07	-2.145914e-06	-6.293254e-09	-1.524890e+01	-4.132388e+02
6.300000e-07	-2.081307e-06	-6.204878e-09	-1.478981e+01	-4.072757e+02
6.400000e-07	-2.015930e-06	-6.111862e-09	-1.432524e+01	-4.012363e+02
6.500000e-07	-1.949749e-06	-6.015715e-09	-1.385495e+01	-3.951352e+02
6.600000e-07	-1.882789e-06	-5.917560e-09	-1.337913e+01	-3.889564e+02
6.700000e-07	-1.815282e-06	-5.819240e-09	-1.289943e+01	-3.826557e+02
6.800000e-07	-1.747438e-06	-5.719071e-09	-1.241733e+01	-3.761751e+02
6.900000e-07	-1.679201e-06	-5.616169e-09	-1.193244e+01	-3.694643e+02
7.000000e-07	-1.610566e-06	-5.512727e-09	-1.144472e+01	-3.625007e+02
7.100000e-07	-1.541460e-06	-5.406928e-09	-1.095364e+01	-3.552990e+02
7.200000e-07	-1.471931e-06	-5.294659e-09	-1.045957e+01	-3.479043e+02
7.300000e-07	-1.402002e-06	-5.175433e-09	-9.962651e+00	-3.403712e+02
7.400000e-07	-1.331553e-06	-5.053180e-09	-9.462041e+00	-3.327354e+02
7.500000e-07	-1.260661e-06	-4.929696e-09	-8.958278e+00	-3.249943e+02
7.600000e-07	-1.189389e-06	-4.806529e-09	-8.451819e+00	-3.171045e+02
7.700000e-07	-1.117815e-06	-4.683577e-09	-7.943213e+00	-3.089995e+02
7.800000e-07	-1.046082e-06	-4.557847e-09	-7.433480e+00	-3.006200e+02
7.900000e-07	-9.741973e-07	-4.427216e-09	-6.922664e+00	-2.919415e+02
8.000000e-07	-9.021254e-07	-4.291291e-09	-6.410520e+00	-2.829851e+02
8.100000e-07	-8.299060e-07	-4.151255e-09	-5.897328e+00	-2.738059e+02
8.200000e-07	-7.575075e-07	-4.006622e-09	-5.382863e+00	-2.644637e+02
8.300000e-07	-6.849060e-07	-3.857100e-09	-4.866955e+00	-2.549923e+02
8.400000e-07	-6.121260e-07	-3.706786e-09	-4.349779e+00	-2.453821e+02
8.500000e-07	-5.391402e-07	-3.557348e-09	-3.831140e+00	-2.355847e+02
8.600000e-07	-4.658774e-07	-3.405614e-09	-3.310534e+00	-2.255369e+02
8.700000e-07	-3.923971e-07	-3.247120e-09	-2.788381e+00	-2.151891e+02
8.800000e-07	-3.188474e-07	-3.082375e-09	-2.265736e+00	-2.045247e+02
8.900000e-07	-2.451787e-07	-2.914300e-09	-1.742244e+00	-1.935596e+02
9.000000e-07	-1.714308e-07	-2.741362e-09	-1.218190e+00	-1.823256e+02
9.100000e-07	-9.769847e-08	-2.564181e-09	-6.942472e-01	-1.708487e+02
9.200000e-07	-2.394387e-08	-2.384877e-09	-1.701456e-01	-1.591352e+02
9.300000e-07	4.985213e-08	-2.201726e-09	3.542502e-01	-1.471728e+02
9.400000e-07	1.236621e-07	-2.014907e-09	8.787452e-01	-1.349436e+02
9.500000e-07	1.973751e-07	-1.824415e-09	1.402551e+00	-1.224383e+02
9.600000e-07	2.710145e-07	-1.629113e-09	1.925834e+00	-1.096610e+02
9.700000e-07	3.445797e-07	-1.430541e-09	2.448590e+00	-9.662103e+01
9.800000e-07	4.180755e-07	-1.229132e-09	2.970853e+00	-8.331843e+01
9.900000e-07	4.914480e-07	-1.023376e-09	3.492239e+00	-6.973441e+01
1.000000e-06	5.646080e-07	-8.091622e-10	4.012115e+00	-5.583620e+01
1.010000e-06	6.375472e-07	-5.873705e-10	4.530423e+00	-4.159602e+01
1.020000e-06	7.102697e-07	-3.616594e-10	5.047190e+00	-2.701371e+01
1.030000e-06	7.828327e-07	-1.336864e-10	5.562824e+00	-1.212840e+01
1.040000e-06	8.552122e-07	9.586169e-11	6.077154e+00	2.990186e+00
1.050000e-06	9.273797e-07	3.266885e-10	6.589978e+00	1.826847e+01
1.060000e-06	9.993460e-07	5.582751e-10	7.101372e+00	3.365972e+01
1.070000e-06	1.071144e-06	7.916526e-10	7.611567e+00	4.916049e+01
1.080000e-06	1.142744e-06	1.029302e-09	8.120363e+00	6.480181e+01
1.090000e-06	1.214058e-06	1.272738e-09	8.627116e+00	8.061798e+01
1.100000e-06	1.284961e-06	1.518387e-09	9.130957e+00	9.660950e+01
1.110000e-06	1.355448e-06	1.764353e-09	9.631838e+00	1.127211e+02
1.120000e-06	1.425589e-06	2.009742e-09	1.013027e+01	1.288479e+02
1.130000e-06	1.495382e-06	2.252417e-09	1.062621e+01	1.448687e+02
1.140000e-06	1.564752e-06	2.491777e-09	1.111916e+01	1.606869e+02
1.150000e-06	1.633660e-06	2.729024e-09	1.160882e+01	1.762599e+02
1.160000e-06	1.702100e-06	2.962362e-09	1.209516e+01	1.915986e+02
1.170000e-06	1.770094e-06	3.191394e-09	1.257832e+01	2.067393e+02
1.180000e-06	1.837717e-06	3.417468e-09	1.305885e+01	2.217035e+02
1.190000e-06	1.904842e-06	3.639946e-09	1.353584e+01	2.364672e+02
1.200000e-06	1.971158e-06	3.859203e-09	1.400709e+01	2.509566e+02
1.210000e-06	2.036602e-06	4.071762e-09	1.447214e+01	2.650709e+02
1.220000e-06	2.101318e-06	4.277530e-09	1.493201e+01	2.787191e+02
1.230000e-06	2.165451e-06	4.475474e-09	1.538774e+01	2.918522e+02
1.240000e-06	2.229100e-06	4.664271e-09	1.584003e+01	3.044733e+02
1.250000e-06	2.292209e-06	4.845556e-09	1.628848e+01	3.166251e+02
1.260000e-06	2.354680e-06	5.021824e-09	1.673240e+01	3.283637e+02
1.270000e-06	2.416538e-06	5.194212e-09	1.717196e+01	3.397335e+02
1.280000e-06	2.477794e-06	5.363185e-09	1.760725e+01	3.507555e+02
1.290000e-06	2.538436e-06	5.527249e-09	1.803817e+01	3.614298e+02
1.300000e-06	2.598545e-06	5.684573e-09	1.846531e+01	3.717478e+02
1.310000e-06	2.658109e-06	5.836676e-09	1.888857e+01	3.817014e+02
1.320000e-06	2.716858e-06	5.983046e-09	1.930605e+01	3.912860e+02
1.330000e-06	2.774497e-06	6.122847e-09	1.971563e+01	4.004975e+02
1.340000e-06	2.831093e-06	6.256058e-09	2.011780e+01	4.093285e+02
1.350000e-06	2.886970e-06	6.384703e-09	2.051486e+01	4.177713e+02
1.360000e-06	2.942228e-06	6.507635e-09	2.090753e+01	4.258255e+02
1.370000e-06	2.996719e-06	6.623372e-09	2.129474e+01	4.335056e+02
1.380000e-06	3.050388e-06	6.731236e-09	2.167612e+01	4.408412e+02
1.390000e-06	3.103209e-06	6.833730e-09	2.205146e+01	4.478673e+02
1.400000e-06	3.155115e-06	6.934284e-09	2.242031e+01	4.546092e+02
1.410000e-06	3.205894e-06	7.031949e-09	2.278114e+01	4.610720e+02
1.420000e-06	3.255326e-06	7.125028e-09	2.313241e+01	4.672426e+02
1.430000e-06	3.303602e-06	7.211815e-09	2.347546e+01	4.731063e+02
1.440000e-06	3.350988e-06	7.295222e-09	2.381219e+01	4.786676e+02
1.450000e-06	3.397518e-06	7.376197e-09	2.414282e+01	4.839631e+02
1.460000e-06	3.443155e-06	7.453767e-09	2.446712e+01	4.890552e+02
1.470000e-06	3.487925e-06	7.527179e-09	2.478526e+01	4.940082e+02
1.480000e-06	3.531907e-06	7.596723e-09	2.509780e+01	4.988579e+02
1.490000e-06	3.574909e-06	7.665806e-09	2.540337e+01	5.035934e+02
1.500000e-06	3.616574e-06	7.733956e-09	2.569944e+01	5.081625e+02
1.510000e-06	3.657007e-06	7.798615e-09	2.598677e+01	5.124998e+02
1.520000e-06	3.696499e-06	7.859563e-09	2.626739e+01	5.165637e+02
1.530000e-06	3.735027e-06	7.917781e-09	2.654118e+01	5.203610e+02
1.540000e-06	3.772486e-06	7.973345e-09	2.680735e+01	5.239458e+02
1.550000e-06	3.808921e-06	8.024868e-09	2.706626e+01	5.273914e+02
1.560000e-06	3.844388e-06	8.073022e-09	2.731830e+01	5.307521e+02
1.570000e-06	3.878672e-06	8.119744e-09	2.756192e+01	5.340356e+02
1.580000e-06	3.911631e-06	8.165665e-09	2.779613e+01	5.372017e+02
1.590000e-06	3.943481e-06	8.209222e-09	2.802245e+01	5.401880e+02
1.600000e-06	3.974352e-06	8.248872e-09	2.824182e+01	5.429483e+02
1.610000e-06	4.004170e-06	8.285821e-09	2.845371e+01	5.454805e+02
1.620000e-06	4.032949e-06	8.323092e-09	2.865821e+01	5.478290e+02
1.630000e-06	4.060769e-06	8.359204e-09	2.885590e+01	5.500607e+02
1.640000e-06	4.087357e-06	8.390610e-09	2.904484e+01	5.522283e+02
1.650000e-06	4.112486e-06	8.417225e-09	2.922340e+01	5.543435e+02
1.660000e-06	4.136336e-06	8.442292e-09	2.939288e+01	5.563733e+02
1.670000e-06	4.159103e-06	8.468145e-09	2.955466e+01	5.582631e+02
1.680000e-06	4.180829e-06	8.492297e-09	2.970905e+01	5.599700e+02
1.690000e-06	4.201553e-06	8.512887e-09	2.985632e+01	5.614894e+02
1.700000e-06	4.221340e-06	8.531494e-09	2.999692e+01	5.628577e+02
1.710000e-06	4.239990e-06	8.550973e-09	3.012945e+01	5.641323e+02
1.720000e-06	4.257310e-06	8.570104e-09	3.025252e+01	5.653604e+02
1.730000e-06	4.273376e-06	8.587310e-09	3.036669e+01	5.665556e+02
1.740000e-06	4.288202e-06	8.602808e-09	3.047204e+01	5.676943e+02
1.750000e-06	4.301716e-06	8.616517e-09	3.056808e+01	5.687336e+02
1.760000e-06	4.314004e-06	8.628167e-09	3.065540e+01	5.696375e+02
1.770000e-06	4.324979e-06	8.637155e-09	3.073338e+01	5.703983e+02
1.780000e-06	4.334410e-06	8.644340e-09	3.080040e+01	5.710386e+02
1.790000e-06	4.342481e-06	8.651800e-09	3.085775e+01	5.715970e+02
1.800000e-06	4.349421e-06	8.660812e-09	3.090707e+01	5.721053e+02
1.810000e-06	4.355218e-06	8.670240e-09	3.094827e+01	5.725730e+02
1.820000e-06	4.359898e-06	8.677898e-09	3.098152e+01	5.729844e+02
1.830000e-06	4.363454e-06	8.683162e-09	3.100679e+01	5.733115e+02
1.840000e-06	4.365652e-06	8.685929e-09	3.102241e+01	5.735313e+02
1.850000e-06	4.366355e-06	8.685316e-09	3.102740e+01	5.736375e+02
1.860000e-06	4.365826e-06	8.682298e-09	3.102365e+01	5.736414e+02
1.870000e-06	4.364230e-06	8.679004e-09	3.101230e+01	5.735624e+02
1.880000e-06	4.361547e-06	8.677156e-09	3.099323e+01	5.734154e+02
1.890000e-06	4.357887e-06	8.676329e-09	3.096723e+01	5.732041e+02
1.900000e-06	4.353129e-06	8.674005e-09	3.093342e+01	5.729223e+02
1.910000e-06	4.346959e-06	8.670726e-09	3.088957e+01	5.725615e+02
1.920000e-06	4.339484e-06	8.668036e-09	3.083645e+01	5.721183e+02
1.930000e-06	4.330992e-06	8.665548e-09	3.077611e+01	5.715959e+02
1.940000e-06	4.321412e-06	8.647171e-09	3.070804e+01	5.710013e+02
1.950000e-06	4.310221e-06	8.612416e-09	3.062851e+01	5.703398e+02
1.960000e-06	4.296785e-06	8.597276e-09	3.053304e+01	5.696131e+02
1.970000e-06	4.281509e-06	8.619814e-09	3.042448e+01	5.688235e+02
1.980000e-06	4.265579e-06	8.639647e-09	3.031129e+01	5.679800e+02
1.990000e-06	4.249328e-06	8.587013e-09	3.019581e+01	5.671018e+02
2.000000e-06	4.231999e-06	8.555329e-09	3.007266e+01	5.662124e+02
2.010000e-06	4.213199e-06	8.605505e-09	2.993907e+01	5.653272e+02
2.020000e-06	4.193551e-06	8.577824e-09	2.979945e+01	5.644383e+02
2.030000e-06	4.172932e-06	8.524871e-09	2.965293e+01	5.635077e+02
2.040000e-06	4.150637e-06	8.575049e-09	2.949451e+01	5.624739e+02
2.050000e-06	4.127084e-06	8.578635e-09	2.932714e+01	5.612722e+02
2.060000e-06	4.102645e-06	8.515102e-09	2.915347e+01	5.598601e+02
2.070000e-06	4.077053e-06	8.516246e-09	2.897162e+01	5.582356e+02
2.080000e-06	4.050484e-06	8.491730e-09	2.878281e+01	5.564387e+02
2.090000e-06	4.022903e-06	8.437900e-09	2.858682e+01	5.545352e+02
2.100000e-06	3.993978e-06	8.421943e-09	2.838129e+01	5.525894e+02
2.110000e-06	3.963827e-06	8.370164e-09	2.816703e+01	5.506384e+02
2.120000e-06	3.932474e-06	8.349997e-09	2.794424e+01	5.486801e+02
2.130000e-06	3.899858e-06	8.360393e-09	2.771246e+01	5.466790e+02
2.140000e-06	3.866196e-06	8.293064e-09	2.747326e+01	5.445860e+02
2.150000e-06	3.831597e-06	8.262867e-09	2.722740e+01	5.423625e+02
2.160000e-06	3.796067e-06	8.264116e-09	2.697492e+01	5.399968e+02
2.170000e-06	3.759507e-06	8.178335e-09	2.671513e+01	5.375074e+02
2.180000e-06	3.721446e-06	8.125143e-09	2.644467e+01	5.349318e+02
2.190000e-06	3.682026e-06	8.120028e-09	2.616455e+01	5.323076e+02
2.200000e-06	3.641714e-06	8.082762e-09	2.587809e+01	5.296560e+02
2.210000e-06	3.600420e-06	8.045043e-09	2.558465e+01	5.269720e+02
2.220000e-06	3.558162e-06	8.000336e-09	2.528437e+01	5.242272e+02
2.230000e-06	3.514998e-06	7.956786e-09	2.497764e+01	5.213813e+02
2.240000e-06	3.470897e-06	7.923038e-09	2.466426e+01	5.183971e+02
2.250000e-06	3.425801e-06	7.869859e-09	2.434381e+01	5.152547e+02
2.260000e-06	3.379660e-06	7.804784e-09	2.401593e+01	5.119579e+02
2.270000e-06	3.332623e-06	7.753857e-09	2.368168e+01	5.085327e+02
2.280000e-06	3.284635e-06	7.720245e-09	2.334068e+01	5.050165e+02
2.290000e-06	3.235547e-06	7.661792e-09	2.299186e+01	5.014447e+02
2.300000e-06	3.185488e-06	7.589573e-09	2.263614e+01	4.978361e+02
2.310000e-06	3.134566e-06	7.546382e-09	2.227428e+01	4.941852e+02
2.320000e-06	3.082838e-06	7.497741e-09	2.190671e+01	4.904631e+02
2.330000e-06	3.030147e-06	7.436755e-09	2.153228e+01	4.866273e+02
2.340000e-06	2.976187e-06	7.376251e-09	2.114884e+01	4.826377e+02
2.350000e-06	2.921099e-06	7.313246e-09	2.075739e+01	4.784712e+02
2.360000e-06	2.865280e-06	7.252639e-09	2.036073e+01	4.741307e+02
2.370000e-06	2.808863e-06	7.171449e-09	1.995984e+01	4.696438e+02
2.380000e-06	2.751716e-06	7.091474e-09	1.955375e+01	4.650511e+02
2.390000e-06	2.693846e-06	7.034137e-09	1.914252e+01	4.603902e+02
2.400000e-06	2.635282e-06	6.969080e-09	1.872636e+01	4.556804e+02
2.410000e-06	2.576014e-06	6.896724e-09	1.830521e+01	4.509146e+02
2.420000e-06	2.516180e-06	6.826935e-09	1.788002e+01	4.460613e+02
2.430000e-06	2.455749e-06	6.755426e-09	1.745060e+01	4.410753e+02
2.440000e-06	2.394486e-06	6.672768e-09	1.701526e+01	4.359130e+02
2.450000e-06	2.332221e-06	6.583093e-09	1.657280e+01	4.305469e+02
2.460000e-06	2.269069e-06	6.498090e-09	1.612405e+01	4.249745e+02
2.470000e-06	2.205335e-06	6.410235e-09	1.567115e+01	4.192192e+02
2.480000e-06	2.141085e-06	6.320673e-09	1.521459e+01	4.133220e+02
2.490000e-06	2.076169e-06	6.231725e-09	1.475329e+01	4.073269e+02
2.500000e-06	2.010588e-06	6.140547e-09	1.428728e+01	4.012642e+02
2.510000e-06	1.944451e-06	6.049078e-09	1.381730e+01	3.951375e+02
2.520000e-06	1.877814e-06	5.956702e-09	1.334378e+01	3.889194e+02
2.530000e-06	1.810664e-06	5.863635e-09	1.286662e+01	3.825581e+02
2.540000e-06	1.743059e-06	5.763251e-09	1.238621e+01	3.759959e+02
2.550000e-06	1.675039e-06	5.654694e-09	1.190286e+01	3.691910e+02
2.560000e-06	1.606581e-06	5.545405e-09	1.141639e+01	3.621344e+02
2.570000e-06	1.537597e-06	5.435146e-09	1.092619e+01	3.548540e+02
2.580000e-06	1.467890e-06	5.322956e-09	1.043086e+01	3.474014e+02
2.590000e-06	1.397495e-06	5.210342e-09	9.930626e+00	3.398273e+02
2.600000e-06	1.326540e-06	5.099328e-09	9.426422e+00	3.321547e+02
2.610000e-06	1.255118e-06	4.985348e-09	8.918894e+00	3.243648e+02
2.620000e-06	1.183436e-06	4.864258e-09	8.409520e+00	3.164025e+02
2.630000e-06	1.111628e-06	4.736992e-09	7.899249e+00	3.082001e+02
2.640000e-06	1.039667e-06	4.603877e-09	7.387895e+00	2.997089e+02
2.650000e-06	9.675206e-07	4.466891e-09	6.875220e+00	2.909213e+02
2.660000e-06	8.951092e-07	4.329068e-09	6.360663e+00	2.818740e+02
2.670000e-06	8.224182e-07	4.192350e-09	5.844119e+00	2.726274e+02
2.680000e-06	7.496008e-07	4.052630e-09	5.326678e+00	2.632350e+02
2.690000e-06	6.766880e-07	3.908094e-09	4.808558e+00	2.537151e+02
2.700000e-06	6.035546e-07	3.762127e-09	4.288870e+00	2.440418e+02
2.710000e-06	5.302075e-07	3.612717e-09	3.767664e+00	2.341578e+02
2.720000e-06	4.567598e-07	3.458000e-09	3.245744e+00	2.240018e+02
2.730000e-06	3.832141e-07	3.297279e-09	2.723127e+00	2.135353e+02
2.740000e-06	3.096007e-07	3.133722e-09	2.200028e+00	2.027549e+02
2.750000e-06	2.360110e-07	2.968630e-09	1.677098e+00	1.916851e+02
2.760000e-06	1.624071e-07	2.798154e-09	1.154068e+00	1.803579e+02
2.770000e-06	8.876040e-08	2.621077e-09	6.307331e-01	1.687927e+02
2.780000e-06	1.506343e-08	2.440023e-09	1.070411e-01	1.569879e+02
2.790000e-06	-5.865557e-08	2.258016e-09	-4.168076e-01	1.449274e+02
2.800000e-06	-1.323428e-07	2.069503e-09	-9.404304e-01	1.325950e+02
2.810000e-06	-2.060048e-07	1.874634e-09	-1.463874e+00	1.199866e+02
2.820000e-06	-2.796507e-07	1.679337e-09	-1.987203e+00	1.071099e+02
2.830000e-06	-3.532188e-07	1.482071e-09	-2.509980e+00	9.397239e+01
2.840000e-06	-4.266806e-07	1.278152e-09	-3.032000e+00	8.056749e+01
2.850000e-06	-5.000816e-07	1.067583e-09	-3.553589e+00	6.686973e+01
2.860000e-06	-5.733991e-07	8.528446e-10	-4.074585e+00	5.284550e+01
2.870000e-06	-6.465702e-07	6.359090e-10	-4.594540e+00	3.847500e+01
2.880000e-06	-7.195750e-07	4.135314e-10	-5.113314e+00	2.377242e+01
2.890000e-06	-7.924344e-07	1.838636e-10	-5.631054e+00	8.790552e+00
2.900000e-06	-8.650922e-07	-4.813567e-11	-6.147362e+00	-6.395696e+00
2.910000e-06	-9.374724e-07	-2.813599e-10	-6.661697e+00	-2.171961e+01
2.920000e-06	-1.009557e-06	-5.166028e-10	-7.173933e+00	-3.715001e+01
2.930000e-06	-1.081401e-06	-7.555605e-10	-7.684456e+00	-5.269883e+01
2.940000e-06	-1.153074e-06	-9.974508e-10	-8.193766e+00	-6.840276e+01
2.950000e-06	-1.224545e-06	-1.240166e-09	-8.701639e+00	-8.428741e+01
