# Temperatura_=_20.0
# Concentracion g/m^3_=_10000.0
# C_Vs_to_Am_M_A/Vsm_=_65563218390.804596
# pendiente_HvsI_1/m_=_3716.3
# ordenada_HvsI_A/m_=_1297.0
# frecuencia_Hz_=_269358.69007960666

Tiempo_(s)	Campo_(V.s)	Magnetizacion_(V.s)	Campo_(kA/m)	Magnetizacion_(A/m)
0.000000e+00	-4.336097e-06	-8.759347e-09	-3.090189e+01	-5.706396e+02
1.000000e-08	-4.335242e-06	-8.761473e-09	-3.089581e+01	-5.706144e+02
2.000000e-08	-4.332978e-06	-8.759644e-09	-3.087967e+01	-5.705449e+02
3.000000e-08	-4.329416e-06	-8.753050e-09	-3.085428e+01	-5.704072e+02
4.000000e-08	-4.324908e-06	-8.746268e-09	-3.082216e+01	-5.701668e+02
5.000000e-08	-4.319378e-06	-8.740076e-09	-3.078275e+01	-5.698026e+02
6.000000e-08	-4.312610e-06	-8.732548e-09	-3.073451e+01	-5.693226e+02
7.000000e-08	-4.304770e-06	-8.717270e-09	-3.067864e+01	-5.687625e+02
8.000000e-08	-4.295830e-06	-8.706404e-09	-3.061493e+01	-5.681644e+02
9.000000e-08	-4.285197e-06	-8.730903e-09	-3.053915e+01	-5.675519e+02
1.000000e-07	-4.272711e-06	-8.739324e-09	-3.045017e+01	-5.669161e+02
1.100000e-07	-4.258628e-06	-8.707893e-09	-3.034980e+01	-5.662224e+02
1.200000e-07	-4.243131e-06	-8.610902e-09	-3.023936e+01	-5.654354e+02
1.300000e-07	-4.226535e-06	-8.605404e-09	-3.012109e+01	-5.645450e+02
1.400000e-07	-4.208976e-06	-8.713057e-09	-2.999595e+01	-5.635774e+02
1.500000e-07	-4.190359e-06	-8.626621e-09	-2.986327e+01	-5.625815e+02
1.600000e-07	-4.170848e-06	-8.527510e-09	-2.972423e+01	-5.615984e+02
1.700000e-07	-4.150413e-06	-8.619277e-09	-2.957859e+01	-5.606306e+02
1.800000e-07	-4.128816e-06	-8.595821e-09	-2.942468e+01	-5.596310e+02
1.900000e-07	-4.106304e-06	-8.487512e-09	-2.926424e+01	-5.585196e+02
2.000000e-07	-4.082923e-06	-8.536036e-09	-2.909761e+01	-5.572193e+02
2.100000e-07	-4.058261e-06	-8.488064e-09	-2.892185e+01	-5.556914e+02
2.200000e-07	-4.032226e-06	-8.394753e-09	-2.873631e+01	-5.539522e+02
2.300000e-07	-4.004933e-06	-8.468875e-09	-2.854180e+01	-5.520609e+02
2.400000e-07	-3.976435e-06	-8.434373e-09	-2.833871e+01	-5.500873e+02
2.500000e-07	-3.946916e-06	-8.353277e-09	-2.812834e+01	-5.480782e+02
2.600000e-07	-3.916410e-06	-8.390080e-09	-2.791093e+01	-5.460409e+02
2.700000e-07	-3.884882e-06	-8.313058e-09	-2.768624e+01	-5.439520e+02
2.800000e-07	-3.852429e-06	-8.251116e-09	-2.745496e+01	-5.417819e+02
2.900000e-07	-3.818773e-06	-8.282627e-09	-2.721510e+01	-5.395198e+02
3.000000e-07	-3.783669e-06	-8.185353e-09	-2.696493e+01	-5.371814e+02
3.100000e-07	-3.747382e-06	-8.140279e-09	-2.670633e+01	-5.347956e+02
3.200000e-07	-3.710092e-06	-8.185644e-09	-2.644057e+01	-5.323796e+02
3.300000e-07	-3.671684e-06	-8.116338e-09	-2.616685e+01	-5.299200e+02
3.400000e-07	-3.632212e-06	-8.041880e-09	-2.588555e+01	-5.273726e+02
3.500000e-07	-3.591854e-06	-8.024526e-09	-2.559793e+01	-5.246840e+02
3.600000e-07	-3.550467e-06	-7.956391e-09	-2.530298e+01	-5.218218e+02
3.700000e-07	-3.507785e-06	-7.913243e-09	-2.499880e+01	-5.187951e+02
3.800000e-07	-3.463927e-06	-7.898949e-09	-2.468623e+01	-5.156527e+02
3.900000e-07	-3.419045e-06	-7.816286e-09	-2.436637e+01	-5.124579e+02
4.000000e-07	-3.373194e-06	-7.760290e-09	-2.403962e+01	-5.092551e+02
4.100000e-07	-3.326426e-06	-7.754424e-09	-2.370631e+01	-5.060443e+02
4.200000e-07	-3.278784e-06	-7.690528e-09	-2.336678e+01	-5.027815e+02
4.300000e-07	-3.230233e-06	-7.599047e-09	-2.302078e+01	-4.994008e+02
4.400000e-07	-3.180366e-06	-7.560146e-09	-2.266540e+01	-4.958486e+02
4.500000e-07	-3.129137e-06	-7.523531e-09	-2.230030e+01	-4.921097e+02
4.600000e-07	-3.076941e-06	-7.469378e-09	-2.192832e+01	-4.882114e+02
4.700000e-07	-3.023913e-06	-7.398336e-09	-2.155041e+01	-4.842055e+02
4.800000e-07	-2.969966e-06	-7.317163e-09	-2.116595e+01	-4.801388e+02
4.900000e-07	-2.915110e-06	-7.266384e-09	-2.077500e+01	-4.760295e+02
5.000000e-07	-2.859587e-06	-7.211857e-09	-2.037931e+01	-4.718605e+02
5.100000e-07	-2.803600e-06	-7.133246e-09	-1.998031e+01	-4.675929e+02
5.200000e-07	-2.746954e-06	-7.063653e-09	-1.957661e+01	-4.631881e+02
5.300000e-07	-2.689249e-06	-7.003149e-09	-1.916536e+01	-4.586279e+02
5.400000e-07	-2.630407e-06	-6.931557e-09	-1.874602e+01	-4.539190e+02
5.500000e-07	-2.570792e-06	-6.858652e-09	-1.832116e+01	-4.490842e+02
5.600000e-07	-2.510660e-06	-6.776541e-09	-1.789263e+01	-4.441453e+02
5.700000e-07	-2.449901e-06	-6.686602e-09	-1.745962e+01	-4.391094e+02
5.800000e-07	-2.388441e-06	-6.611500e-09	-1.702161e+01	-4.339663e+02
5.900000e-07	-2.326380e-06	-6.541235e-09	-1.657933e+01	-4.286955e+02
6.000000e-07	-2.263681e-06	-6.453656e-09	-1.613249e+01	-4.232788e+02
6.100000e-07	-2.200334e-06	-6.359064e-09	-1.568104e+01	-4.177085e+02
6.200000e-07	-2.136490e-06	-6.275791e-09	-1.522604e+01	-4.119882e+02
6.300000e-07	-2.072085e-06	-6.191903e-09	-1.476705e+01	-4.061263e+02
6.400000e-07	-2.006997e-06	-6.099823e-09	-1.430319e+01	-4.001274e+02
6.500000e-07	-1.941169e-06	-5.997561e-09	-1.383406e+01	-3.939876e+02
6.600000e-07	-1.874530e-06	-5.897617e-09	-1.335914e+01	-3.876964e+02
6.700000e-07	-1.807210e-06	-5.804763e-09	-1.287937e+01	-3.812426e+02
6.800000e-07	-1.739488e-06	-5.703133e-09	-1.239675e+01	-3.746198e+02
6.900000e-07	-1.671423e-06	-5.591945e-09	-1.191167e+01	-3.678278e+02
7.000000e-07	-1.602945e-06	-5.482002e-09	-1.142365e+01	-3.608687e+02
7.100000e-07	-1.534026e-06	-5.379389e-09	-1.093248e+01	-3.537411e+02
7.200000e-07	-1.464643e-06	-5.272557e-09	-1.043801e+01	-3.464356e+02
7.300000e-07	-1.394822e-06	-5.154020e-09	-9.940426e+00	-3.389363e+02
7.400000e-07	-1.324630e-06	-5.027718e-09	-9.440193e+00	-3.312271e+02
7.500000e-07	-1.254056e-06	-4.904033e-09	-8.937233e+00	-3.232989e+02
7.600000e-07	-1.183032e-06	-4.783318e-09	-8.431072e+00	-3.151550e+02
7.700000e-07	-1.111620e-06	-4.656591e-09	-7.922136e+00	-3.068097e+02
7.800000e-07	-1.040000e-06	-4.522845e-09	-7.411727e+00	-2.982821e+02
7.900000e-07	-9.682261e-07	-4.388831e-09	-6.900220e+00	-2.895871e+02
8.000000e-07	-8.962759e-07	-4.258654e-09	-6.387455e+00	-2.807270e+02
8.100000e-07	-8.242046e-07	-4.123078e-09	-5.873827e+00	-2.716889e+02
8.200000e-07	-7.519878e-07	-3.976504e-09	-5.359163e+00	-2.624476e+02
8.300000e-07	-6.795873e-07	-3.824128e-09	-4.843189e+00	-2.529740e+02
8.400000e-07	-6.070208e-07	-3.675710e-09	-4.326032e+00	-2.432447e+02
8.500000e-07	-5.342704e-07	-3.527622e-09	-3.807565e+00	-2.332495e+02
8.600000e-07	-4.613980e-07	-3.370458e-09	-3.288227e+00	-2.229942e+02
8.700000e-07	-3.884252e-07	-3.205786e-09	-2.768175e+00	-2.124956e+02
8.800000e-07	-3.152910e-07	-3.039917e-09	-2.246972e+00	-2.017719e+02
8.900000e-07	-2.420163e-07	-2.875025e-09	-1.724768e+00	-1.908307e+02
9.000000e-07	-1.686197e-07	-2.703821e-09	-1.201696e+00	-1.796606e+02
9.100000e-07	-9.509702e-08	-2.524081e-09	-6.777243e-01	-1.682321e+02
9.200000e-07	-2.153369e-08	-2.342009e-09	-1.534633e-01	-1.565070e+02
9.300000e-07	5.203108e-08	-2.160248e-09	3.708079e-01	-1.444545e+02
9.400000e-07	1.255522e-07	-1.973550e-09	8.947682e-01	-1.320666e+02
9.500000e-07	1.989442e-07	-1.777958e-09	1.417808e+00	-1.193639e+02
9.600000e-07	2.722517e-07	-1.575728e-09	1.940245e+00	-1.063874e+02
9.700000e-07	3.455604e-07	-1.373346e-09	2.462692e+00	-9.317920e+01
9.800000e-07	4.188043e-07	-1.172772e-09	2.984677e+00	-7.976027e+01
9.900000e-07	4.918429e-07	-9.666101e-10	3.505198e+00	-6.611716e+01
1.000000e-06	5.646619e-07	-7.507801e-10	4.024154e+00	-5.220616e+01
1.010000e-06	6.373277e-07	-5.298165e-10	4.542019e+00	-3.797444e+01
1.020000e-06	7.098453e-07	-3.078473e-10	5.058827e+00	-2.338887e+01
1.030000e-06	7.821590e-07	-8.184761e-11	5.574183e+00	-8.458041e+00
1.040000e-06	8.542769e-07	1.511396e-10	6.088143e+00	6.764251e+00
1.050000e-06	9.262196e-07	3.884239e-10	6.600853e+00	2.219669e+01
1.060000e-06	9.980143e-07	6.250343e-10	7.112510e+00	3.776064e+01
1.070000e-06	1.069650e-06	8.605848e-10	7.623032e+00	5.340727e+01
1.080000e-06	1.141068e-06	1.100656e-09	8.132004e+00	6.912734e+01
1.090000e-06	1.212186e-06	1.344240e-09	8.638843e+00	8.493862e+01
1.100000e-06	1.282968e-06	1.586793e-09	9.143280e+00	1.008579e+02
1.110000e-06	1.353369e-06	1.827257e-09	9.645000e+00	1.168732e+02
1.120000e-06	1.423344e-06	2.069206e-09	1.014369e+01	1.329305e+02
1.130000e-06	1.492907e-06	2.313680e-09	1.063944e+01	1.489434e+02
1.140000e-06	1.561977e-06	2.556591e-09	1.113168e+01	1.648177e+02
1.150000e-06	1.630541e-06	2.794187e-09	1.162032e+01	1.804795e+02
1.160000e-06	1.698741e-06	3.026968e-09	1.210635e+01	1.958899e+02
1.170000e-06	1.766634e-06	3.257359e-09	1.259020e+01	2.110410e+02
1.180000e-06	1.834105e-06	3.484353e-09	1.307105e+01	2.259354e+02
1.190000e-06	1.900983e-06	3.704808e-09	1.354766e+01	2.405633e+02
1.200000e-06	1.967131e-06	3.918820e-09	1.401908e+01	2.548890e+02
1.210000e-06	2.032391e-06	4.130033e-09	1.448416e+01	2.688553e+02
1.220000e-06	2.096844e-06	4.336937e-09	1.494350e+01	2.823999e+02
1.230000e-06	2.160795e-06	4.535914e-09	1.539926e+01	2.954770e+02
1.240000e-06	2.224329e-06	4.724826e-09	1.585204e+01	3.080701e+02
1.250000e-06	2.287311e-06	4.906109e-09	1.630089e+01	3.201915e+02
1.260000e-06	2.349661e-06	5.082237e-09	1.674524e+01	3.318711e+02
1.270000e-06	2.411390e-06	5.252909e-09	1.718516e+01	3.431418e+02
1.280000e-06	2.472488e-06	5.418281e-09	1.762059e+01	3.540283e+02
1.290000e-06	2.532966e-06	5.578350e-09	1.805159e+01	3.645454e+02
1.300000e-06	2.592910e-06	5.733481e-09	1.847879e+01	3.747003e+02
1.310000e-06	2.652284e-06	5.884603e-09	1.890193e+01	3.844977e+02
1.320000e-06	2.710774e-06	6.029991e-09	1.931877e+01	3.939403e+02
1.330000e-06	2.768117e-06	6.166559e-09	1.972743e+01	4.030279e+02
1.340000e-06	2.824541e-06	6.297772e-09	2.012955e+01	4.117554e+02
1.350000e-06	2.880346e-06	6.425945e-09	2.052725e+01	4.201151e+02
1.360000e-06	2.935437e-06	6.548468e-09	2.091986e+01	4.281018e+02
1.370000e-06	2.989715e-06	6.663358e-09	2.130669e+01	4.357190e+02
1.380000e-06	3.043191e-06	6.770747e-09	2.168780e+01	4.429810e+02
1.390000e-06	3.095853e-06	6.873363e-09	2.206310e+01	4.499080e+02
1.400000e-06	3.147622e-06	6.972840e-09	2.243204e+01	4.565192e+02
1.410000e-06	3.198205e-06	7.069212e-09	2.279253e+01	4.628265e+02
1.420000e-06	3.247425e-06	7.160700e-09	2.314330e+01	4.688357e+02
1.430000e-06	3.295555e-06	7.245580e-09	2.348631e+01	4.745554e+02
1.440000e-06	3.342880e-06	7.327116e-09	2.382357e+01	4.800067e+02
1.450000e-06	3.389365e-06	7.407057e-09	2.415485e+01	4.852275e+02
1.460000e-06	3.434921e-06	7.483207e-09	2.447952e+01	4.902643e+02
1.470000e-06	3.479581e-06	7.554943e-09	2.479780e+01	4.951556e+02
1.480000e-06	3.523447e-06	7.623408e-09	2.511041e+01	4.999142e+02
1.490000e-06	3.566319e-06	7.691628e-09	2.541595e+01	5.045207e+02
1.500000e-06	3.607799e-06	7.759670e-09	2.571156e+01	5.089350e+02
1.510000e-06	3.648045e-06	7.822783e-09	2.599838e+01	5.131196e+02
1.520000e-06	3.687382e-06	7.880623e-09	2.627873e+01	5.170644e+02
1.530000e-06	3.725740e-06	7.936866e-09	2.655209e+01	5.207969e+02
1.540000e-06	3.763052e-06	7.991366e-09	2.681800e+01	5.243708e+02
1.550000e-06	3.799400e-06	8.041395e-09	2.707704e+01	5.278382e+02
1.560000e-06	3.834805e-06	8.088258e-09	2.732936e+01	5.312209e+02
1.570000e-06	3.868985e-06	8.133246e-09	2.757295e+01	5.344977e+02
1.580000e-06	3.901780e-06	8.177973e-09	2.780666e+01	5.376159e+02
1.590000e-06	3.933464e-06	8.221448e-09	2.803247e+01	5.405222e+02
1.600000e-06	3.964208e-06	8.260281e-09	2.825157e+01	5.431951e+02
1.610000e-06	3.993932e-06	8.296841e-09	2.846340e+01	5.456599e+02
1.620000e-06	4.022584e-06	8.332887e-09	2.866760e+01	5.479769e+02
1.630000e-06	4.050294e-06	8.366308e-09	2.886507e+01	5.502092e+02
1.640000e-06	4.076819e-06	8.395901e-09	2.905411e+01	5.523886e+02
1.650000e-06	4.101806e-06	8.421705e-09	2.923218e+01	5.544994e+02
1.660000e-06	4.125522e-06	8.446495e-09	2.940120e+01	5.564897e+02
1.670000e-06	4.148196e-06	8.471993e-09	2.956279e+01	5.583037e+02
1.680000e-06	4.169791e-06	8.496130e-09	2.971669e+01	5.599166e+02
1.690000e-06	4.190362e-06	8.516502e-09	2.986329e+01	5.613509e+02
1.700000e-06	4.210007e-06	8.534550e-09	3.000329e+01	5.626652e+02
1.710000e-06	4.228522e-06	8.554518e-09	3.013524e+01	5.639226e+02
1.720000e-06	4.245730e-06	8.574353e-09	3.025788e+01	5.651571e+02
1.730000e-06	4.261694e-06	8.590551e-09	3.037165e+01	5.663576e+02
1.740000e-06	4.276375e-06	8.603349e-09	3.047628e+01	5.674786e+02
1.750000e-06	4.289869e-06	8.614660e-09	3.057245e+01	5.684694e+02
1.760000e-06	4.302193e-06	8.625626e-09	3.066027e+01	5.693049e+02
1.770000e-06	4.313064e-06	8.635300e-09	3.073775e+01	5.699985e+02
1.780000e-06	4.322371e-06	8.643005e-09	3.080408e+01	5.705920e+02
1.790000e-06	4.330379e-06	8.651602e-09	3.086114e+01	5.711292e+02
1.800000e-06	4.337260e-06	8.662005e-09	3.091019e+01	5.716303e+02
1.810000e-06	4.342973e-06	8.671379e-09	3.095090e+01	5.720836e+02
1.820000e-06	4.347577e-06	8.677258e-09	3.098371e+01	5.724572e+02
1.830000e-06	4.351039e-06	8.680492e-09	3.100838e+01	5.727231e+02
1.840000e-06	4.353062e-06	8.681331e-09	3.102280e+01	5.728768e+02
1.850000e-06	4.353707e-06	8.680897e-09	3.102740e+01	5.729392e+02
1.860000e-06	4.353219e-06	8.678469e-09	3.102392e+01	5.729410e+02
1.870000e-06	4.351620e-06	8.674451e-09	3.101252e+01	5.729004e+02
1.880000e-06	4.348953e-06	8.675502e-09	3.099352e+01	5.728092e+02
1.890000e-06	4.345311e-06	8.678147e-09	3.096756e+01	5.726368e+02
1.900000e-06	4.340551e-06	8.677322e-09	3.093364e+01	5.723511e+02
1.910000e-06	4.334316e-06	8.672895e-09	3.088920e+01	5.719407e+02
1.920000e-06	4.326796e-06	8.670326e-09	3.083561e+01	5.714256e+02
1.930000e-06	4.318274e-06	8.672991e-09	3.077488e+01	5.708468e+02
1.940000e-06	4.308666e-06	8.626023e-09	3.070640e+01	5.702422e+02
1.950000e-06	4.297464e-06	8.586871e-09	3.062657e+01	5.696238e+02
1.960000e-06	4.283993e-06	8.591613e-09	3.053057e+01	5.689710e+02
1.970000e-06	4.268693e-06	8.672991e-09	3.042153e+01	5.682456e+02
1.980000e-06	4.252812e-06	8.662333e-09	3.030835e+01	5.674190e+02
1.990000e-06	4.236673e-06	8.519575e-09	3.019333e+01	5.664948e+02
2.000000e-06	4.219343e-06	8.580646e-09	3.006983e+01	5.655105e+02
2.010000e-06	4.200527e-06	8.657653e-09	2.993573e+01	5.645162e+02
2.020000e-06	4.180977e-06	8.521340e-09	2.979641e+01	5.635412e+02
2.030000e-06	4.160364e-06	8.509494e-09	2.964951e+01	5.625693e+02
2.040000e-06	4.137984e-06	8.611235e-09	2.949001e+01	5.615380e+02
2.050000e-06	4.114428e-06	8.516137e-09	2.932214e+01	5.603634e+02
2.060000e-06	4.090056e-06	8.492151e-09	2.914845e+01	5.589793e+02
2.070000e-06	4.064574e-06	8.562485e-09	2.896684e+01	5.573674e+02
2.080000e-06	4.038081e-06	8.441626e-09	2.877804e+01	5.555629e+02
2.090000e-06	4.010522e-06	8.410926e-09	2.858163e+01	5.536331e+02
2.100000e-06	3.981654e-06	8.422098e-09	2.837590e+01	5.516427e+02
2.110000e-06	3.951592e-06	8.282165e-09	2.816166e+01	5.496243e+02
2.120000e-06	3.920246e-06	8.347606e-09	2.793827e+01	5.475714e+02
2.130000e-06	3.887626e-06	8.350391e-09	2.770580e+01	5.454548e+02
2.140000e-06	3.854092e-06	8.190108e-09	2.746681e+01	5.432500e+02
2.150000e-06	3.819567e-06	8.277631e-09	2.722076e+01	5.409563e+02
2.160000e-06	3.784069e-06	8.255448e-09	2.696778e+01	5.385968e+02
2.170000e-06	3.747583e-06	8.080705e-09	2.670775e+01	5.361990e+02
2.180000e-06	3.709599e-06	8.118334e-09	2.643706e+01	5.337702e+02
2.190000e-06	3.670267e-06	8.101771e-09	2.615675e+01	5.312839e+02
2.200000e-06	3.630048e-06	8.027766e-09	2.587012e+01	5.286893e+02
2.210000e-06	3.588843e-06	8.043435e-09	2.557647e+01	5.259375e+02
2.220000e-06	3.546664e-06	7.964728e-09	2.527588e+01	5.230101e+02
2.230000e-06	3.503619e-06	7.905152e-09	2.496911e+01	5.199327e+02
2.240000e-06	3.459731e-06	7.899470e-09	2.465633e+01	5.167635e+02
2.250000e-06	3.414853e-06	7.829371e-09	2.433650e+01	5.135626e+02
2.260000e-06	3.368892e-06	7.748709e-09	2.400896e+01	5.103594e+02
2.270000e-06	3.321957e-06	7.710673e-09	2.367446e+01	5.071362e+02
2.280000e-06	3.273933e-06	7.702679e-09	2.333221e+01	5.038369e+02
2.290000e-06	3.224883e-06	7.634233e-09	2.298265e+01	5.003965e+02
2.300000e-06	3.174938e-06	7.554297e-09	2.262671e+01	4.967737e+02
2.310000e-06	3.124133e-06	7.508632e-09	2.226464e+01	4.929699e+02
2.320000e-06	3.072563e-06	7.451919e-09	2.189712e+01	4.890247e+02
2.330000e-06	3.020016e-06	7.405290e-09	2.152263e+01	4.849917e+02
2.340000e-06	2.966291e-06	7.324563e-09	2.113976e+01	4.809089e+02
2.350000e-06	2.911467e-06	7.256955e-09	2.074904e+01	4.767808e+02
2.360000e-06	2.855766e-06	7.221132e-09	2.035208e+01	4.725799e+02
2.370000e-06	2.799387e-06	7.130738e-09	1.995029e+01	4.682645e+02
2.380000e-06	2.742318e-06	7.058740e-09	1.954357e+01	4.638022e+02
2.390000e-06	2.684536e-06	7.006009e-09	1.913178e+01	4.591843e+02
2.400000e-06	2.626020e-06	6.927630e-09	1.871476e+01	4.544252e+02
2.410000e-06	2.566789e-06	6.863465e-09	1.829263e+01	4.495493e+02
2.420000e-06	2.506967e-06	6.793767e-09	1.786630e+01	4.445742e+02
2.430000e-06	2.446547e-06	6.715185e-09	1.743571e+01	4.395001e+02
2.440000e-06	2.385329e-06	6.623968e-09	1.699943e+01	4.343117e+02
2.450000e-06	2.323155e-06	6.538856e-09	1.655634e+01	4.289878e+02
2.460000e-06	2.260124e-06	6.466390e-09	1.610714e+01	4.235137e+02
2.470000e-06	2.196495e-06	6.377971e-09	1.565368e+01	4.178863e+02
2.480000e-06	2.132380e-06	6.291738e-09	1.519675e+01	4.121120e+02
2.490000e-06	2.067662e-06	6.202535e-09	1.473553e+01	4.061986e+02
2.500000e-06	2.002264e-06	6.117719e-09	1.426945e+01	4.001477e+02
2.510000e-06	1.936300e-06	6.026893e-09	1.379936e+01	3.939526e+02
2.520000e-06	1.869801e-06	5.920839e-09	1.332544e+01	3.876016e+02
2.530000e-06	1.802766e-06	5.824086e-09	1.284770e+01	3.810847e+02
2.540000e-06	1.735329e-06	5.725292e-09	1.236710e+01	3.743982e+02
2.550000e-06	1.667528e-06	5.622202e-09	1.188391e+01	3.675434e+02
2.560000e-06	1.599295e-06	5.514470e-09	1.139763e+01	3.605217e+02
2.570000e-06	1.530547e-06	5.403658e-09	1.090769e+01	3.533288e+02
2.580000e-06	1.461132e-06	5.296537e-09	1.041299e+01	3.459527e+02
2.590000e-06	1.390998e-06	5.186484e-09	9.913170e+00	3.383764e+02
2.600000e-06	1.320267e-06	5.070195e-09	9.409096e+00	3.305855e+02
2.610000e-06	1.249099e-06	4.945155e-09	8.901909e+00	3.225754e+02
2.620000e-06	1.177603e-06	4.818747e-09	8.392379e+00	3.143538e+02
2.630000e-06	1.105873e-06	4.693545e-09	7.881181e+00	3.059379e+02
2.640000e-06	1.034035e-06	4.561992e-09	7.369216e+00	2.973464e+02
2.650000e-06	9.620338e-07	4.425007e-09	6.856089e+00	2.885900e+02
2.660000e-06	8.897581e-07	4.288099e-09	6.341005e+00	2.796654e+02
2.670000e-06	8.172610e-07	4.156527e-09	5.824343e+00	2.705545e+02
2.680000e-06	7.446213e-07	4.021387e-09	5.306664e+00	2.612294e+02
2.690000e-06	6.718054e-07	3.873826e-09	4.787730e+00	2.516620e+02
2.700000e-06	5.988412e-07	3.722499e-09	4.267739e+00	2.418333e+02
2.710000e-06	5.257732e-07	3.569527e-09	3.747007e+00	2.317391e+02
2.720000e-06	4.525427e-07	3.413287e-09	3.225119e+00	2.213903e+02
2.730000e-06	3.791538e-07	3.251035e-09	2.702101e+00	2.108055e+02
2.740000e-06	3.057130e-07	3.084966e-09	2.178713e+00	2.000002e+02
2.750000e-06	2.322830e-07	2.920901e-09	1.655402e+00	1.889756e+02
2.760000e-06	1.588837e-07	2.755247e-09	1.132311e+00	1.777129e+02
2.770000e-06	8.545934e-08	2.581942e-09	6.090398e-01	1.661776e+02
2.780000e-06	1.195405e-08	2.399204e-09	8.519245e-02	1.543323e+02
2.790000e-06	-6.153828e-08	2.213028e-09	-4.385625e-01	1.421534e+02
2.800000e-06	-1.350092e-07	2.023026e-09	-9.621649e-01	1.296437e+02
2.810000e-06	-2.084912e-07	1.826747e-09	-1.485846e+00	1.168329e+02
2.820000e-06	-2.818930e-07	1.627828e-09	-2.008956e+00	1.037653e+02
2.830000e-06	-3.552236e-07	1.427374e-09	-2.531559e+00	9.047732e+01
2.840000e-06	-4.285061e-07	1.223859e-09	-3.053818e+00	7.697781e+01
2.850000e-06	-5.017036e-07	1.016021e-09	-3.575472e+00	6.324044e+01
2.860000e-06	-5.747877e-07	8.029245e-10	-4.096318e+00	4.921493e+01
2.870000e-06	-6.477032e-07	5.844482e-10	-4.615961e+00	3.485248e+01
2.880000e-06	-7.204306e-07	3.591243e-10	-5.134265e+00	2.013384e+01
2.890000e-06	-7.929595e-07	1.280652e-10	-5.651154e+00	5.085350e+00
2.900000e-06	-8.652707e-07	-1.053580e-10	-6.166491e+00	-1.022584e+01
2.910000e-06	-9.374277e-07	-3.409409e-10	-6.680730e+00	-2.571568e+01
2.920000e-06	-1.009416e-06	-5.782536e-10	-7.193763e+00	-4.131422e+01
2.930000e-06	-1.081221e-06	-8.167942e-10	-7.705495e+00	-5.698753e+01
2.940000e-06	-1.152808e-06	-1.057327e-09	-8.215671e+00	-7.273909e+01
2.950000e-06	-1.224114e-06	-1.300503e-09	-8.723848e+00	-8.858995e+01
