# Temperatura_=_20.0
# Concentracion g/m^3_=_10000.0
# C_Vs_to_Am_M_A/Vsm_=_65563218390.804596
# pendiente_HvsI_1/m_=_3716.3
# ordenada_HvsI_A/m_=_1297.0
# frecuencia_Hz_=_135330.0116948452
# Promedio de 31 ciclos

Tiempo_(s)	Campo_(V.s)	Magnetizacion_(V.s)	Campo_(kA/m)	Magnetizacion_(A/m)
0.000000e+00	-5.281867e-09	-9.604466e-09	-3.843864e+01	-6.269168e+02
1.000000e-08	-5.281890e-09	-9.606714e-09	-3.843881e+01	-6.269711e+02
2.000000e-08	-5.281615e-09	-9.607397e-09	-3.843681e+01	-6.270118e+02
3.000000e-08	-5.280886e-09	-9.605298e-09	-3.843150e+01	-6.270334e+02
4.000000e-08	-5.279690e-09	-9.601234e-09	-3.842280e+01	-6.270298e+02
5.000000e-08	-5.278161e-09	-9.597209e-09	-3.841167e+01	-6.269952e+02
6.000000e-08	-5.276347e-09	-9.595410e-09	-3.839847e+01	-6.269243e+02
7.000000e-08	-5.274194e-09	-9.594041e-09	-3.838280e+01	-6.268139e+02
8.000000e-08	-5.271646e-09	-9.592369e-09	-3.836426e+01	-6.266629e+02
9.000000e-08	-5.268547e-09	-9.589772e-09	-3.834171e+01	-6.264728e+02
1.000000e-07	-5.264631e-09	-9.585884e-09	-3.831320e+01	-6.262477e+02
1.100000e-07	-5.259995e-09	-9.580287e-09	-3.827947e+01	-6.259940e+02
1.200000e-07	-5.255229e-09	-9.576322e-09	-3.824479e+01	-6.257195e+02
1.300000e-07	-5.250518e-09	-9.574352e-09	-3.821050e+01	-6.254328e+02
1.400000e-07	-5.245397e-09	-9.564922e-09	-3.817323e+01	-6.251419e+02
1.500000e-07	-5.239645e-09	-9.559627e-09	-3.813137e+01	-6.248539e+02
1.600000e-07	-5.233610e-09	-9.553590e-09	-3.808745e+01	-6.245733e+02
1.700000e-07	-5.227359e-09	-9.545393e-09	-3.804196e+01	-6.243020e+02
1.800000e-07	-5.220542e-09	-9.545260e-09	-3.799235e+01	-6.240388e+02
1.900000e-07	-5.213267e-09	-9.542130e-09	-3.793940e+01	-6.237797e+02
2.000000e-07	-5.205827e-09	-9.537732e-09	-3.788526e+01	-6.235179e+02
2.100000e-07	-5.198057e-09	-9.535183e-09	-3.782872e+01	-6.232454e+02
2.200000e-07	-5.189808e-09	-9.541935e-09	-3.776868e+01	-6.229533e+02
2.300000e-07	-5.181320e-09	-9.536399e-09	-3.770692e+01	-6.226330e+02
2.400000e-07	-5.172603e-09	-9.526777e-09	-3.764348e+01	-6.222774e+02
2.500000e-07	-5.163386e-09	-9.525948e-09	-3.757640e+01	-6.218816e+02
2.600000e-07	-5.153715e-09	-9.517665e-09	-3.750601e+01	-6.214431e+02
2.700000e-07	-5.143757e-09	-9.499156e-09	-3.743355e+01	-6.209625e+02
2.800000e-07	-5.133344e-09	-9.484626e-09	-3.735777e+01	-6.204428e+02
2.900000e-07	-5.122438e-09	-9.471940e-09	-3.727840e+01	-6.198891e+02
3.000000e-07	-5.111234e-09	-9.458887e-09	-3.719686e+01	-6.193076e+02
3.100000e-07	-5.099746e-09	-9.454704e-09	-3.711326e+01	-6.187048e+02
3.200000e-07	-5.087918e-09	-9.449781e-09	-3.702718e+01	-6.180867e+02
3.300000e-07	-5.075787e-09	-9.436403e-09	-3.693890e+01	-6.174578e+02
3.400000e-07	-5.063315e-09	-9.425657e-09	-3.684813e+01	-6.168205e+02
3.500000e-07	-5.050499e-09	-9.423639e-09	-3.675486e+01	-6.161753e+02
3.600000e-07	-5.037406e-09	-9.411949e-09	-3.665958e+01	-6.155203e+02
3.700000e-07	-5.023912e-09	-9.396325e-09	-3.656138e+01	-6.148520e+02
3.800000e-07	-5.009904e-09	-9.386214e-09	-3.645944e+01	-6.141658e+02
3.900000e-07	-4.995484e-09	-9.381918e-09	-3.635449e+01	-6.134566e+02
4.000000e-07	-4.980719e-09	-9.368155e-09	-3.624704e+01	-6.127199e+02
4.100000e-07	-4.965554e-09	-9.351169e-09	-3.613668e+01	-6.119523e+02
4.200000e-07	-4.950052e-09	-9.338758e-09	-3.602386e+01	-6.111520e+02
4.300000e-07	-4.934269e-09	-9.324283e-09	-3.590900e+01	-6.103190e+02
4.400000e-07	-4.918191e-09	-9.302577e-09	-3.579200e+01	-6.094552e+02
4.500000e-07	-4.901802e-09	-9.288081e-09	-3.567273e+01	-6.085639e+02
4.600000e-07	-4.885047e-09	-9.278449e-09	-3.555079e+01	-6.076492e+02
4.700000e-07	-4.867834e-09	-9.260958e-09	-3.542552e+01	-6.067155e+02
4.800000e-07	-4.850220e-09	-9.247903e-09	-3.529734e+01	-6.057667e+02
4.900000e-07	-4.832274e-09	-9.238861e-09	-3.516674e+01	-6.048056e+02
5.000000e-07	-4.813977e-09	-9.220677e-09	-3.503358e+01	-6.038337e+02
5.100000e-07	-4.795312e-09	-9.199768e-09	-3.489775e+01	-6.028504e+02
5.200000e-07	-4.776300e-09	-9.186556e-09	-3.475939e+01	-6.018539e+02
5.300000e-07	-4.756928e-09	-9.169510e-09	-3.461841e+01	-6.008408e+02
5.400000e-07	-4.737109e-09	-9.153681e-09	-3.447418e+01	-5.998073e+02
5.500000e-07	-4.716795e-09	-9.141785e-09	-3.432634e+01	-5.987491e+02
5.600000e-07	-4.696027e-09	-9.124907e-09	-3.417521e+01	-5.976626e+02
5.700000e-07	-4.674905e-09	-9.106202e-09	-3.402149e+01	-5.965454e+02
5.800000e-07	-4.653484e-09	-9.089530e-09	-3.386560e+01	-5.953964e+02
5.900000e-07	-4.631759e-09	-9.067364e-09	-3.370749e+01	-5.942161e+02
6.000000e-07	-4.609718e-09	-9.044498e-09	-3.354709e+01	-5.930067e+02
6.100000e-07	-4.587396e-09	-9.026434e-09	-3.338465e+01	-5.917713e+02
6.200000e-07	-4.564785e-09	-9.006366e-09	-3.322009e+01	-5.905139e+02
6.300000e-07	-4.541789e-09	-8.985597e-09	-3.305274e+01	-5.892384e+02
6.400000e-07	-4.518344e-09	-8.966891e-09	-3.288212e+01	-5.879482e+02
6.500000e-07	-4.494513e-09	-8.948433e-09	-3.270869e+01	-5.866454e+02
6.600000e-07	-4.470383e-09	-8.927730e-09	-3.253309e+01	-5.853309e+02
6.700000e-07	-4.445964e-09	-8.906892e-09	-3.235538e+01	-5.840038e+02
6.800000e-07	-4.421242e-09	-8.884809e-09	-3.217547e+01	-5.826618e+02
6.900000e-07	-4.396216e-09	-8.863327e-09	-3.199334e+01	-5.813012e+02
7.000000e-07	-4.370903e-09	-8.840905e-09	-3.180912e+01	-5.799177e+02
7.100000e-07	-4.345344e-09	-8.817417e-09	-3.162311e+01	-5.785072e+02
7.200000e-07	-4.319522e-09	-8.794381e-09	-3.143520e+01	-5.770657e+02
7.300000e-07	-4.293342e-09	-8.770737e-09	-3.124467e+01	-5.755906e+02
7.400000e-07	-4.266752e-09	-8.744855e-09	-3.105116e+01	-5.740806e+02
7.500000e-07	-4.239818e-09	-8.719358e-09	-3.085515e+01	-5.725359e+02
7.600000e-07	-4.212631e-09	-8.695062e-09	-3.065730e+01	-5.709584e+02
7.700000e-07	-4.185195e-09	-8.670826e-09	-3.045763e+01	-5.693510e+02
7.800000e-07	-4.157460e-09	-8.648359e-09	-3.025579e+01	-5.677175e+02
7.900000e-07	-4.129402e-09	-8.624043e-09	-3.005161e+01	-5.660618e+02
8.000000e-07	-4.101054e-09	-8.596219e-09	-2.984530e+01	-5.643874e+02
8.100000e-07	-4.072456e-09	-8.565482e-09	-2.963718e+01	-5.626967e+02
8.200000e-07	-4.043593e-09	-8.536391e-09	-2.942713e+01	-5.609908e+02
8.300000e-07	-4.014399e-09	-8.507216e-09	-2.921467e+01	-5.592692e+02
8.400000e-07	-3.984837e-09	-8.479338e-09	-2.899953e+01	-5.575299e+02
8.500000e-07	-3.954928e-09	-8.452983e-09	-2.878188e+01	-5.557695e+02
8.600000e-07	-3.924713e-09	-8.427764e-09	-2.856199e+01	-5.539836e+02
8.700000e-07	-3.894207e-09	-8.400110e-09	-2.833998e+01	-5.521676e+02
8.800000e-07	-3.863417e-09	-8.369079e-09	-2.811590e+01	-5.503168e+02
8.900000e-07	-3.832348e-09	-8.336063e-09	-2.788980e+01	-5.484272e+02
9.000000e-07	-3.800952e-09	-8.302475e-09	-2.766131e+01	-5.464960e+02
9.100000e-07	-3.769179e-09	-8.268953e-09	-2.743009e+01	-5.445216e+02
9.200000e-07	-3.737054e-09	-8.235105e-09	-2.719630e+01	-5.425038e+02
9.300000e-07	-3.704646e-09	-8.202763e-09	-2.696045e+01	-5.404438e+02
9.400000e-07	-3.672001e-09	-8.172165e-09	-2.672288e+01	-5.383437e+02
9.500000e-07	-3.639113e-09	-8.142593e-09	-2.648354e+01	-5.362063e+02
9.600000e-07	-3.605986e-09	-8.111089e-09	-2.624246e+01	-5.340348e+02
9.700000e-07	-3.572649e-09	-8.078436e-09	-2.599985e+01	-5.318318e+02
9.800000e-07	-3.539121e-09	-8.044430e-09	-2.575585e+01	-5.295998e+02
9.900000e-07	-3.505413e-09	-8.010543e-09	-2.551054e+01	-5.273402e+02
1.000000e-06	-3.471515e-09	-7.975571e-09	-2.526385e+01	-5.250535e+02
1.010000e-06	-3.437405e-09	-7.938629e-09	-2.501561e+01	-5.227393e+02
1.020000e-06	-3.403058e-09	-7.899639e-09	-2.476565e+01	-5.203963e+02
1.030000e-06	-3.368463e-09	-7.860485e-09	-2.451389e+01	-5.180228e+02
1.040000e-06	-3.333631e-09	-7.822156e-09	-2.426040e+01	-5.156165e+02
1.050000e-06	-3.298582e-09	-7.785127e-09	-2.400533e+01	-5.131752e+02
1.060000e-06	-3.263319e-09	-7.748207e-09	-2.374870e+01	-5.106970e+02
1.070000e-06	-3.227816e-09	-7.711243e-09	-2.349034e+01	-5.081802e+02
1.080000e-06	-3.192051e-09	-7.673875e-09	-2.323006e+01	-5.056235e+02
1.090000e-06	-3.156001e-09	-7.633544e-09	-2.296771e+01	-5.030262e+02
1.100000e-06	-3.119674e-09	-7.589389e-09	-2.270333e+01	-5.003881e+02
1.110000e-06	-3.083109e-09	-7.543478e-09	-2.243723e+01	-4.977093e+02
1.120000e-06	-3.046347e-09	-7.499466e-09	-2.216970e+01	-4.949901e+02
1.130000e-06	-3.009412e-09	-7.456976e-09	-2.190090e+01	-4.922311e+02
1.140000e-06	-2.972297e-09	-7.416202e-09	-2.163080e+01	-4.894327e+02
1.150000e-06	-2.934988e-09	-7.376876e-09	-2.135929e+01	-4.865956e+02
1.160000e-06	-2.897465e-09	-7.337910e-09	-2.108621e+01	-4.837201e+02
1.170000e-06	-2.859719e-09	-7.296910e-09	-2.081152e+01	-4.808068e+02
1.180000e-06	-2.821767e-09	-7.251711e-09	-2.053532e+01	-4.778560e+02
1.190000e-06	-2.783616e-09	-7.202160e-09	-2.025768e+01	-4.748682e+02
1.200000e-06	-2.745270e-09	-7.150607e-09	-1.997862e+01	-4.718437e+02
1.210000e-06	-2.706725e-09	-7.099222e-09	-1.969810e+01	-4.687830e+02
1.220000e-06	-2.667972e-09	-7.049758e-09	-1.941609e+01	-4.656862e+02
1.230000e-06	-2.629000e-09	-7.003836e-09	-1.913247e+01	-4.625534e+02
1.240000e-06	-2.589798e-09	-6.959851e-09	-1.884717e+01	-4.593842e+02
1.250000e-06	-2.550369e-09	-6.914509e-09	-1.856023e+01	-4.561780e+02
1.260000e-06	-2.510738e-09	-6.865627e-09	-1.827182e+01	-4.529336e+02
1.270000e-06	-2.470938e-09	-6.813269e-09	-1.798218e+01	-4.496494e+02
1.280000e-06	-2.430984e-09	-6.759442e-09	-1.769141e+01	-4.463232e+02
1.290000e-06	-2.390883e-09	-6.706930e-09	-1.739957e+01	-4.429527e+02
1.300000e-06	-2.350634e-09	-6.654587e-09	-1.710667e+01	-4.395353e+02
1.310000e-06	-2.310222e-09	-6.601721e-09	-1.681257e+01	-4.360684e+02
1.320000e-06	-2.269627e-09	-6.548287e-09	-1.651714e+01	-4.325499e+02
1.330000e-06	-2.228849e-09	-6.495835e-09	-1.622038e+01	-4.289779e+02
1.340000e-06	-2.187909e-09	-6.442184e-09	-1.592244e+01	-4.253515e+02
1.350000e-06	-2.146826e-09	-6.383570e-09	-1.562346e+01	-4.216703e+02
1.360000e-06	-2.105608e-09	-6.321607e-09	-1.532349e+01	-4.179348e+02
1.370000e-06	-2.064272e-09	-6.259291e-09	-1.502268e+01	-4.141462e+02
1.380000e-06	-2.022815e-09	-6.198887e-09	-1.472097e+01	-4.103060e+02
1.390000e-06	-1.981234e-09	-6.139221e-09	-1.441837e+01	-4.064162e+02
1.400000e-06	-1.939529e-09	-6.080183e-09	-1.411486e+01	-4.024787e+02
1.410000e-06	-1.897685e-09	-6.022275e-09	-1.381034e+01	-3.984950e+02
1.420000e-06	-1.855687e-09	-5.963439e-09	-1.350470e+01	-3.944659e+02
1.430000e-06	-1.813520e-09	-5.899798e-09	-1.319784e+01	-3.903918e+02
1.440000e-06	-1.771181e-09	-5.833120e-09	-1.288972e+01	-3.862722e+02
1.450000e-06	-1.728671e-09	-5.767081e-09	-1.258035e+01	-3.821055e+02
1.460000e-06	-1.685996e-09	-5.702517e-09	-1.226978e+01	-3.778900e+02
1.470000e-06	-1.643165e-09	-5.637111e-09	-1.195809e+01	-3.736232e+02
1.480000e-06	-1.600202e-09	-5.570242e-09	-1.164542e+01	-3.693025e+02
1.490000e-06	-1.557125e-09	-5.503054e-09	-1.133193e+01	-3.649254e+02
1.500000e-06	-1.513953e-09	-5.435687e-09	-1.101775e+01	-3.604898e+02
1.510000e-06	-1.470699e-09	-5.366058e-09	-1.070297e+01	-3.559940e+02
1.520000e-06	-1.427374e-09	-5.292596e-09	-1.038767e+01	-3.514371e+02
1.530000e-06	-1.383975e-09	-5.217976e-09	-1.007183e+01	-3.468185e+02
1.540000e-06	-1.340500e-09	-5.144979e-09	-9.755442e+00	-3.421383e+02
1.550000e-06	-1.296946e-09	-5.072693e-09	-9.438482e+00	-3.373969e+02
1.560000e-06	-1.253311e-09	-4.999263e-09	-9.120929e+00	-3.325945e+02
1.570000e-06	-1.209590e-09	-4.925067e-09	-8.802753e+00	-3.277314e+02
1.580000e-06	-1.165773e-09	-4.850240e-09	-8.483875e+00	-3.228073e+02
1.590000e-06	-1.121861e-09	-4.775077e-09	-8.164304e+00	-3.178214e+02
1.600000e-06	-1.077861e-09	-4.698239e-09	-7.844096e+00	-3.127722e+02
1.610000e-06	-1.033780e-09	-4.619273e-09	-7.523298e+00	-3.076576e+02
1.620000e-06	-9.896375e-10	-4.539495e-09	-7.202051e+00	-3.024748e+02
1.630000e-06	-9.454393e-10	-4.459729e-09	-6.880400e+00	-2.972207e+02
1.640000e-06	-9.011929e-10	-4.379313e-09	-6.558398e+00	-2.918920e+02
1.650000e-06	-8.569063e-10	-4.297019e-09	-6.236103e+00	-2.864856e+02
1.660000e-06	-8.125765e-10	-4.212540e-09	-5.913494e+00	-2.809986e+02
1.670000e-06	-7.682029e-10	-4.125945e-09	-5.590566e+00	-2.754287e+02
1.680000e-06	-7.237810e-10	-4.037822e-09	-5.267287e+00	-2.697742e+02
1.690000e-06	-6.793125e-10	-3.948887e-09	-4.943668e+00	-2.640342e+02
1.700000e-06	-6.347937e-10	-3.859696e-09	-4.619683e+00	-2.582083e+02
1.710000e-06	-5.902257e-10	-3.771189e-09	-4.295341e+00	-2.522964e+02
1.720000e-06	-5.456152e-10	-3.682834e-09	-3.970688e+00	-2.462989e+02
1.730000e-06	-5.009587e-10	-3.592375e-09	-3.645701e+00	-2.402163e+02
1.740000e-06	-4.562590e-10	-3.498875e-09	-3.320400e+00	-2.340487e+02
1.750000e-06	-4.115341e-10	-3.404516e-09	-2.994916e+00	-2.277960e+02
1.760000e-06	-3.667901e-10	-3.309241e-09	-2.669293e+00	-2.214574e+02
1.770000e-06	-3.220356e-10	-3.211673e-09	-2.343593e+00	-2.150318e+02
1.780000e-06	-2.772705e-10	-3.112089e-09	-2.017816e+00	-2.085172e+02
1.790000e-06	-2.324911e-10	-3.011503e-09	-1.691935e+00	-2.019113e+02
1.800000e-06	-1.877064e-10	-2.911020e-09	-1.366016e+00	-1.952114e+02
1.810000e-06	-1.429068e-10	-2.809050e-09	-1.039988e+00	-1.884146e+02
1.820000e-06	-9.809597e-11	-2.704641e-09	-7.138778e-01	-1.815177e+02
1.830000e-06	-5.327358e-11	-2.598518e-09	-3.876841e-01	-1.745180e+02
1.840000e-06	-8.428918e-12	-2.492022e-09	-6.132823e-02	-1.674129e+02
1.850000e-06	3.642755e-11	-2.385059e-09	2.651135e-01	-1.602000e+02
1.860000e-06	8.127933e-11	-2.275134e-09	5.915212e-01	-1.528776e+02
1.870000e-06	1.261175e-10	-2.161552e-09	9.178297e-01	-1.454442e+02
1.880000e-06	1.709443e-10	-2.046533e-09	1.244056e+00	-1.378988e+02
1.890000e-06	2.157577e-10	-1.930832e-09	1.570184e+00	-1.302407e+02
1.900000e-06	2.605510e-10	-1.812834e-09	1.896166e+00	-1.224692e+02
1.910000e-06	3.053170e-10	-1.692326e-09	2.221950e+00	-1.145843e+02
1.920000e-06	3.500526e-10	-1.571533e-09	2.547512e+00	-1.065855e+02
1.930000e-06	3.947491e-10	-1.451017e-09	2.872790e+00	-9.847304e+01
1.940000e-06	4.394028e-10	-1.328610e-09	3.197756e+00	-9.024677e+01
1.950000e-06	4.840267e-10	-1.201874e-09	3.522506e+00	-8.190691e+01
1.960000e-06	5.286261e-10	-1.070769e-09	3.847077e+00	-7.345382e+01
1.970000e-06	5.731987e-10	-9.372988e-10	4.171454e+00	-6.488811e+01
1.980000e-06	6.177449e-10	-8.032424e-10	4.495638e+00	-5.621070e+01
1.990000e-06	6.622561e-10	-6.688214e-10	4.819567e+00	-4.742290e+01
2.000000e-06	7.067289e-10	-5.326804e-10	5.143217e+00	-3.852646e+01
2.010000e-06	7.511577e-10	-3.954049e-10	5.466547e+00	-2.952362e+01
2.020000e-06	7.955325e-10	-2.584757e-10	5.789483e+00	-2.041716e+01
2.030000e-06	8.398522e-10	-1.201794e-10	6.112019e+00	-1.121042e+01
2.040000e-06	8.841145e-10	1.988634e-11	6.434136e+00	-1.907299e+00
2.050000e-06	9.283145e-10	1.634595e-10	6.755801e+00	7.487694e+00
2.060000e-06	9.724465e-10	3.094456e-10	7.076970e+00	1.696944e+01
2.070000e-06	1.016504e-09	4.575167e-10	7.397596e+00	2.653221e+01
2.080000e-06	1.060488e-09	6.067247e-10	7.717689e+00	3.616963e+01
2.090000e-06	1.104402e-09	7.557959e-10	8.037269e+00	4.587468e+01
2.100000e-06	1.148246e-09	9.054219e-10	8.356346e+00	5.563973e+01
2.110000e-06	1.192023e-09	1.054631e-09	8.674933e+00	6.545652e+01
2.120000e-06	1.235724e-09	1.202249e-09	8.992963e+00	7.531623e+01
2.130000e-06	1.279343e-09	1.350081e-09	9.310401e+00	8.520952e+01
2.140000e-06	1.322881e-09	1.503642e-09	9.627246e+00	9.512663e+01
2.150000e-06	1.366336e-09	1.660921e-09	9.943487e+00	1.050575e+02
2.160000e-06	1.409711e-09	1.817665e-09	1.025915e+01	1.149917e+02
2.170000e-06	1.453008e-09	1.971194e-09	1.057425e+01	1.249189e+02
2.180000e-06	1.496219e-09	2.122651e-09	1.088871e+01	1.348286e+02
2.190000e-06	1.539330e-09	2.270639e-09	1.120245e+01	1.447103e+02
2.200000e-06	1.582336e-09	2.415590e-09	1.151543e+01	1.545538e+02
2.210000e-06	1.625222e-09	2.560374e-09	1.182753e+01	1.643489e+02
2.220000e-06	1.667966e-09	2.708023e-09	1.213860e+01	1.740856e+02
2.230000e-06	1.710563e-09	2.858313e-09	1.244859e+01	1.837540e+02
2.240000e-06	1.753012e-09	3.009410e-09	1.275751e+01	1.933443e+02
2.250000e-06	1.795308e-09	3.160047e-09	1.306533e+01	2.028470e+02
2.260000e-06	1.837442e-09	3.306474e-09	1.337195e+01	2.122525e+02
2.270000e-06	1.879419e-09	3.446287e-09	1.367743e+01	2.215513e+02
2.280000e-06	1.921238e-09	3.581053e-09	1.398177e+01	2.307344e+02
2.290000e-06	1.962907e-09	3.712984e-09	1.428502e+01	2.397930e+02
2.300000e-06	2.004435e-09	3.843202e-09	1.458723e+01	2.487185e+02
2.310000e-06	2.045816e-09	3.974858e-09	1.488839e+01	2.575034e+02
2.320000e-06	2.087057e-09	4.107340e-09	1.518852e+01	2.661405e+02
2.330000e-06	2.128157e-09	4.239205e-09	1.548762e+01	2.746239e+02
2.340000e-06	2.169115e-09	4.367456e-09	1.578569e+01	2.829486e+02
2.350000e-06	2.209920e-09	4.490568e-09	1.608265e+01	2.911108e+02
2.360000e-06	2.250564e-09	4.607564e-09	1.637844e+01	2.991078e+02
2.370000e-06	2.291057e-09	4.719366e-09	1.667312e+01	3.069383e+02
2.380000e-06	2.331402e-09	4.830478e-09	1.696673e+01	3.146016e+02
2.390000e-06	2.371605e-09	4.941103e-09	1.725931e+01	3.220984e+02
2.400000e-06	2.411674e-09	5.050143e-09	1.755091e+01	3.294298e+02
2.410000e-06	2.451606e-09	5.157517e-09	1.784151e+01	3.365976e+02
2.420000e-06	2.491370e-09	5.263357e-09	1.813089e+01	3.436039e+02
2.430000e-06	2.530925e-09	5.367555e-09	1.841875e+01	3.504512e+02
2.440000e-06	2.570241e-09	5.468947e-09	1.870487e+01	3.571419e+02
2.450000e-06	2.609307e-09	5.567177e-09	1.898918e+01	3.636787e+02
2.460000e-06	2.648129e-09	5.662134e-09	1.927170e+01	3.700642e+02
2.470000e-06	2.686727e-09	5.754339e-09	1.955259e+01	3.763014e+02
2.480000e-06	2.725118e-09	5.843636e-09	1.983199e+01	3.823932e+02
2.490000e-06	2.763316e-09	5.930431e-09	2.010997e+01	3.883431e+02
2.500000e-06	2.801337e-09	6.016087e-09	2.038666e+01	3.941549e+02
2.510000e-06	2.839183e-09	6.101076e-09	2.066209e+01	3.998327e+02
2.520000e-06	2.876853e-09	6.185889e-09	2.093623e+01	4.053813e+02
2.530000e-06	2.914334e-09	6.269310e-09	2.120900e+01	4.108054e+02
2.540000e-06	2.951624e-09	6.349876e-09	2.148037e+01	4.161103e+02
2.550000e-06	2.988732e-09	6.428292e-09	2.175043e+01	4.213011e+02
2.560000e-06	3.025661e-09	6.506011e-09	2.201918e+01	4.263826e+02
2.570000e-06	3.062405e-09	6.582042e-09	2.228658e+01	4.313592e+02
2.580000e-06	3.098944e-09	6.655474e-09	2.255249e+01	4.362347e+02
2.590000e-06	3.135225e-09	6.727297e-09	2.281652e+01	4.410119e+02
2.600000e-06	3.171199e-09	6.798891e-09	2.307833e+01	4.456930e+02
2.610000e-06	3.206866e-09	6.869906e-09	2.333789e+01	4.502790e+02
2.620000e-06	3.242263e-09	6.938037e-09	2.359549e+01	4.547704e+02
2.630000e-06	3.277434e-09	7.003952e-09	2.385145e+01	4.591669e+02
2.640000e-06	3.312407e-09	7.069614e-09	2.410596e+01	4.634681e+02
2.650000e-06	3.347185e-09	7.134232e-09	2.435906e+01	4.676733e+02
2.660000e-06	3.381755e-09	7.195650e-09	2.461064e+01	4.717823e+02
2.670000e-06	3.416101e-09	7.253016e-09	2.486060e+01	4.757953e+02
2.680000e-06	3.450220e-09	7.308294e-09	2.510890e+01	4.797133e+02
2.690000e-06	3.484117e-09	7.363190e-09	2.535557e+01	4.835379e+02
2.700000e-06	3.517802e-09	7.417864e-09	2.560072e+01	4.872716e+02
2.710000e-06	3.551284e-09	7.471497e-09	2.584438e+01	4.909174e+02
2.720000e-06	3.584532e-09	7.523104e-09	2.608635e+01	4.944790e+02
2.730000e-06	3.617500e-09	7.574291e-09	2.632627e+01	4.979602e+02
2.740000e-06	3.650185e-09	7.624617e-09	2.656413e+01	5.013645e+02
2.750000e-06	3.682615e-09	7.672878e-09	2.680014e+01	5.046955e+02
2.760000e-06	3.714790e-09	7.719763e-09	2.703430e+01	5.079559e+02
2.770000e-06	3.746699e-09	7.767127e-09	2.726651e+01	5.111478e+02
2.780000e-06	3.778327e-09	7.814258e-09	2.749668e+01	5.142728e+02
2.790000e-06	3.809669e-09	7.858171e-09	2.772477e+01	5.173317e+02
2.800000e-06	3.840741e-09	7.898510e-09	2.795090e+01	5.203248e+02
2.810000e-06	3.871555e-09	7.937768e-09	2.817514e+01	5.232523e+02
2.820000e-06	3.902101e-09	7.978255e-09	2.839744e+01	5.261143e+02
2.830000e-06	3.932353e-09	8.018129e-09	2.861760e+01	5.289112e+02
2.840000e-06	3.962258e-09	8.056264e-09	2.883523e+01	5.316439e+02
2.850000e-06	3.991774e-09	8.094149e-09	2.905003e+01	5.343138e+02
2.860000e-06	4.020915e-09	8.133161e-09	2.926211e+01	5.369230e+02
2.870000e-06	4.049742e-09	8.171287e-09	2.947189e+01	5.394744e+02
2.880000e-06	4.078305e-09	8.205573e-09	2.967976e+01	5.419709e+02
2.890000e-06	4.106606e-09	8.237026e-09	2.988572e+01	5.444159e+02
2.900000e-06	4.134618e-09	8.269327e-09	3.008958e+01	5.468129e+02
