# Temperatura_=_20.0
# Concentracion g/m^3_=_10000.0
# C_Vs_to_Am_M_A/Vsm_=_65563218390.804596
# pendiente_HvsI_1/m_=_3716.3
# ordenada_HvsI_A/m_=_1297.0
# frecuencia_Hz_=_302296.1743457025

Tiempo_(s)	Campo_(V.s)	Magnetizacion_(V.s)	Campo_(kA/m)	Magnetizacion_(A/m)
0.000000e+00	-1.043071e-06	-1.549404e-09	-6.866356e+00	-1.004356e+02
1.000000e-08	-1.043090e-06	-1.547144e-09	-6.866478e+00	-1.004967e+02
2.000000e-08	-1.042842e-06	-1.549526e-09	-6.864846e+00	-1.005215e+02
3.000000e-08	-1.042310e-06	-1.556486e-09	-6.861345e+00	-1.005101e+02
4.000000e-08	-1.041418e-06	-1.552430e-09	-6.855470e+00	-1.004623e+02
5.000000e-08	-1.040174e-06	-1.556007e-09	-6.847286e+00	-1.003783e+02
6.000000e-08	-1.038545e-06	-1.582083e-09	-6.836559e+00	-1.002581e+02
7.000000e-08	-1.036349e-06	-1.599851e-09	-6.822103e+00	-1.001017e+02
8.000000e-08	-1.033586e-06	-1.561872e-09	-6.803917e+00	-9.990913e+01
9.000000e-08	-1.030345e-06	-1.494406e-09	-6.782582e+00	-9.968050e+01
1.000000e-07	-1.026683e-06	-1.468385e-09	-6.758478e+00	-9.941589e+01
1.100000e-07	-1.022670e-06	-1.502447e-09	-6.732057e+00	-9.911539e+01
1.200000e-07	-1.018363e-06	-1.542811e-09	-6.703708e+00	-9.877911e+01
1.300000e-07	-1.013764e-06	-1.544736e-09	-6.673428e+00	-9.840717e+01
1.400000e-07	-1.008837e-06	-1.504499e-09	-6.640995e+00	-9.799971e+01
1.500000e-07	-1.003614e-06	-1.480452e-09	-6.606616e+00	-9.755687e+01
1.600000e-07	-9.980975e-07	-1.513861e-09	-6.570301e+00	-9.707882e+01
1.700000e-07	-9.922122e-07	-1.539426e-09	-6.531559e+00	-9.656572e+01
1.800000e-07	-9.859243e-07	-1.481639e-09	-6.490167e+00	-9.601775e+01
1.900000e-07	-9.793364e-07	-1.407716e-09	-6.446800e+00	-9.543513e+01
2.000000e-07	-9.724467e-07	-1.418518e-09	-6.401446e+00	-9.481805e+01
2.100000e-07	-9.651791e-07	-1.467193e-09	-6.353605e+00	-9.416675e+01
2.200000e-07	-9.575555e-07	-1.464147e-09	-6.303420e+00	-9.348145e+01
2.300000e-07	-9.496214e-07	-1.419478e-09	-6.251192e+00	-9.276240e+01
2.400000e-07	-9.414178e-07	-1.391359e-09	-6.197189e+00	-9.200986e+01
2.500000e-07	-9.330198e-07	-1.382390e-09	-6.141906e+00	-9.122411e+01
2.600000e-07	-9.244408e-07	-1.385193e-09	-6.085432e+00	-9.040543e+01
2.700000e-07	-9.155615e-07	-1.384722e-09	-6.026981e+00	-8.955410e+01
2.800000e-07	-9.062986e-07	-1.354857e-09	-5.966005e+00	-8.867045e+01
2.900000e-07	-8.966069e-07	-1.302635e-09	-5.902206e+00	-8.775478e+01
3.000000e-07	-8.864263e-07	-1.296847e-09	-5.835189e+00	-8.680744e+01
3.100000e-07	-8.756611e-07	-1.330730e-09	-5.764324e+00	-8.582875e+01
3.200000e-07	-8.643953e-07	-1.311344e-09	-5.690163e+00	-8.481908e+01
3.300000e-07	-8.527511e-07	-1.231764e-09	-5.613511e+00	-8.377878e+01
3.400000e-07	-8.407963e-07	-1.208396e-09	-5.534815e+00	-8.270824e+01
3.500000e-07	-8.286233e-07	-1.257051e-09	-5.454682e+00	-8.160784e+01
3.600000e-07	-8.161723e-07	-1.260955e-09	-5.372719e+00	-8.047797e+01
3.700000e-07	-8.033890e-07	-1.191285e-09	-5.288569e+00	-7.931904e+01
3.800000e-07	-7.902913e-07	-1.145129e-09	-5.202350e+00	-7.813148e+01
3.900000e-07	-7.768756e-07	-1.157346e-09	-5.114036e+00	-7.691571e+01
4.000000e-07	-7.631463e-07	-1.160255e-09	-5.023659e+00	-7.567217e+01
4.100000e-07	-7.491622e-07	-1.124841e-09	-4.931604e+00	-7.440130e+01
4.200000e-07	-7.349390e-07	-1.082663e-09	-4.837975e+00	-7.310358e+01
4.300000e-07	-7.204301e-07	-1.061299e-09	-4.742465e+00	-7.177945e+01
4.400000e-07	-7.055476e-07	-1.064634e-09	-4.644496e+00	-7.042941e+01
4.500000e-07	-6.903053e-07	-1.068721e-09	-4.544159e+00	-6.905394e+01
4.600000e-07	-6.748043e-07	-1.033178e-09	-4.442119e+00	-6.765353e+01
4.700000e-07	-6.589846e-07	-9.713966e-10	-4.337980e+00	-6.622869e+01
4.800000e-07	-6.428290e-07	-9.487130e-10	-4.231630e+00	-6.477994e+01
4.900000e-07	-6.263050e-07	-9.643787e-10	-4.122856e+00	-6.330779e+01
5.000000e-07	-6.094065e-07	-9.457324e-10	-4.011616e+00	-6.181278e+01
5.100000e-07	-5.922885e-07	-8.843409e-10	-3.898931e+00	-6.029545e+01
5.200000e-07	-5.750226e-07	-8.487341e-10	-3.785273e+00	-5.875635e+01
5.300000e-07	-5.575408e-07	-8.575129e-10	-3.670193e+00	-5.719603e+01
5.400000e-07	-5.398338e-07	-8.548733e-10	-3.553631e+00	-5.561504e+01
5.500000e-07	-5.220297e-07	-8.123579e-10	-3.436430e+00	-5.401398e+01
5.600000e-07	-5.041392e-07	-7.643040e-10	-3.318660e+00	-5.239340e+01
5.700000e-07	-4.860877e-07	-7.439662e-10	-3.199831e+00	-5.075390e+01
5.800000e-07	-4.679464e-07	-7.418964e-10	-3.080409e+00	-4.909607e+01
5.900000e-07	-4.497595e-07	-7.231422e-10	-2.960688e+00	-4.742050e+01
6.000000e-07	-4.314309e-07	-6.769060e-10	-2.840034e+00	-4.572780e+01
6.100000e-07	-4.129658e-07	-6.355158e-10	-2.718481e+00	-4.401859e+01
6.200000e-07	-3.943801e-07	-6.251033e-10	-2.596135e+00	-4.229347e+01
6.300000e-07	-3.756753e-07	-6.223383e-10	-2.473005e+00	-4.055307e+01
6.400000e-07	-3.568252e-07	-5.912223e-10	-2.348918e+00	-3.879802e+01
6.500000e-07	-3.378293e-07	-5.429138e-10	-2.223871e+00	-3.702895e+01
6.600000e-07	-3.187179e-07	-5.133550e-10	-2.098064e+00	-3.524649e+01
6.700000e-07	-2.994473e-07	-5.050408e-10	-1.971209e+00	-3.345131e+01
6.800000e-07	-2.800235e-07	-4.852658e-10	-1.843346e+00	-3.164403e+01
6.900000e-07	-2.604891e-07	-4.409442e-10	-1.714754e+00	-2.982531e+01
7.000000e-07	-2.407985e-07	-4.002801e-10	-1.585134e+00	-2.799581e+01
7.100000e-07	-2.209765e-07	-3.854797e-10	-1.454649e+00	-2.615619e+01
7.200000e-07	-2.010989e-07	-3.786010e-10	-1.323799e+00	-2.430711e+01
7.300000e-07	-1.811950e-07	-3.513896e-10	-1.192775e+00	-2.244924e+01
7.400000e-07	-1.612525e-07	-3.075480e-10	-1.061497e+00	-2.058324e+01
7.500000e-07	-1.411982e-07	-2.758154e-10	-9.294829e-01	-1.870980e+01
7.600000e-07	-1.210893e-07	-2.615156e-10	-7.971096e-01	-1.682959e+01
7.700000e-07	-1.009825e-07	-2.393764e-10	-6.647498e-01	-1.494329e+01
7.800000e-07	-8.084979e-08	-1.971459e-10	-5.322200e-01	-1.305157e+01
7.900000e-07	-6.070580e-08	-1.538117e-10	-3.996157e-01	-1.115512e+01
8.000000e-07	-4.054517e-08	-1.300435e-10	-2.669018e-01	-9.254626e+00
8.100000e-07	-2.035211e-08	-1.164750e-10	-1.339744e-01	-7.350771e+00
8.200000e-07	-1.668440e-10	-9.086574e-11	-1.098305e-03	-5.444242e+00
8.300000e-07	1.997864e-08	-5.195183e-11	1.315159e-01	-3.535727e+00
8.400000e-07	4.011785e-08	-2.012256e-11	2.640888e-01	-1.625915e+00
8.500000e-07	6.027482e-08	-2.759464e-12	3.967786e-01	2.845050e-01
8.600000e-07	8.040867e-08	1.825934e-11	5.293162e-01	2.194844e+00
8.700000e-07	1.004869e-07	5.668053e-11	6.614879e-01	4.104414e+00
8.800000e-07	1.205141e-07	9.961460e-11	7.933232e-01	6.012524e+00
8.900000e-07	1.405461e-07	1.283180e-10	9.251905e-01	7.918487e+00
9.000000e-07	1.606070e-07	1.456964e-10	1.057247e+00	9.821614e+00
9.100000e-07	1.805865e-07	1.710866e-10	1.188769e+00	1.172122e+01
9.200000e-07	2.004382e-07	2.092449e-10	1.319449e+00	1.361662e+01
9.300000e-07	2.202066e-07	2.423788e-10	1.449581e+00	1.550713e+01
9.400000e-07	2.398843e-07	2.623539e-10	1.579117e+00	1.739206e+01
9.500000e-07	2.594302e-07	2.837474e-10	1.707783e+00	1.927074e+01
9.600000e-07	2.788707e-07	3.191647e-10	1.835757e+00	2.114250e+01
9.700000e-07	2.982255e-07	3.594016e-10	1.963166e+00	2.300664e+01
9.800000e-07	3.174233e-07	3.873845e-10	2.089542e+00	2.486251e+01
9.900000e-07	3.364558e-07	4.048046e-10	2.214830e+00	2.670943e+01
1.000000e-06	3.553396e-07	4.278619e-10	2.339138e+00	2.854673e+01
1.010000e-06	3.740863e-07	4.625435e-10	2.462545e+00	3.037376e+01
1.020000e-06	3.926778e-07	4.954907e-10	2.584929e+00	3.218985e+01
1.030000e-06	4.111621e-07	5.180386e-10	2.706608e+00	3.399435e+01
1.040000e-06	4.295421e-07	5.391662e-10	2.827600e+00	3.578660e+01
1.050000e-06	4.477597e-07	5.691619e-10	2.947524e+00	3.756597e+01
1.060000e-06	4.658880e-07	6.037047e-10	3.066859e+00	3.933181e+01
1.070000e-06	4.838879e-07	6.310222e-10	3.185350e+00	4.108347e+01
1.080000e-06	5.017592e-07	6.515107e-10	3.302993e+00	4.282034e+01
1.090000e-06	5.195781e-07	6.746746e-10	3.420292e+00	4.454178e+01
1.100000e-06	5.372911e-07	7.064157e-10	3.536893e+00	4.624717e+01
1.110000e-06	5.548210e-07	7.378609e-10	3.652289e+00	4.793590e+01
1.120000e-06	5.721972e-07	7.610437e-10	3.766674e+00	4.960736e+01
1.130000e-06	5.894031e-07	7.804030e-10	3.879937e+00	5.126094e+01
1.140000e-06	6.063862e-07	8.057456e-10	3.991734e+00	5.289605e+01
1.150000e-06	6.230408e-07	8.357257e-10	4.101368e+00	5.451210e+01
1.160000e-06	6.394184e-07	8.595291e-10	4.209180e+00	5.610850e+01
1.170000e-06	6.555181e-07	8.751865e-10	4.315161e+00	5.768468e+01
1.180000e-06	6.711894e-07	8.933490e-10	4.418322e+00	5.924007e+01
1.190000e-06	6.865407e-07	9.213312e-10	4.519377e+00	6.077411e+01
1.200000e-06	7.016412e-07	9.522323e-10	4.618781e+00	6.228625e+01
1.210000e-06	7.164052e-07	9.765075e-10	4.715970e+00	6.377594e+01
1.220000e-06	7.308653e-07	9.933655e-10	4.811158e+00	6.524264e+01
1.230000e-06	7.451093e-07	1.012666e-09	4.904924e+00	6.668582e+01
1.240000e-06	7.590701e-07	1.037772e-09	4.996826e+00	6.810497e+01
1.250000e-06	7.727339e-07	1.060652e-09	5.086772e+00	6.949956e+01
1.260000e-06	7.860978e-07	1.075230e-09	5.174744e+00	7.086911e+01
1.270000e-06	7.991440e-07	1.089919e-09	5.260625e+00	7.221311e+01
1.280000e-06	8.119051e-07	1.114442e-09	5.344629e+00	7.353108e+01
1.290000e-06	8.244251e-07	1.143735e-09	5.427046e+00	7.482254e+01
1.300000e-06	8.367221e-07	1.166182e-09	5.507995e+00	7.608703e+01
1.310000e-06	8.487090e-07	1.180059e-09	5.586903e+00	7.732409e+01
1.320000e-06	8.603040e-07	1.195724e-09	5.663231e+00	7.853328e+01
1.330000e-06	8.714500e-07	1.216514e-09	5.736603e+00	7.971415e+01
1.340000e-06	8.821797e-07	1.234919e-09	5.807234e+00	8.086629e+01
1.350000e-06	8.924710e-07	1.246220e-09	5.874980e+00	8.198927e+01
1.360000e-06	9.021739e-07	1.256859e-09	5.938853e+00	8.308270e+01
1.370000e-06	9.113833e-07	1.276609e-09	5.999476e+00	8.414617e+01
1.380000e-06	9.202764e-07	1.302260e-09	6.058018e+00	8.517931e+01
1.390000e-06	9.289246e-07	1.322402e-09	6.114948e+00	8.618174e+01
1.400000e-06	9.373438e-07	1.334801e-09	6.170370e+00	8.715310e+01
1.410000e-06	9.455929e-07	1.346366e-09	6.224672e+00	8.809304e+01
1.420000e-06	9.536336e-07	1.361944e-09	6.277603e+00	8.900121e+01
1.430000e-06	9.613408e-07	1.376759e-09	6.328338e+00	8.987730e+01
1.440000e-06	9.686914e-07	1.385664e-09	6.376726e+00	9.072099e+01
1.450000e-06	9.757142e-07	1.392426e-09	6.422955e+00	9.153197e+01
1.460000e-06	9.824226e-07	1.404524e-09	6.467116e+00	9.230994e+01
1.470000e-06	9.887944e-07	1.422556e-09	6.509060e+00	9.305464e+01
1.480000e-06	9.948380e-07	1.438198e-09	6.548844e+00	9.376579e+01
1.490000e-06	1.000522e-06	1.446920e-09	6.586261e+00	9.444312e+01
1.500000e-06	1.005858e-06	1.454551e-09	6.621389e+00	9.508641e+01
1.510000e-06	1.010887e-06	1.465685e-09	6.654494e+00	9.569542e+01
1.520000e-06	1.015618e-06	1.476577e-09	6.685639e+00	9.626992e+01
1.530000e-06	1.020089e-06	1.483661e-09	6.715068e+00	9.680971e+01
1.540000e-06	1.024338e-06	1.488360e-09	6.743037e+00	9.731460e+01
1.550000e-06	1.028328e-06	1.495127e-09	6.769301e+00	9.778440e+01
1.560000e-06	1.031934e-06	1.504705e-09	6.793043e+00	9.821895e+01
1.570000e-06	1.035036e-06	1.512475e-09	6.813459e+00	9.861808e+01
1.580000e-06	1.037584e-06	1.516581e-09	6.830236e+00	9.898165e+01
1.590000e-06	1.039596e-06	1.520119e-09	6.843480e+00	9.930954e+01
1.600000e-06	1.041140e-06	1.525393e-09	6.853645e+00	9.960162e+01
1.610000e-06	1.042276e-06	1.530440e-09	6.861119e+00	9.985779e+01
1.620000e-06	1.043059e-06	1.531371e-09	6.866275e+00	1.000780e+02
1.630000e-06	1.043576e-06	1.530439e-09	6.869677e+00	1.002620e+02
1.640000e-06	1.043845e-06	1.534087e-09	6.871450e+00	1.004100e+02
1.650000e-06	1.043823e-06	1.542889e-09	6.871303e+00	1.005217e+02
1.660000e-06	1.043450e-06	1.550407e-09	6.868849e+00	1.005972e+02
1.670000e-06	1.042706e-06	1.548684e-09	6.863949e+00	1.006364e+02
1.680000e-06	1.041574e-06	1.539431e-09	6.856500e+00	1.006393e+02
1.690000e-06	1.040066e-06	1.538506e-09	6.846574e+00	1.006060e+02
1.700000e-06	1.038265e-06	1.529577e-09	6.834716e+00	1.005363e+02
1.710000e-06	1.036139e-06	1.504242e-09	6.820722e+00	1.004304e+02
1.720000e-06	1.033671e-06	1.492013e-09	6.804476e+00	1.002884e+02
1.730000e-06	1.030911e-06	1.529492e-09	6.786309e+00	1.001101e+02
1.740000e-06	1.027856e-06	1.590078e-09	6.766194e+00	9.989576e+01
1.750000e-06	1.024518e-06	1.585897e-09	6.744221e+00	9.964539e+01
1.760000e-06	1.020940e-06	1.518725e-09	6.720671e+00	9.935910e+01
1.770000e-06	1.017139e-06	1.477499e-09	6.695645e+00	9.903699e+01
1.780000e-06	1.012978e-06	1.497814e-09	6.668257e+00	9.867917e+01
1.790000e-06	1.008367e-06	1.527016e-09	6.637906e+00	9.828576e+01
1.800000e-06	1.003289e-06	1.504277e-09	6.604475e+00	9.785693e+01
1.810000e-06	9.976271e-07	1.443878e-09	6.567204e+00	9.739281e+01
1.820000e-06	9.913442e-07	1.436487e-09	6.525845e+00	9.689357e+01
1.830000e-06	9.846005e-07	1.489318e-09	6.481452e+00	9.635940e+01
1.840000e-06	9.775435e-07	1.510904e-09	6.434997e+00	9.579049e+01
1.850000e-06	9.702162e-07	1.460320e-09	6.386764e+00	9.518705e+01
1.860000e-06	9.625915e-07	1.404506e-09	6.336571e+00	9.454928e+01
1.870000e-06	9.546788e-07	1.401057e-09	6.284483e+00	9.387743e+01
1.880000e-06	9.465088e-07	1.425905e-09	6.230702e+00	9.317173e+01
1.890000e-06	9.380656e-07	1.430041e-09	6.175121e+00	9.243244e+01
1.900000e-06	9.293007e-07	1.404681e-09	6.117424e+00	9.165983e+01
1.910000e-06	9.202075e-07	1.366789e-09	6.057565e+00	9.085417e+01
1.920000e-06	9.108629e-07	1.349622e-09	5.996051e+00	9.001575e+01
1.930000e-06	9.012244e-07	1.370044e-09	5.932602e+00	8.914488e+01
1.940000e-06	8.912057e-07	1.376224e-09	5.866651e+00	8.824187e+01
1.950000e-06	8.808709e-07	1.316541e-09	5.798619e+00	8.730705e+01
1.960000e-06	8.702273e-07	1.261389e-09	5.728554e+00	8.634076e+01
1.970000e-06	8.592417e-07	1.295548e-09	5.656238e+00	8.534334e+01
1.980000e-06	8.478962e-07	1.335857e-09	5.581552e+00	8.431515e+01
1.990000e-06	8.362377e-07	1.277267e-09	5.504806e+00	8.325656e+01
2.000000e-06	8.243848e-07	1.193116e-09	5.426781e+00	8.216797e+01
2.010000e-06	8.122416e-07	1.204422e-09	5.346844e+00	8.104975e+01
2.020000e-06	7.996538e-07	1.247178e-09	5.263981e+00	7.990231e+01
2.030000e-06	7.866267e-07	1.215871e-09	5.178226e+00	7.872607e+01
2.040000e-06	7.731537e-07	1.150515e-09	5.089536e+00	7.752145e+01
2.050000e-06	7.591306e-07	1.133623e-09	4.997224e+00	7.628889e+01
2.060000e-06	7.446233e-07	1.141796e-09	4.901725e+00	7.502882e+01
2.070000e-06	7.298233e-07	1.129068e-09	4.804299e+00	7.374171e+01
2.080000e-06	7.147507e-07	1.098343e-09	4.705079e+00	7.242802e+01
2.090000e-06	6.994404e-07	1.057062e-09	4.604294e+00	7.108823e+01
2.100000e-06	6.840116e-07	1.027294e-09	4.502729e+00	6.972281e+01
2.110000e-06	6.685038e-07	1.035363e-09	4.400643e+00	6.833226e+01
2.120000e-06	6.528649e-07	1.042217e-09	4.297695e+00	6.691708e+01
2.130000e-06	6.370290e-07	9.896466e-10	4.193450e+00	6.547778e+01
2.140000e-06	6.210186e-07	9.281340e-10	4.088057e+00	6.401488e+01
2.150000e-06	6.047345e-07	9.287958e-10	3.980861e+00	6.252891e+01
2.160000e-06	5.881669e-07	9.441644e-10	3.871800e+00	6.102041e+01
2.170000e-06	5.713998e-07	9.040015e-10	3.761425e+00	5.948991e+01
2.180000e-06	5.544001e-07	8.459600e-10	3.649519e+00	5.793798e+01
2.190000e-06	5.371774e-07	8.313139e-10	3.536145e+00	5.636517e+01
2.200000e-06	5.198062e-07	8.376492e-10	3.421793e+00	5.477204e+01
2.210000e-06	5.023438e-07	8.169166e-10	3.306841e+00	5.315918e+01
2.220000e-06	4.847694e-07	7.683937e-10	3.191152e+00	5.152717e+01
2.230000e-06	4.670528e-07	7.241082e-10	3.074527e+00	4.987659e+01
2.240000e-06	4.492087e-07	7.060330e-10	2.957062e+00	4.820804e+01
2.250000e-06	4.312559e-07	7.019200e-10	2.838882e+00	4.652212e+01
2.260000e-06	4.131326e-07	6.777158e-10	2.719579e+00	4.481944e+01
2.270000e-06	3.948385e-07	6.314022e-10	2.599153e+00	4.310061e+01
2.280000e-06	3.763855e-07	5.993518e-10	2.477680e+00	4.136626e+01
2.290000e-06	3.577548e-07	5.935481e-10	2.355037e+00	3.961701e+01
2.300000e-06	3.389670e-07	5.825976e-10	2.231360e+00	3.785350e+01
2.310000e-06	3.200390e-07	5.428424e-10	2.106761e+00	3.607635e+01
2.320000e-06	3.009796e-07	4.961073e-10	1.981296e+00	3.428621e+01
2.330000e-06	2.818031e-07	4.722455e-10	1.855060e+00	3.248372e+01
2.340000e-06	2.625519e-07	4.642547e-10	1.728333e+00	3.066954e+01
2.350000e-06	2.432706e-07	4.404818e-10	1.601408e+00	2.884432e+01
2.360000e-06	2.239552e-07	3.955633e-10	1.474258e+00	2.700871e+01
2.370000e-06	2.045896e-07	3.601010e-10	1.346777e+00	2.516339e+01
2.380000e-06	1.851790e-07	3.478871e-10	1.219001e+00	2.330902e+01
2.390000e-06	1.657482e-07	3.349162e-10	1.091092e+00	2.144625e+01
2.400000e-06	1.463126e-07	3.000511e-10	9.631501e-01	1.957578e+01
2.410000e-06	1.268616e-07	2.580715e-10	8.351080e-01	1.769827e+01
2.420000e-06	1.074082e-07	2.326420e-10	7.070491e-01	1.581440e+01
2.430000e-06	8.794763e-08	2.197868e-10	5.789438e-01	1.392485e+01
2.440000e-06	6.846402e-08	1.960876e-10	4.506866e-01	1.203030e+01
2.450000e-06	4.898420e-08	1.556601e-10	3.224544e-01	1.013143e+01
2.460000e-06	2.949915e-08	1.182738e-10	1.941877e-01	8.228936e+00
2.470000e-06	9.991875e-09	9.829846e-11	6.577477e-02	6.323497e+00
2.480000e-06	-9.504997e-09	8.377621e-11	-6.256973e-02	4.415802e+00
2.490000e-06	-2.900672e-08	5.527655e-11	-1.909462e-01	2.506538e+00
2.500000e-06	-4.851516e-08	1.683061e-11	-3.193668e-01	5.963957e-01
2.510000e-06	-6.800115e-08	-1.254864e-11	-4.476397e-01	-1.313937e+00
2.520000e-06	-8.748150e-08	-2.930537e-11	-5.758754e-01	-3.223769e+00
2.530000e-06	-1.069794e-07	-5.138725e-11	-7.042269e-01	-5.132414e+00
2.540000e-06	-1.264731e-07	-9.006836e-11	-8.325504e-01	-7.039181e+00
2.550000e-06	-1.459310e-07	-1.300133e-10	-9.606382e-01	-8.943383e+00
2.560000e-06	-1.653613e-07	-1.538798e-10	-1.088545e+00	-1.084433e+01
2.570000e-06	-1.847632e-07	-1.700877e-10	-1.216264e+00	-1.274135e+01
2.580000e-06	-2.041424e-07	-1.973376e-10	-1.343834e+00	-1.463374e+01
2.590000e-06	-2.234887e-07	-2.345197e-10	-1.471187e+00	-1.652082e+01
2.600000e-06	-2.427743e-07	-2.648575e-10	-1.598141e+00	-1.840192e+01
2.610000e-06	-2.620100e-07	-2.839653e-10	-1.724766e+00	-2.027635e+01
2.620000e-06	-2.811224e-07	-3.061811e-10	-1.850580e+00	-2.214345e+01
2.630000e-06	-3.001363e-07	-3.400085e-10	-1.975745e+00	-2.400252e+01
2.640000e-06	-3.190971e-07	-3.759732e-10	-2.100561e+00	-2.585292e+01
2.650000e-06	-3.379001e-07	-4.015047e-10	-2.224337e+00	-2.769396e+01
2.660000e-06	-3.565943e-07	-4.205814e-10	-2.347398e+00	-2.952498e+01
2.670000e-06	-3.751917e-07	-4.474903e-10	-2.469821e+00	-3.134532e+01
2.680000e-06	-3.935940e-07	-4.830845e-10	-2.590960e+00	-3.315433e+01
2.690000e-06	-4.117767e-07	-5.136916e-10	-2.710654e+00	-3.495135e+01
2.700000e-06	-4.297733e-07	-5.336188e-10	-2.829122e+00	-3.673574e+01
2.710000e-06	-4.476560e-07	-5.535798e-10	-2.946841e+00	-3.850685e+01
2.720000e-06	-4.654314e-07	-5.836793e-10	-3.063853e+00	-4.026403e+01
2.730000e-06	-4.830570e-07	-6.177348e-10	-3.179880e+00	-4.200667e+01
2.740000e-06	-5.005424e-07	-6.447382e-10	-3.294983e+00	-4.373412e+01
2.750000e-06	-5.179500e-07	-6.666205e-10	-3.409574e+00	-4.544577e+01
2.760000e-06	-5.351918e-07	-6.932113e-10	-3.523074e+00	-4.714100e+01
2.770000e-06	-5.522104e-07	-7.263901e-10	-3.635105e+00	-4.881919e+01
2.780000e-06	-5.690287e-07	-7.554883e-10	-3.745816e+00	-5.047975e+01
2.790000e-06	-5.856281e-07	-7.749301e-10	-3.855087e+00	-5.212206e+01
2.800000e-06	-6.020500e-07	-7.926035e-10	-3.963190e+00	-5.374555e+01
2.810000e-06	-6.182417e-07	-8.170132e-10	-4.069777e+00	-5.534962e+01
2.820000e-06	-6.341998e-07	-8.465408e-10	-4.174827e+00	-5.693369e+01
2.830000e-06	-6.500084e-07	-8.729667e-10	-4.278891e+00	-5.849719e+01
2.840000e-06	-6.656691e-07	-8.948918e-10	-4.381983e+00	-6.003957e+01
2.850000e-06	-6.811979e-07	-9.200357e-10	-4.484207e+00	-6.156025e+01
2.860000e-06	-6.965769e-07	-9.509789e-10	-4.585444e+00	-6.305870e+01
2.870000e-06	-7.118061e-07	-9.791712e-10	-4.685695e+00	-6.453438e+01
2.880000e-06	-7.268533e-07	-9.983353e-10	-4.784748e+00	-6.598674e+01
2.890000e-06	-7.415458e-07	-1.012893e-09	-4.881466e+00	-6.741527e+01
2.900000e-06	-7.557802e-07	-1.032388e-09	-4.975168e+00	-6.881945e+01
2.910000e-06	-7.695382e-07	-1.059023e-09	-5.065735e+00	-7.019878e+01
2.920000e-06	-7.828430e-07	-1.085000e-09	-5.153318e+00	-7.155275e+01
2.930000e-06	-7.957239e-07	-1.107586e-09	-5.238111e+00	-7.288088e+01
2.940000e-06	-8.081826e-07	-1.131233e-09	-5.320125e+00	-7.418269e+01
