# Temperatura_=_20.0
# Concentracion g/m^3_=_10000.0
# C_Vs_to_Am_M_A/Vsm_=_65563218390.804596
# pendiente_HvsI_1/m_=_3716.3
# ordenada_HvsI_A/m_=_1297.0
# frecuencia_Hz_=_302298.42089438776

Tiempo_(s)	Campo_(V.s)	Magnetizacion_(V.s)	Campo_(kA/m)	Magnetizacion_(A/m)
0.000000e+00	-1.041913e-06	-1.540815e-09	-6.864519e+00	-1.001374e+02
1.000000e-08	-1.041751e-06	-1.535181e-09	-6.863455e+00	-1.001985e+02
2.000000e-08	-1.041382e-06	-1.539653e-09	-6.861019e+00	-1.002233e+02
3.000000e-08	-1.040774e-06	-1.546532e-09	-6.857015e+00	-1.002119e+02
4.000000e-08	-1.039860e-06	-1.546726e-09	-6.850995e+00	-1.001644e+02
5.000000e-08	-1.038600e-06	-1.553033e-09	-6.842694e+00	-1.000807e+02
6.000000e-08	-1.036879e-06	-1.572805e-09	-6.831357e+00	-9.996093e+01
7.000000e-08	-1.034582e-06	-1.589661e-09	-6.816224e+00	-9.980504e+01
8.000000e-08	-1.031702e-06	-1.545609e-09	-6.797246e+00	-9.961312e+01
9.000000e-08	-1.028277e-06	-1.474441e-09	-6.774680e+00	-9.938524e+01
1.000000e-07	-1.024392e-06	-1.440124e-09	-6.749086e+00	-9.912148e+01
1.100000e-07	-1.020194e-06	-1.481745e-09	-6.721430e+00	-9.882194e+01
1.200000e-07	-1.015764e-06	-1.542321e-09	-6.692244e+00	-9.848673e+01
1.300000e-07	-1.011078e-06	-1.549982e-09	-6.661369e+00	-9.811596e+01
1.400000e-07	-1.006147e-06	-1.500507e-09	-6.628879e+00	-9.770978e+01
1.500000e-07	-1.000903e-06	-1.467722e-09	-6.594334e+00	-9.726832e+01
1.600000e-07	-9.952725e-07	-1.497710e-09	-6.557235e+00	-9.679175e+01
1.700000e-07	-9.892522e-07	-1.528654e-09	-6.517571e+00	-9.628024e+01
1.800000e-07	-9.829047e-07	-1.481714e-09	-6.475751e+00	-9.573397e+01
1.900000e-07	-9.763084e-07	-1.403429e-09	-6.432293e+00	-9.515314e+01
2.000000e-07	-9.693575e-07	-1.400233e-09	-6.386497e+00	-9.453796e+01
2.100000e-07	-9.619874e-07	-1.453656e-09	-6.337940e+00	-9.388865e+01
2.200000e-07	-9.542664e-07	-1.468144e-09	-6.287071e+00	-9.320544e+01
2.300000e-07	-9.462524e-07	-1.418434e-09	-6.234272e+00	-9.248859e+01
2.400000e-07	-9.379988e-07	-1.371777e-09	-6.179894e+00	-9.173835e+01
2.500000e-07	-9.295751e-07	-1.358258e-09	-6.124396e+00	-9.095500e+01
2.600000e-07	-9.209956e-07	-1.374312e-09	-6.067870e+00	-9.013880e+01
2.700000e-07	-9.121336e-07	-1.381593e-09	-6.009484e+00	-8.929007e+01
2.800000e-07	-9.028288e-07	-1.356377e-09	-5.948180e+00	-8.840910e+01
2.900000e-07	-8.929727e-07	-1.305094e-09	-5.883245e+00	-8.749621e+01
3.000000e-07	-8.826367e-07	-1.292182e-09	-5.815147e+00	-8.655173e+01
3.100000e-07	-8.719036e-07	-1.318874e-09	-5.744434e+00	-8.557601e+01
3.200000e-07	-8.606285e-07	-1.307469e-09	-5.670149e+00	-8.456939e+01
3.300000e-07	-8.489019e-07	-1.232357e-09	-5.592890e+00	-8.353224e+01
3.400000e-07	-8.368990e-07	-1.194062e-09	-5.513810e+00	-8.246493e+01
3.500000e-07	-8.246017e-07	-1.237743e-09	-5.432791e+00	-8.136785e+01
3.600000e-07	-8.120478e-07	-1.263770e-09	-5.350081e+00	-8.024139e+01
3.700000e-07	-7.992194e-07	-1.208114e-09	-5.265562e+00	-7.908596e+01
3.800000e-07	-7.860745e-07	-1.144691e-09	-5.178959e+00	-7.790197e+01
3.900000e-07	-7.726328e-07	-1.142991e-09	-5.090400e+00	-7.668986e+01
4.000000e-07	-7.589013e-07	-1.157515e-09	-4.999932e+00	-7.545006e+01
4.100000e-07	-7.448928e-07	-1.131756e-09	-4.907638e+00	-7.418302e+01
4.200000e-07	-7.306419e-07	-1.080588e-09	-4.813748e+00	-7.288919e+01
4.300000e-07	-7.161141e-07	-1.051178e-09	-4.718033e+00	-7.156904e+01
4.400000e-07	-7.012495e-07	-1.056744e-09	-4.620099e+00	-7.022306e+01
4.500000e-07	-6.860424e-07	-1.067244e-09	-4.519909e+00	-6.885171e+01
4.600000e-07	-6.705447e-07	-1.037673e-09	-4.417805e+00	-6.745550e+01
4.700000e-07	-6.546383e-07	-9.753627e-10	-4.313007e+00	-6.603494e+01
4.800000e-07	-6.384326e-07	-9.436429e-10	-4.206238e+00	-6.459053e+01
4.900000e-07	-6.219917e-07	-9.576705e-10	-4.097919e+00	-6.312280e+01
5.000000e-07	-6.051449e-07	-9.518452e-10	-3.986925e+00	-6.163227e+01
5.100000e-07	-5.879428e-07	-8.948744e-10	-3.873592e+00	-6.011948e+01
5.200000e-07	-5.704488e-07	-8.452861e-10	-3.758335e+00	-5.858498e+01
5.300000e-07	-5.528260e-07	-8.449136e-10	-3.642229e+00	-5.702933e+01
5.400000e-07	-5.351109e-07	-8.510666e-10	-3.525515e+00	-5.545308e+01
5.500000e-07	-5.172293e-07	-8.170716e-10	-3.407704e+00	-5.385680e+01
5.600000e-07	-4.992264e-07	-7.632491e-10	-3.289094e+00	-5.224107e+01
5.700000e-07	-4.811028e-07	-7.376469e-10	-3.169689e+00	-5.060646e+01
5.800000e-07	-4.628776e-07	-7.418959e-10	-3.049614e+00	-4.895358e+01
5.900000e-07	-4.445698e-07	-7.324803e-10	-2.928995e+00	-4.728302e+01
6.000000e-07	-4.261215e-07	-6.870910e-10	-2.807451e+00	-4.559538e+01
6.100000e-07	-4.075622e-07	-6.374144e-10	-2.685175e+00	-4.389126e+01
6.200000e-07	-3.889599e-07	-6.193744e-10	-2.562616e+00	-4.217129e+01
6.300000e-07	-3.702961e-07	-6.180546e-10	-2.439652e+00	-4.043609e+01
6.400000e-07	-3.515109e-07	-5.944337e-10	-2.315888e+00	-3.868627e+01
6.500000e-07	-3.325288e-07	-5.474007e-10	-2.190827e+00	-3.692247e+01
6.600000e-07	-3.133818e-07	-5.137653e-10	-2.064679e+00	-3.514533e+01
6.700000e-07	-2.941477e-07	-5.068417e-10	-1.937957e+00	-3.335549e+01
6.800000e-07	-2.748026e-07	-4.953593e-10	-1.810505e+00	-3.155360e+01
6.900000e-07	-2.553523e-07	-4.553658e-10	-1.682358e+00	-2.974030e+01
7.000000e-07	-2.357704e-07	-4.084679e-10	-1.553345e+00	-2.791625e+01
7.100000e-07	-2.160958e-07	-3.859084e-10	-1.423722e+00	-2.608210e+01
7.200000e-07	-1.963339e-07	-3.801950e-10	-1.293523e+00	-2.423852e+01
7.300000e-07	-1.764643e-07	-3.582319e-10	-1.162614e+00	-2.238618e+01
7.400000e-07	-1.565177e-07	-3.135991e-10	-1.031198e+00	-2.052574e+01
7.500000e-07	-1.365042e-07	-2.758239e-10	-8.993420e-01	-1.865787e+01
7.600000e-07	-1.164319e-07	-2.605369e-10	-7.670976e-01	-1.678325e+01
7.700000e-07	-9.634908e-08	-2.456966e-10	-6.347845e-01	-1.490255e+01
7.800000e-07	-7.623217e-08	-2.087104e-10	-5.022466e-01	-1.301646e+01
7.900000e-07	-5.603458e-08	-1.628907e-10	-3.691772e-01	-1.112564e+01
8.000000e-07	-3.583846e-08	-1.347463e-10	-2.361174e-01	-9.230796e+00
8.100000e-07	-1.568214e-08	-1.212197e-10	-1.033199e-01	-7.332595e+00
8.200000e-07	4.472027e-09	-9.733324e-11	2.946342e-02	-5.431727e+00
8.300000e-07	2.463027e-08	-5.476641e-11	1.622736e-01	-3.528877e+00
8.400000e-07	4.474558e-08	-1.555103e-11	2.948010e-01	-1.624733e+00
8.500000e-07	6.486135e-08	5.541901e-12	4.273313e-01	2.800188e-01
8.600000e-07	8.499454e-08	2.245841e-11	5.599765e-01	2.184691e+00
8.700000e-07	1.050670e-07	5.428906e-11	6.922214e-01	4.088597e+00
8.800000e-07	1.250863e-07	9.663957e-11	8.241165e-01	5.991050e+00
8.900000e-07	1.450815e-07	1.281958e-10	9.558521e-01	7.891363e+00
9.000000e-07	1.649958e-07	1.469999e-10	1.087055e+00	9.788850e+00
9.100000e-07	1.848848e-07	1.705601e-10	1.218092e+00	1.168283e+01
9.200000e-07	2.047229e-07	2.084716e-10	1.348793e+00	1.357261e+01
9.300000e-07	2.243698e-07	2.473758e-10	1.478234e+00	1.545752e+01
9.400000e-07	2.439428e-07	2.719949e-10	1.607188e+00	1.733687e+01
9.500000e-07	2.635255e-07	2.894576e-10	1.736206e+00	1.921000e+01
9.600000e-07	2.829618e-07	3.174918e-10	1.864261e+00	2.107621e+01
9.700000e-07	3.022123e-07	3.546958e-10	1.991090e+00	2.293484e+01
9.800000e-07	3.213741e-07	3.850639e-10	2.117335e+00	2.478522e+01
9.900000e-07	3.404040e-07	4.052698e-10	2.242712e+00	2.662667e+01
1.000000e-06	3.592909e-07	4.279687e-10	2.367146e+00	2.845854e+01
1.010000e-06	3.780691e-07	4.629200e-10	2.490863e+00	3.028017e+01
1.020000e-06	3.967235e-07	5.000420e-10	2.613766e+00	3.209089e+01
1.030000e-06	4.152334e-07	5.256206e-10	2.735716e+00	3.389006e+01
1.040000e-06	4.335698e-07	5.437172e-10	2.856524e+00	3.567703e+01
1.050000e-06	4.517740e-07	5.669686e-10	2.976459e+00	3.745114e+01
1.060000e-06	4.698744e-07	5.989895e-10	3.095712e+00	3.921176e+01
1.070000e-06	4.878944e-07	6.285076e-10	3.214435e+00	4.095826e+01
1.080000e-06	5.058210e-07	6.492297e-10	3.332542e+00	4.269000e+01
1.090000e-06	5.235993e-07	6.683083e-10	3.449672e+00	4.440637e+01
1.100000e-06	5.412844e-07	6.961171e-10	3.566188e+00	4.610673e+01
1.110000e-06	5.588278e-07	7.300358e-10	3.681771e+00	4.779048e+01
1.120000e-06	5.761332e-07	7.586397e-10	3.795785e+00	4.945701e+01
1.130000e-06	5.932341e-07	7.802147e-10	3.908453e+00	5.110572e+01
1.140000e-06	6.101483e-07	8.038325e-10	4.019890e+00	5.273602e+01
1.150000e-06	6.268804e-07	8.314346e-10	4.130127e+00	5.434730e+01
1.160000e-06	6.432824e-07	8.543222e-10	4.238190e+00	5.593901e+01
1.170000e-06	6.592556e-07	8.689813e-10	4.343427e+00	5.751055e+01
1.180000e-06	6.748641e-07	8.841650e-10	4.446262e+00	5.906137e+01
1.190000e-06	6.900649e-07	9.098819e-10	4.546411e+00	6.059090e+01
1.200000e-06	7.049375e-07	9.413432e-10	4.644397e+00	6.209859e+01
1.210000e-06	7.196007e-07	9.682762e-10	4.741004e+00	6.358390e+01
1.220000e-06	7.340418e-07	9.878753e-10	4.836148e+00	6.504630e+01
1.230000e-06	7.482111e-07	1.009310e-09	4.929501e+00	6.648524e+01
1.240000e-06	7.620870e-07	1.034078e-09	5.020920e+00	6.790023e+01
1.250000e-06	7.756745e-07	1.054553e-09	5.110440e+00	6.929073e+01
1.260000e-06	7.889319e-07	1.068750e-09	5.197785e+00	7.065626e+01
1.270000e-06	8.018651e-07	1.084368e-09	5.282994e+00	7.199633e+01
1.280000e-06	8.145362e-07	1.108663e-09	5.366475e+00	7.331043e+01
1.290000e-06	8.269754e-07	1.136827e-09	5.448429e+00	7.459812e+01
1.300000e-06	8.391461e-07	1.158559e-09	5.528615e+00	7.585890e+01
1.310000e-06	8.509955e-07	1.172808e-09	5.606683e+00	7.709235e+01
1.320000e-06	8.624726e-07	1.188965e-09	5.682299e+00	7.829800e+01
1.330000e-06	8.734720e-07	1.210084e-09	5.754767e+00	7.947543e+01
1.340000e-06	8.839297e-07	1.229507e-09	5.823666e+00	8.062420e+01
1.350000e-06	8.939490e-07	1.242015e-09	5.889677e+00	8.174391e+01
1.360000e-06	9.035656e-07	1.253190e-09	5.953035e+00	8.283415e+01
1.370000e-06	9.127985e-07	1.271034e-09	6.013865e+00	8.389452e+01
1.380000e-06	9.216881e-07	1.292338e-09	6.072433e+00	8.492465e+01
1.390000e-06	9.303038e-07	1.308416e-09	6.129197e+00	8.592417e+01
1.400000e-06	9.387298e-07	1.318733e-09	6.184711e+00	8.689270e+01
1.410000e-06	9.469457e-07	1.330875e-09	6.238840e+00	8.782991e+01
1.420000e-06	9.548635e-07	1.348515e-09	6.291005e+00	8.873546e+01
1.430000e-06	9.624482e-07	1.365751e-09	6.340976e+00	8.960901e+01
1.440000e-06	9.697254e-07	1.378071e-09	6.388921e+00	9.045025e+01
1.450000e-06	9.766780e-07	1.388287e-09	6.434727e+00	9.125889e+01
1.460000e-06	9.832915e-07	1.400492e-09	6.478300e+00	9.203462e+01
1.470000e-06	9.895546e-07	1.414128e-09	6.519564e+00	9.277717e+01
1.480000e-06	9.954799e-07	1.424448e-09	6.558601e+00	9.348627e+01
1.490000e-06	1.001081e-06	1.430988e-09	6.595505e+00	9.416167e+01
1.500000e-06	1.006356e-06	1.438954e-09	6.630256e+00	9.480311e+01
1.510000e-06	1.011332e-06	1.452115e-09	6.663044e+00	9.541037e+01
1.520000e-06	1.016035e-06	1.466614e-09	6.694030e+00	9.598324e+01
1.530000e-06	1.020513e-06	1.477125e-09	6.723526e+00	9.652150e+01
1.540000e-06	1.024751e-06	1.483927e-09	6.751453e+00	9.702495e+01
1.550000e-06	1.028614e-06	1.489938e-09	6.776901e+00	9.749343e+01
1.560000e-06	1.032030e-06	1.495748e-09	6.799406e+00	9.792675e+01
1.570000e-06	1.034905e-06	1.499542e-09	6.818350e+00	9.832477e+01
1.580000e-06	1.037219e-06	1.501941e-09	6.833594e+00	9.868733e+01
1.590000e-06	1.039073e-06	1.506603e-09	6.845807e+00	9.901431e+01
1.600000e-06	1.040480e-06	1.514377e-09	6.855083e+00	9.930559e+01
1.610000e-06	1.041534e-06	1.522576e-09	6.862022e+00	9.956107e+01
1.620000e-06	1.042307e-06	1.526923e-09	6.867119e+00	9.978065e+01
1.630000e-06	1.042781e-06	1.529592e-09	6.870241e+00	9.996425e+01
1.640000e-06	1.042965e-06	1.534814e-09	6.871450e+00	1.001118e+02
1.650000e-06	1.042823e-06	1.541270e-09	6.870514e+00	1.002233e+02
1.660000e-06	1.042347e-06	1.547171e-09	6.867379e+00	1.002986e+02
1.670000e-06	1.041526e-06	1.541658e-09	6.861972e+00	1.003378e+02
1.680000e-06	1.040327e-06	1.532834e-09	6.854074e+00	1.003408e+02
1.690000e-06	1.038763e-06	1.525371e-09	6.843769e+00	1.003076e+02
1.700000e-06	1.036866e-06	1.511149e-09	6.831270e+00	1.002382e+02
1.710000e-06	1.034631e-06	1.494821e-09	6.816544e+00	1.001327e+02
1.720000e-06	1.032011e-06	1.487658e-09	6.799282e+00	9.999112e+01
1.730000e-06	1.029093e-06	1.542906e-09	6.780055e+00	9.981346e+01
1.740000e-06	1.025930e-06	1.603878e-09	6.759218e+00	9.959982e+01
1.750000e-06	1.022545e-06	1.602672e-09	6.736918e+00	9.935027e+01
1.760000e-06	1.019016e-06	1.524223e-09	6.713666e+00	9.906490e+01
1.770000e-06	1.015169e-06	1.457748e-09	6.688319e+00	9.874381e+01
1.780000e-06	1.010821e-06	1.478807e-09	6.659677e+00	9.838711e+01
1.790000e-06	1.005981e-06	1.511496e-09	6.627784e+00	9.799495e+01
1.800000e-06	1.000646e-06	1.500789e-09	6.592640e+00	9.756745e+01
1.810000e-06	9.948194e-07	1.440300e-09	6.554250e+00	9.710477e+01
1.820000e-06	9.884976e-07	1.429586e-09	6.512599e+00	9.660709e+01
1.830000e-06	9.817042e-07	1.482923e-09	6.467842e+00	9.607457e+01
1.840000e-06	9.746090e-07	1.519164e-09	6.421096e+00	9.550741e+01
1.850000e-06	9.672888e-07	1.472114e-09	6.372868e+00	9.490582e+01
1.860000e-06	9.596652e-07	1.403692e-09	6.322641e+00	9.427002e+01
1.870000e-06	9.517141e-07	1.388409e-09	6.270256e+00	9.360022e+01
1.880000e-06	9.434765e-07	1.415626e-09	6.215983e+00	9.289668e+01
1.890000e-06	9.349426e-07	1.430561e-09	6.159759e+00	9.215965e+01
1.900000e-06	9.260828e-07	1.405997e-09	6.101387e+00	9.138939e+01
1.910000e-06	9.169131e-07	1.362461e-09	6.040974e+00	9.058618e+01
1.920000e-06	9.074638e-07	1.341784e-09	5.978718e+00	8.975031e+01
1.930000e-06	8.977406e-07	1.363658e-09	5.914658e+00	8.888209e+01
1.940000e-06	8.876528e-07	1.374455e-09	5.848196e+00	8.798182e+01
1.950000e-06	8.771682e-07	1.327995e-09	5.779119e+00	8.704984e+01
1.960000e-06	8.664120e-07	1.268089e-09	5.708253e+00	8.608647e+01
1.970000e-06	8.554300e-07	1.285475e-09	5.635899e+00	8.509206e+01
1.980000e-06	8.440949e-07	1.326257e-09	5.561220e+00	8.406698e+01
1.990000e-06	8.324800e-07	1.287087e-09	5.484696e+00	8.301160e+01
2.000000e-06	8.206234e-07	1.196822e-09	5.406580e+00	8.192629e+01
2.010000e-06	8.083369e-07	1.183296e-09	5.325632e+00	8.081144e+01
2.020000e-06	7.955414e-07	1.230163e-09	5.241330e+00	7.966746e+01
2.030000e-06	7.822661e-07	1.225985e-09	5.153868e+00	7.849477e+01
2.040000e-06	7.685654e-07	1.165115e-09	5.063602e+00	7.729378e+01
2.050000e-06	7.544481e-07	1.129466e-09	4.970592e+00	7.606492e+01
2.060000e-06	7.399111e-07	1.136358e-09	4.874817e+00	7.480865e+01
2.070000e-06	7.250385e-07	1.131982e-09	4.776831e+00	7.352541e+01
2.080000e-06	7.099623e-07	1.098560e-09	4.677503e+00	7.221567e+01
2.090000e-06	6.947153e-07	1.049772e-09	4.577050e+00	7.087990e+01
2.100000e-06	6.793088e-07	1.017829e-09	4.475546e+00	6.951857e+01
2.110000e-06	6.638068e-07	1.023218e-09	4.373413e+00	6.813220e+01
2.120000e-06	6.481562e-07	1.036773e-09	4.270300e+00	6.672126e+01
2.130000e-06	6.322970e-07	1.002608e-09	4.165814e+00	6.528628e+01
2.140000e-06	6.161743e-07	9.407918e-10	4.059592e+00	6.382777e+01
2.150000e-06	5.997954e-07	9.221542e-10	3.951681e+00	6.234625e+01
2.160000e-06	5.832151e-07	9.344928e-10	3.842444e+00	6.084226e+01
2.170000e-06	5.664499e-07	9.079197e-10	3.731988e+00	5.931635e+01
2.180000e-06	5.495039e-07	8.454110e-10	3.620341e+00	5.776906e+01
2.190000e-06	5.323443e-07	8.127202e-10	3.507287e+00	5.620095e+01
2.200000e-06	5.149957e-07	8.180050e-10	3.392988e+00	5.461260e+01
2.210000e-06	4.975102e-07	8.142711e-10	3.277787e+00	5.300456e+01
2.220000e-06	4.799453e-07	7.771546e-10	3.162063e+00	5.137742e+01
2.230000e-06	4.622972e-07	7.308449e-10	3.045790e+00	4.973177e+01
2.240000e-06	4.444649e-07	7.073828e-10	2.928304e+00	4.806821e+01
2.250000e-06	4.264144e-07	7.030083e-10	2.809381e+00	4.638732e+01
2.260000e-06	4.081912e-07	6.836577e-10	2.689319e+00	4.468973e+01
2.270000e-06	3.897815e-07	6.355338e-10	2.568029e+00	4.297603e+01
2.280000e-06	3.712559e-07	5.923039e-10	2.445976e+00	4.124686e+01
2.290000e-06	3.525976e-07	5.789149e-10	2.323048e+00	3.950282e+01
2.300000e-06	3.337173e-07	5.728612e-10	2.198657e+00	3.774457e+01
2.310000e-06	3.147050e-07	5.426303e-10	2.073396e+00	3.597271e+01
2.320000e-06	2.956553e-07	4.977597e-10	1.947890e+00	3.418791e+01
2.330000e-06	2.765285e-07	4.696226e-10	1.821875e+00	3.239079e+01
2.340000e-06	2.572974e-07	4.604905e-10	1.695173e+00	3.058201e+01
2.350000e-06	2.380008e-07	4.431087e-10	1.568040e+00	2.876223e+01
2.360000e-06	2.186825e-07	4.009699e-10	1.440764e+00	2.693209e+01
2.370000e-06	1.993550e-07	3.559245e-10	1.313427e+00	2.509226e+01
2.380000e-06	1.800018e-07	3.335851e-10	1.185920e+00	2.324340e+01
2.390000e-06	1.606279e-07	3.224306e-10	1.058278e+00	2.138618e+01
2.400000e-06	1.412278e-07	2.948977e-10	9.304629e-01	1.952128e+01
2.410000e-06	1.218175e-07	2.539611e-10	8.025804e-01	1.764935e+01
2.420000e-06	1.024118e-07	2.247072e-10	6.747277e-01	1.577108e+01
2.430000e-06	8.299720e-08	2.120311e-10	5.468172e-01	1.388714e+01
2.440000e-06	6.355781e-08	1.952966e-10	4.187431e-01	1.199822e+01
2.450000e-06	4.410504e-08	1.592116e-10	2.905808e-01	1.010500e+01
2.460000e-06	2.466297e-08	1.165580e-10	1.624891e-01	8.208152e+00
2.470000e-06	5.220836e-09	8.836887e-11	3.439686e-02	6.308371e+00
2.480000e-06	-1.421793e-08	7.339466e-11	-9.367315e-02	4.406339e+00
2.490000e-06	-3.364675e-08	5.045066e-11	-2.216777e-01	2.502743e+00
2.500000e-06	-5.307591e-08	1.508245e-11	-3.496844e-01	5.982684e-01
2.510000e-06	-7.249063e-08	-1.545646e-11	-4.775959e-01	-1.306396e+00
2.520000e-06	-9.190153e-08	-3.191883e-11	-6.054823e-01	-3.210565e+00
2.530000e-06	-1.113238e-07	-4.869242e-11	-7.334438e-01	-5.113549e+00
2.540000e-06	-1.307381e-07	-8.115899e-11	-8.613524e-01	-7.014664e+00
2.550000e-06	-1.501321e-07	-1.213561e-10	-9.891279e-01	-8.913222e+00
2.560000e-06	-1.695056e-07	-1.514763e-10	-1.116768e+00	-1.080854e+01
2.570000e-06	-1.888540e-07	-1.697014e-10	-1.244242e+00	-1.269993e+01
2.580000e-06	-2.081910e-07	-1.929618e-10	-1.371642e+00	-1.458672e+01
2.590000e-06	-2.275047e-07	-2.277681e-10	-1.498888e+00	-1.646821e+01
2.600000e-06	-2.467809e-07	-2.605895e-10	-1.625887e+00	-1.834374e+01
2.610000e-06	-2.660291e-07	-2.808969e-10	-1.752701e+00	-2.021263e+01
2.620000e-06	-2.852216e-07	-2.983651e-10	-1.879149e+00	-2.207420e+01
2.630000e-06	-3.043358e-07	-3.264003e-10	-2.005081e+00	-2.392777e+01
2.640000e-06	-3.233427e-07	-3.627781e-10	-2.130305e+00	-2.577269e+01
2.650000e-06	-3.421573e-07	-3.935415e-10	-2.254263e+00	-2.760829e+01
2.660000e-06	-3.608004e-07	-4.140034e-10	-2.377091e+00	-2.943390e+01
2.670000e-06	-3.792924e-07	-4.373277e-10	-2.498923e+00	-3.124886e+01
2.680000e-06	-3.976391e-07	-4.711939e-10	-2.619798e+00	-3.305253e+01
2.690000e-06	-4.158519e-07	-5.063189e-10	-2.739791e+00	-3.484424e+01
2.700000e-06	-4.338813e-07	-5.312513e-10	-2.858576e+00	-3.662336e+01
2.710000e-06	-4.517696e-07	-5.498758e-10	-2.976431e+00	-3.838924e+01
2.720000e-06	-4.695176e-07	-5.747958e-10	-3.093361e+00	-4.014124e+01
2.730000e-06	-4.870869e-07	-6.074016e-10	-3.209115e+00	-4.187873e+01
2.740000e-06	-5.045002e-07	-6.381012e-10	-3.323840e+00	-4.360109e+01
2.750000e-06	-5.217913e-07	-6.606234e-10	-3.437760e+00	-4.530769e+01
2.760000e-06	-5.389684e-07	-6.833115e-10	-3.550929e+00	-4.699792e+01
2.770000e-06	-5.560231e-07	-7.140877e-10	-3.663293e+00	-4.867117e+01
2.780000e-06	-5.728891e-07	-7.482661e-10	-3.774412e+00	-5.032683e+01
2.790000e-06	-5.894482e-07	-7.751517e-10	-3.883510e+00	-5.196431e+01
2.800000e-06	-6.057310e-07	-7.941603e-10	-3.990787e+00	-5.358301e+01
2.810000e-06	-6.218211e-07	-8.155252e-10	-4.096795e+00	-5.518236e+01
2.820000e-06	-6.376985e-07	-8.432655e-10	-4.201401e+00	-5.676177e+01
2.830000e-06	-6.534044e-07	-8.703003e-10	-4.304877e+00	-5.832068e+01
2.840000e-06	-6.690010e-07	-8.919687e-10	-4.407634e+00	-5.985852e+01
2.850000e-06	-6.844707e-07	-9.138517e-10	-4.509554e+00	-6.137473e+01
2.860000e-06	-6.997929e-07	-9.419669e-10	-4.610503e+00	-6.286878e+01
2.870000e-06	-7.149322e-07	-9.740126e-10	-4.710246e+00	-6.434012e+01
2.880000e-06	-7.298107e-07	-1.000183e-09	-4.808271e+00	-6.578822e+01
2.890000e-06	-7.443292e-07	-1.017872e-09	-4.903925e+00	-6.721255e+01
2.900000e-06	-7.584490e-07	-1.035117e-09	-4.996951e+00	-6.861262e+01
2.910000e-06	-7.721239e-07	-1.058271e-09	-5.087047e+00	-6.998790e+01
2.920000e-06	-7.853309e-07	-1.083643e-09	-5.174059e+00	-7.133790e+01
2.930000e-06	-7.981424e-07	-1.105130e-09	-5.258467e+00	-7.266214e+01
2.940000e-06	-8.105192e-07	-1.123080e-09	-5.340010e+00	-7.396014e+01
