# Temperatura_=_20.0
# Concentracion g/m^3_=_10000.0
# C_Vs_to_Am_M_A/Vsm_=_65563218390.804596
# pendiente_HvsI_1/m_=_3716.3
# ordenada_HvsI_A/m_=_1297.0
# frecuencia_Hz_=_212867.94472807326

Tiempo_(s)	Campo_(V.s)	Magnetizacion_(V.s)	Campo_(kA/m)	Magnetizacion_(A/m)
0.000000e+00	-8.127263e-06	-1.137147e-08	-5.697911e+01	-7.424490e+02
1.000000e-08	-8.126846e-06	-1.136747e-08	-5.697618e+01	-7.424333e+02
2.000000e-08	-8.124918e-06	-1.136393e-08	-5.696267e+01	-7.424471e+02
3.000000e-08	-8.121431e-06	-1.136265e-08	-5.693822e+01	-7.424592e+02
4.000000e-08	-8.116685e-06	-1.136085e-08	-5.690495e+01	-7.424238e+02
5.000000e-08	-8.110691e-06	-1.135874e-08	-5.686292e+01	-7.422970e+02
6.000000e-08	-8.103388e-06	-1.135444e-08	-5.681172e+01	-7.420538e+02
7.000000e-08	-8.094869e-06	-1.134846e-08	-5.675200e+01	-7.416977e+02
8.000000e-08	-8.084793e-06	-1.133831e-08	-5.668136e+01	-7.412594e+02
9.000000e-08	-8.072910e-06	-1.132561e-08	-5.659805e+01	-7.407857e+02
1.000000e-07	-8.059306e-06	-1.132770e-08	-5.650267e+01	-7.403217e+02
1.100000e-07	-8.043668e-06	-1.132688e-08	-5.639303e+01	-7.398942e+02
1.200000e-07	-8.026215e-06	-1.131214e-08	-5.627068e+01	-7.395034e+02
1.300000e-07	-8.007457e-06	-1.130069e-08	-5.613916e+01	-7.391240e+02
1.400000e-07	-7.987731e-06	-1.129808e-08	-5.600087e+01	-7.387175e+02
1.500000e-07	-7.967154e-06	-1.129895e-08	-5.585661e+01	-7.382486e+02
1.600000e-07	-7.945366e-06	-1.129128e-08	-5.570386e+01	-7.377000e+02
1.700000e-07	-7.922368e-06	-1.126056e-08	-5.554262e+01	-7.370792e+02
1.800000e-07	-7.898139e-06	-1.125259e-08	-5.537275e+01	-7.364141e+02
1.900000e-07	-7.872191e-06	-1.125029e-08	-5.519084e+01	-7.357397e+02
2.000000e-07	-7.844723e-06	-1.121756e-08	-5.499826e+01	-7.350809e+02
2.100000e-07	-7.816161e-06	-1.121897e-08	-5.479801e+01	-7.344392e+02
2.200000e-07	-7.786358e-06	-1.120857e-08	-5.458907e+01	-7.337884e+02
2.300000e-07	-7.755226e-06	-1.118190e-08	-5.437081e+01	-7.330816e+02
2.400000e-07	-7.722755e-06	-1.118972e-08	-5.414316e+01	-7.322675e+02
2.500000e-07	-7.688787e-06	-1.116058e-08	-5.390501e+01	-7.313092e+02
2.600000e-07	-7.653370e-06	-1.112482e-08	-5.365671e+01	-7.301979e+02
2.700000e-07	-7.616642e-06	-1.112184e-08	-5.339922e+01	-7.289571e+02
2.800000e-07	-7.578535e-06	-1.110115e-08	-5.313206e+01	-7.276334e+02
2.900000e-07	-7.539067e-06	-1.107910e-08	-5.285535e+01	-7.262796e+02
3.000000e-07	-7.498322e-06	-1.105321e-08	-5.256969e+01	-7.249344e+02
3.100000e-07	-7.456047e-06	-1.103474e-08	-5.227330e+01	-7.236084e+02
3.200000e-07	-7.412198e-06	-1.101915e-08	-5.196589e+01	-7.222801e+02
3.300000e-07	-7.367032e-06	-1.099725e-08	-5.164923e+01	-7.209053e+02
3.400000e-07	-7.320528e-06	-1.097560e-08	-5.132320e+01	-7.194339e+02
3.500000e-07	-7.272710e-06	-1.094142e-08	-5.098795e+01	-7.178305e+02
3.600000e-07	-7.223343e-06	-1.092624e-08	-5.064185e+01	-7.160874e+02
3.700000e-07	-7.172148e-06	-1.089656e-08	-5.028293e+01	-7.142279e+02
3.800000e-07	-7.119386e-06	-1.085234e-08	-4.991302e+01	-7.122967e+02
3.900000e-07	-7.065266e-06	-1.082317e-08	-4.953360e+01	-7.103426e+02
4.000000e-07	-7.009967e-06	-1.079176e-08	-4.914590e+01	-7.083989e+02
4.100000e-07	-6.953578e-06	-1.076914e-08	-4.875057e+01	-7.064707e+02
4.200000e-07	-6.895848e-06	-1.073947e-08	-4.834583e+01	-7.045322e+02
4.300000e-07	-6.836683e-06	-1.071109e-08	-4.793103e+01	-7.025366e+02
4.400000e-07	-6.776299e-06	-1.068273e-08	-4.750769e+01	-7.004330e+02
4.500000e-07	-6.714826e-06	-1.064372e-08	-4.707671e+01	-6.981855e+02
4.600000e-07	-6.652233e-06	-1.059812e-08	-4.663788e+01	-6.957851e+02
4.700000e-07	-6.588627e-06	-1.054807e-08	-4.619195e+01	-6.932522e+02
4.800000e-07	-6.523992e-06	-1.051235e-08	-4.573880e+01	-6.906279e+02
4.900000e-07	-6.458027e-06	-1.047537e-08	-4.527632e+01	-6.879578e+02
5.000000e-07	-6.390706e-06	-1.043649e-08	-4.480435e+01	-6.852752e+02
5.100000e-07	-6.322291e-06	-1.039899e-08	-4.432470e+01	-6.825896e+02
5.200000e-07	-6.252956e-06	-1.035858e-08	-4.383860e+01	-6.798853e+02
5.300000e-07	-6.182700e-06	-1.031418e-08	-4.334605e+01	-6.771280e+02
5.400000e-07	-6.111407e-06	-1.026120e-08	-4.284622e+01	-6.742789e+02
5.500000e-07	-6.039078e-06	-1.020999e-08	-4.233914e+01	-6.713083e+02
5.600000e-07	-5.965648e-06	-1.016333e-08	-4.182432e+01	-6.682043e+02
5.700000e-07	-5.891017e-06	-1.012056e-08	-4.130110e+01	-6.649733e+02
5.800000e-07	-5.815146e-06	-1.007014e-08	-4.076918e+01	-6.616341e+02
5.900000e-07	-5.738163e-06	-1.001359e-08	-4.022946e+01	-6.582063e+02
6.000000e-07	-5.660110e-06	-9.957500e-09	-3.968224e+01	-6.547010e+02
6.100000e-07	-5.580935e-06	-9.900820e-09	-3.912716e+01	-6.511160e+02
6.200000e-07	-5.500570e-06	-9.845363e-09	-3.856373e+01	-6.474371e+02
6.300000e-07	-5.418946e-06	-9.785206e-09	-3.799147e+01	-6.436453e+02
6.400000e-07	-5.336415e-06	-9.723670e-09	-3.741286e+01	-6.397257e+02
6.500000e-07	-5.253132e-06	-9.664002e-09	-3.682898e+01	-6.356736e+02
6.600000e-07	-5.168992e-06	-9.602297e-09	-3.623908e+01	-6.314954e+02
6.700000e-07	-5.084073e-06	-9.532643e-09	-3.564373e+01	-6.272040e+02
6.800000e-07	-4.998347e-06	-9.460414e-09	-3.504271e+01	-6.228106e+02
6.900000e-07	-4.911802e-06	-9.394441e-09	-3.443596e+01	-6.183170e+02
7.000000e-07	-4.824394e-06	-9.329020e-09	-3.382315e+01	-6.137122e+02
7.100000e-07	-4.736011e-06	-9.258582e-09	-3.320352e+01	-6.089751e+02
7.200000e-07	-4.646739e-06	-9.182588e-09	-3.257764e+01	-6.040824e+02
7.300000e-07	-4.556637e-06	-9.104073e-09	-3.194594e+01	-5.990183e+02
7.400000e-07	-4.465662e-06	-9.023263e-09	-3.130814e+01	-5.937814e+02
7.500000e-07	-4.373792e-06	-8.937083e-09	-3.066404e+01	-5.883863e+02
7.600000e-07	-4.281066e-06	-8.847237e-09	-3.001396e+01	-5.828574e+02
7.700000e-07	-4.187636e-06	-8.759006e-09	-2.935893e+01	-5.772185e+02
7.800000e-07	-4.093563e-06	-8.671963e-09	-2.869940e+01	-5.714816e+02
7.900000e-07	-3.998834e-06	-8.583641e-09	-2.803527e+01	-5.656390e+02
8.000000e-07	-3.903449e-06	-8.494106e-09	-2.736654e+01	-5.596642e+02
8.100000e-07	-3.807375e-06	-8.402574e-09	-2.669298e+01	-5.535190e+02
8.200000e-07	-3.710491e-06	-8.305804e-09	-2.601373e+01	-5.471665e+02
8.300000e-07	-3.612850e-06	-8.201818e-09	-2.532919e+01	-5.405835e+02
8.400000e-07	-3.514664e-06	-8.093017e-09	-2.464082e+01	-5.337684e+02
8.500000e-07	-3.415999e-06	-7.982891e-09	-2.394909e+01	-5.267404e+02
8.600000e-07	-3.316679e-06	-7.874911e-09	-2.325277e+01	-5.195307e+02
8.700000e-07	-3.216626e-06	-7.763661e-09	-2.255131e+01	-5.121694e+02
8.800000e-07	-3.116051e-06	-7.645827e-09	-2.184620e+01	-5.046721e+02
8.900000e-07	-3.015034e-06	-7.527433e-09	-2.113799e+01	-4.970326e+02
9.000000e-07	-2.913595e-06	-7.409313e-09	-2.042681e+01	-4.892237e+02
9.100000e-07	-2.811736e-06	-7.286670e-09	-1.971269e+01	-4.812060e+02
9.200000e-07	-2.709457e-06	-7.156213e-09	-1.899562e+01	-4.729410e+02
9.300000e-07	-2.606753e-06	-7.022514e-09	-1.827558e+01	-4.644033e+02
9.400000e-07	-2.503609e-06	-6.888873e-09	-1.755245e+01	-4.555866e+02
9.500000e-07	-2.400033e-06	-6.750778e-09	-1.682629e+01	-4.465023e+02
9.600000e-07	-2.295970e-06	-6.606259e-09	-1.609673e+01	-4.371706e+02
9.700000e-07	-2.191409e-06	-6.457531e-09	-1.536366e+01	-4.276082e+02
9.800000e-07	-2.086423e-06	-6.306446e-09	-1.462762e+01	-4.178181e+02
9.900000e-07	-1.981036e-06	-6.153812e-09	-1.388877e+01	-4.077855e+02
1.000000e-06	-1.875258e-06	-5.998239e-09	-1.314718e+01	-3.974806e+02
1.010000e-06	-1.769160e-06	-5.838168e-09	-1.240334e+01	-3.868687e+02
1.020000e-06	-1.662737e-06	-5.670612e-09	-1.165722e+01	-3.759210e+02
1.030000e-06	-1.556009e-06	-5.496012e-09	-1.090897e+01	-3.646234e+02
1.040000e-06	-1.448979e-06	-5.315938e-09	-1.015859e+01	-3.529779e+02
1.050000e-06	-1.341601e-06	-5.132454e-09	-9.405776e+00	-3.409979e+02
1.060000e-06	-1.233917e-06	-4.945047e-09	-8.650821e+00	-3.286970e+02
1.070000e-06	-1.125929e-06	-4.753853e-09	-7.893730e+00	-3.160786e+02
1.080000e-06	-1.017612e-06	-4.561233e-09	-7.134333e+00	-3.031288e+02
1.090000e-06	-9.090660e-07	-4.362416e-09	-6.373335e+00	-2.898169e+02
1.100000e-06	-8.003112e-07	-4.155585e-09	-5.610870e+00	-2.761027e+02
1.110000e-06	-6.913903e-07	-3.940262e-09	-4.847241e+00	-2.619474e+02
1.120000e-06	-5.824249e-07	-3.714391e-09	-4.083300e+00	-2.473244e+02
1.130000e-06	-4.733746e-07	-3.480790e-09	-3.318763e+00	-2.322236e+02
1.140000e-06	-3.641906e-07	-3.243693e-09	-2.553290e+00	-2.166498e+02
1.150000e-06	-2.549497e-07	-3.000937e-09	-1.787416e+00	-2.006124e+02
1.160000e-06	-1.456942e-07	-2.750083e-09	-1.021442e+00	-1.841140e+02
1.170000e-06	-3.641953e-08	-2.493891e-09	-2.553323e-01	-1.671406e+02
1.180000e-06	7.282435e-08	-2.230367e-09	5.105614e-01	-1.496582e+02
1.190000e-06	1.820259e-07	-1.956369e-09	1.276158e+00	-1.316179e+02
1.200000e-06	2.911617e-07	-1.671809e-09	2.041294e+00	-1.129679e+02
1.210000e-06	4.001825e-07	-1.376951e-09	2.805623e+00	-9.366766e+01
1.220000e-06	5.091082e-07	-1.073299e-09	3.569287e+00	-7.369913e+01
1.230000e-06	6.179549e-07	-7.599310e-10	4.332396e+00	-5.307135e+01
1.240000e-06	7.266825e-07	-4.350455e-10	5.094670e+00	-3.181711e+01
1.250000e-06	8.352653e-07	-1.007530e-10	5.855928e+00	-9.984012e+00
1.260000e-06	9.436073e-07	2.395754e-10	6.615500e+00	1.237560e+01
1.270000e-06	1.051680e-06	5.862597e-10	7.373179e+00	3.521059e+01
1.280000e-06	1.159461e-06	9.399391e-10	8.128818e+00	5.846979e+01
1.290000e-06	1.266931e-06	1.300543e-09	8.882277e+00	8.209365e+01
1.300000e-06	1.374162e-06	1.664211e-09	9.634057e+00	1.060021e+02
1.310000e-06	1.481091e-06	2.030197e-09	1.038372e+01	1.300843e+02
1.320000e-06	1.587747e-06	2.398045e-09	1.113147e+01	1.541954e+02
1.330000e-06	1.694158e-06	2.762542e-09	1.187751e+01	1.781638e+02
1.340000e-06	1.800261e-06	3.119003e-09	1.262138e+01	2.018078e+02
1.350000e-06	1.906069e-06	3.466866e-09	1.336318e+01	2.249567e+02
1.360000e-06	2.011571e-06	3.806459e-09	1.410285e+01	2.474715e+02
1.370000e-06	2.116719e-06	4.137927e-09	1.484002e+01	2.692568e+02
1.380000e-06	2.221433e-06	4.460853e-09	1.557416e+01	2.902619e+02
1.390000e-06	2.325753e-06	4.769951e-09	1.630553e+01	3.104714e+02
1.400000e-06	2.429712e-06	5.064170e-09	1.703437e+01	3.298887e+02
1.410000e-06	2.533242e-06	5.345319e-09	1.776021e+01	3.485196e+02
1.420000e-06	2.636306e-06	5.612672e-09	1.848277e+01	3.663618e+02
1.430000e-06	2.738918e-06	5.866718e-09	1.920217e+01	3.834033e+02
1.440000e-06	2.841112e-06	6.110500e-09	1.991864e+01	3.996295e+02
1.450000e-06	2.942897e-06	6.344569e-09	2.063224e+01	4.150354e+02
1.460000e-06	3.044279e-06	6.566668e-09	2.134302e+01	4.296362e+02
1.470000e-06	3.145176e-06	6.774658e-09	2.205039e+01	4.434722e+02
1.480000e-06	3.245460e-06	6.970865e-09	2.275347e+01	4.566049e+02
1.490000e-06	3.345129e-06	7.158547e-09	2.345223e+01	4.691048e+02
1.500000e-06	3.444180e-06	7.336765e-09	2.414667e+01	4.810367e+02
1.510000e-06	3.542616e-06	7.506405e-09	2.483678e+01	4.924472e+02
1.520000e-06	3.640385e-06	7.669586e-09	2.552224e+01	5.033583e+02
1.530000e-06	3.737401e-06	7.827862e-09	2.620240e+01	5.137714e+02
1.540000e-06	3.833648e-06	7.979842e-09	2.687717e+01	5.236774e+02
1.550000e-06	3.929164e-06	8.124426e-09	2.754682e+01	5.330712e+02
1.560000e-06	4.023975e-06	8.261322e-09	2.821153e+01	5.419625e+02
1.570000e-06	4.118087e-06	8.389729e-09	2.887134e+01	5.503807e+02
1.580000e-06	4.211565e-06	8.511002e-09	2.952670e+01	5.583713e+02
1.590000e-06	4.304401e-06	8.625601e-09	3.017755e+01	5.659859e+02
1.600000e-06	4.396414e-06	8.732577e-09	3.082264e+01	5.732703e+02
1.610000e-06	4.487479e-06	8.834229e-09	3.146109e+01	5.802550e+02
1.620000e-06	4.577622e-06	8.934862e-09	3.209307e+01	5.869528e+02
1.630000e-06	4.666920e-06	9.032660e-09	3.271913e+01	5.933637e+02
1.640000e-06	4.755367e-06	9.126204e-09	3.333921e+01	5.994842e+02
1.650000e-06	4.842972e-06	9.214238e-09	3.395340e+01	6.053184e+02
1.660000e-06	4.929704e-06	9.297352e-09	3.456147e+01	6.108853e+02
1.670000e-06	5.015555e-06	9.377243e-09	3.516336e+01	6.162192e+02
1.680000e-06	5.100639e-06	9.454010e-09	3.575987e+01	6.213634e+02
1.690000e-06	5.184928e-06	9.528881e-09	3.635081e+01	6.263595e+02
1.700000e-06	5.268337e-06	9.602833e-09	3.693558e+01	6.312369e+02
1.710000e-06	5.350828e-06	9.676145e-09	3.751391e+01	6.360058e+02
1.720000e-06	5.432405e-06	9.745881e-09	3.808583e+01	6.406573e+02
1.730000e-06	5.513013e-06	9.811345e-09	3.865097e+01	6.451691e+02
1.740000e-06	5.592624e-06	9.874131e-09	3.920911e+01	6.495161e+02
1.750000e-06	5.671257e-06	9.935870e-09	3.976039e+01	6.536806e+02
1.760000e-06	5.748952e-06	9.994497e-09	4.030510e+01	6.576585e+02
1.770000e-06	5.825690e-06	1.005087e-08	4.084310e+01	6.614607e+02
1.780000e-06	5.901337e-06	1.010696e-08	4.137345e+01	6.651088e+02
1.790000e-06	5.975774e-06	1.016066e-08	4.189532e+01	6.686274e+02
1.800000e-06	6.049000e-06	1.021182e-08	4.240870e+01	6.720372e+02
1.810000e-06	6.121141e-06	1.026023e-08	4.291446e+01	6.753500e+02
1.820000e-06	6.192221e-06	1.030732e-08	4.341280e+01	6.785684e+02
1.830000e-06	6.262242e-06	1.035338e-08	4.390371e+01	6.816888e+02
1.840000e-06	6.331259e-06	1.039783e-08	4.438757e+01	6.847055e+02
1.850000e-06	6.399212e-06	1.043869e-08	4.486398e+01	6.876143e+02
1.860000e-06	6.466025e-06	1.047745e-08	4.533240e+01	6.904147e+02
1.870000e-06	6.531586e-06	1.051675e-08	4.579204e+01	6.931083e+02
1.880000e-06	6.595904e-06	1.055636e-08	4.624296e+01	6.956971e+02
1.890000e-06	6.659094e-06	1.059556e-08	4.668598e+01	6.981815e+02
1.900000e-06	6.721180e-06	1.063245e-08	4.712126e+01	7.005606e+02
1.910000e-06	6.782216e-06	1.066808e-08	4.754917e+01	7.028339e+02
1.920000e-06	6.842170e-06	1.069989e-08	4.796950e+01	7.050045e+02
1.930000e-06	6.900876e-06	1.072627e-08	4.838108e+01	7.070811e+02
1.940000e-06	6.958154e-06	1.075203e-08	4.878265e+01	7.090775e+02
1.950000e-06	7.014106e-06	1.077997e-08	4.917492e+01	7.110098e+02
1.960000e-06	7.068824e-06	1.080958e-08	4.955854e+01	7.128902e+02
1.970000e-06	7.122230e-06	1.083956e-08	4.993296e+01	7.147227e+02
1.980000e-06	7.174227e-06	1.086683e-08	5.029750e+01	7.165000e+02
1.990000e-06	7.224626e-06	1.089340e-08	5.065085e+01	7.182055e+02
2.000000e-06	7.273483e-06	1.091779e-08	5.099338e+01	7.198201e+02
2.010000e-06	7.320945e-06	1.093915e-08	5.132613e+01	7.213297e+02
2.020000e-06	7.367105e-06	1.095958e-08	5.164975e+01	7.227334e+02
2.030000e-06	7.412084e-06	1.097971e-08	5.196509e+01	7.240458e+02
2.040000e-06	7.455980e-06	1.099957e-08	5.227284e+01	7.252944e+02
2.050000e-06	7.498535e-06	1.101708e-08	5.257118e+01	7.265106e+02
2.060000e-06	7.539526e-06	1.103488e-08	5.285857e+01	7.277187e+02
2.070000e-06	7.579176e-06	1.105361e-08	5.313655e+01	7.289266e+02
2.080000e-06	7.617575e-06	1.107361e-08	5.340576e+01	7.301224e+02
2.090000e-06	7.654762e-06	1.109398e-08	5.366647e+01	7.312777e+02
2.100000e-06	7.690777e-06	1.111347e-08	5.391896e+01	7.323585e+02
2.110000e-06	7.725363e-06	1.113096e-08	5.416145e+01	7.333378e+02
2.120000e-06	7.758452e-06	1.114296e-08	5.439343e+01	7.342067e+02
2.130000e-06	7.790237e-06	1.115018e-08	5.461626e+01	7.349783e+02
2.140000e-06	7.820777e-06	1.115526e-08	5.483038e+01	7.356837e+02
2.150000e-06	7.850078e-06	1.116316e-08	5.503581e+01	7.363606e+02
2.160000e-06	7.878157e-06	1.117586e-08	5.523266e+01	7.370395e+02
2.170000e-06	7.904723e-06	1.118954e-08	5.541891e+01	7.377323e+02
2.180000e-06	7.929642e-06	1.120497e-08	5.559361e+01	7.384284e+02
2.190000e-06	7.953175e-06	1.121964e-08	5.575860e+01	7.390996e+02
2.200000e-06	7.975354e-06	1.123079e-08	5.591410e+01	7.397117e+02
2.210000e-06	7.996280e-06	1.123775e-08	5.606081e+01	7.402389e+02
2.220000e-06	8.016056e-06	1.124183e-08	5.619945e+01	7.406744e+02
2.230000e-06	8.034419e-06	1.124663e-08	5.632819e+01	7.410335e+02
2.240000e-06	8.051235e-06	1.125237e-08	5.644608e+01	7.413472e+02
2.250000e-06	8.066582e-06	1.125809e-08	5.655369e+01	7.416498e+02
2.260000e-06	8.080416e-06	1.126382e-08	5.665067e+01	7.419641e+02
2.270000e-06	8.092758e-06	1.127150e-08	5.673720e+01	7.422921e+02
2.280000e-06	8.103404e-06	1.127976e-08	5.681184e+01	7.426138e+02
2.290000e-06	8.112290e-06	1.128455e-08	5.687414e+01	7.428948e+02
2.300000e-06	8.119751e-06	1.128562e-08	5.692644e+01	7.431008e+02
2.310000e-06	8.125833e-06	1.128519e-08	5.696908e+01	7.432124e+02
2.320000e-06	8.130613e-06	1.128656e-08	5.700260e+01	7.432339e+02
2.330000e-06	8.134109e-06	1.128871e-08	5.702711e+01	7.431929e+02
2.340000e-06	8.135908e-06	1.128909e-08	5.703972e+01	7.431300e+02
2.350000e-06	8.136162e-06	1.128818e-08	5.704150e+01	7.430829e+02
2.360000e-06	8.135143e-06	1.128948e-08	5.703435e+01	7.430709e+02
2.370000e-06	8.132761e-06	1.129365e-08	5.701765e+01	7.430862e+02
2.380000e-06	8.129192e-06	1.129526e-08	5.699263e+01	7.430957e+02
2.390000e-06	8.124358e-06	1.129400e-08	5.695874e+01	7.430529e+02
2.400000e-06	8.117920e-06	1.129288e-08	5.691361e+01	7.429151e+02
2.410000e-06	8.110075e-06	1.129107e-08	5.685861e+01	7.426599e+02
2.420000e-06	8.101097e-06	1.128995e-08	5.679566e+01	7.422937e+02
2.430000e-06	8.090823e-06	1.129092e-08	5.672363e+01	7.418497e+02
2.440000e-06	8.079037e-06	1.127339e-08	5.664100e+01	7.413751e+02
2.450000e-06	8.065157e-06	1.125596e-08	5.654369e+01	7.409138e+02
2.460000e-06	8.048949e-06	1.126056e-08	5.643006e+01	7.404905e+02
2.470000e-06	8.031045e-06	1.126159e-08	5.630453e+01	7.401022e+02
2.480000e-06	8.012153e-06	1.125787e-08	5.617209e+01	7.397219e+02
2.490000e-06	7.992743e-06	1.123248e-08	5.603601e+01	7.393105e+02
2.500000e-06	7.972259e-06	1.121234e-08	5.589239e+01	7.388340e+02
2.510000e-06	7.949922e-06	1.125072e-08	5.573580e+01	7.382774e+02
2.520000e-06	7.926277e-06	1.123573e-08	5.557002e+01	7.376506e+02
2.530000e-06	7.901453e-06	1.120524e-08	5.539599e+01	7.369830e+02
2.540000e-06	7.875040e-06	1.123435e-08	5.521081e+01	7.363093e+02
2.550000e-06	7.847471e-06	1.119335e-08	5.501753e+01	7.356525e+02
2.560000e-06	7.818553e-06	1.118088e-08	5.481479e+01	7.350115e+02
2.570000e-06	7.787933e-06	1.120483e-08	5.460011e+01	7.343574e+02
2.580000e-06	7.756014e-06	1.115395e-08	5.437633e+01	7.336420e+02
2.590000e-06	7.722736e-06	1.118408e-08	5.414303e+01	7.328147e+02
2.600000e-06	7.688238e-06	1.117926e-08	5.390116e+01	7.318409e+02
2.610000e-06	7.652702e-06	1.112175e-08	5.365203e+01	7.307151e+02
2.620000e-06	7.615634e-06	1.114551e-08	5.339215e+01	7.294636e+02
2.630000e-06	7.576919e-06	1.109527e-08	5.312072e+01	7.281345e+02
2.640000e-06	7.536755e-06	1.108048e-08	5.283914e+01	7.267802e+02
2.650000e-06	7.495356e-06	1.107344e-08	5.254889e+01	7.254370e+02
2.660000e-06	7.452717e-06	1.102399e-08	5.224996e+01	7.241121e+02
2.670000e-06	7.408777e-06	1.103411e-08	5.194190e+01	7.227814e+02
2.680000e-06	7.363497e-06	1.100127e-08	5.162445e+01	7.213990e+02
2.690000e-06	7.316674e-06	1.099528e-08	5.129618e+01	7.199156e+02
2.700000e-06	7.268548e-06	1.095543e-08	5.095878e+01	7.182980e+02
2.710000e-06	7.219153e-06	1.091406e-08	5.061247e+01	7.165417e+02
2.720000e-06	7.168324e-06	1.091994e-08	5.025612e+01	7.146728e+02
2.730000e-06	7.116108e-06	1.085909e-08	4.989004e+01	7.127372e+02
2.740000e-06	7.062271e-06	1.085550e-08	4.951259e+01	7.107829e+02
2.750000e-06	7.006880e-06	1.082103e-08	4.912426e+01	7.088411e+02
2.760000e-06	6.950203e-06	1.079304e-08	4.872691e+01	7.069134e+02
2.770000e-06	6.892363e-06	1.077321e-08	4.832139e+01	7.049715e+02
2.780000e-06	6.833443e-06	1.070801e-08	4.790831e+01	7.029672e+02
2.790000e-06	6.773417e-06	1.069983e-08	4.748748e+01	7.008505e+02
2.800000e-06	6.712163e-06	1.066174e-08	4.705804e+01	6.985875e+02
2.810000e-06	6.649497e-06	1.064078e-08	4.661870e+01	6.961724e+02
2.820000e-06	6.585614e-06	1.059548e-08	4.617082e+01	6.936283e+02
2.830000e-06	6.520681e-06	1.055182e-08	4.571558e+01	6.909974e+02
2.840000e-06	6.454667e-06	1.052200e-08	4.525277e+01	6.883248e+02
2.850000e-06	6.387614e-06	1.046460e-08	4.478267e+01	6.856419e+02
2.860000e-06	6.319466e-06	1.043783e-08	4.430489e+01	6.829555e+02
2.870000e-06	6.250179e-06	1.038964e-08	4.381913e+01	6.802475e+02
2.880000e-06	6.179617e-06	1.036124e-08	4.332443e+01	6.774827e+02
2.890000e-06	6.107932e-06	1.031374e-08	4.282186e+01	6.746225e+02
2.900000e-06	6.035278e-06	1.026159e-08	4.231249e+01	6.716388e+02
2.910000e-06	5.961593e-06	1.021416e-08	4.179590e+01	6.685214e+02
2.920000e-06	5.886872e-06	1.016077e-08	4.127204e+01	6.652787e+02
2.930000e-06	5.810947e-06	1.012396e-08	4.073974e+01	6.619297e+02
2.940000e-06	5.733706e-06	1.007465e-08	4.019821e+01	6.584938e+02
2.950000e-06	5.655199e-06	1.003220e-08	3.964781e+01	6.549809e+02
