# Temperatura_=_20.0
# Concentracion g/m^3_=_10000.0
# C_Vs_to_Am_M_A/Vsm_=_65563218390.804596
# pendiente_HvsI_1/m_=_3716.3
# ordenada_HvsI_A/m_=_1297.0
# frecuencia_Hz_=_212867.4930745214

Tiempo_(s)	Campo_(V.s)	Magnetizacion_(V.s)	Campo_(kA/m)	Magnetizacion_(A/m)
0.000000e+00	-8.183231e-06	-1.141183e-08	-5.698022e+01	-7.464281e+02
1.000000e-08	-8.182152e-06	-1.140888e-08	-5.697271e+01	-7.464410e+02
2.000000e-08	-8.179495e-06	-1.141017e-08	-5.695421e+01	-7.463612e+02
3.000000e-08	-8.175423e-06	-1.140906e-08	-5.692586e+01	-7.461739e+02
4.000000e-08	-8.170117e-06	-1.140614e-08	-5.688891e+01	-7.458915e+02
5.000000e-08	-8.163463e-06	-1.140143e-08	-5.684258e+01	-7.455501e+02
6.000000e-08	-8.155582e-06	-1.139375e-08	-5.678770e+01	-7.451958e+02
7.000000e-08	-8.146361e-06	-1.137887e-08	-5.672350e+01	-7.448667e+02
8.000000e-08	-8.135378e-06	-1.135278e-08	-5.664702e+01	-7.445777e+02
9.000000e-08	-8.122666e-06	-1.138455e-08	-5.655850e+01	-7.443137e+02
1.000000e-07	-8.108146e-06	-1.141601e-08	-5.645740e+01	-7.440365e+02
1.100000e-07	-8.091632e-06	-1.138080e-08	-5.634241e+01	-7.437002e+02
1.200000e-07	-8.073542e-06	-1.137175e-08	-5.621645e+01	-7.432713e+02
1.300000e-07	-8.054289e-06	-1.131328e-08	-5.608239e+01	-7.427442e+02
1.400000e-07	-8.034136e-06	-1.128306e-08	-5.594207e+01	-7.421455e+02
1.500000e-07	-8.012961e-06	-1.140086e-08	-5.579462e+01	-7.415244e+02
1.600000e-07	-7.990530e-06	-1.129552e-08	-5.563843e+01	-7.409328e+02
1.700000e-07	-7.966805e-06	-1.124771e-08	-5.547324e+01	-7.404024e+02
1.800000e-07	-7.941461e-06	-1.137717e-08	-5.529677e+01	-7.399283e+02
1.900000e-07	-7.914552e-06	-1.126265e-08	-5.510940e+01	-7.394658e+02
2.000000e-07	-7.886470e-06	-1.126137e-08	-5.491386e+01	-7.389426e+02
2.100000e-07	-7.857218e-06	-1.132821e-08	-5.471018e+01	-7.382826e+02
2.200000e-07	-7.826666e-06	-1.121598e-08	-5.449745e+01	-7.374321e+02
2.300000e-07	-7.794737e-06	-1.122870e-08	-5.427512e+01	-7.363800e+02
2.400000e-07	-7.761287e-06	-1.125760e-08	-5.404221e+01	-7.351616e+02
2.500000e-07	-7.726385e-06	-1.120133e-08	-5.379918e+01	-7.338472e+02
2.600000e-07	-7.690217e-06	-1.119004e-08	-5.354734e+01	-7.325172e+02
2.700000e-07	-7.652627e-06	-1.113440e-08	-5.328560e+01	-7.312341e+02
2.800000e-07	-7.613663e-06	-1.112999e-08	-5.301430e+01	-7.300213e+02
2.900000e-07	-7.573499e-06	-1.113483e-08	-5.273463e+01	-7.288566e+02
3.000000e-07	-7.531810e-06	-1.110385e-08	-5.244434e+01	-7.276827e+02
3.100000e-07	-7.488491e-06	-1.108248e-08	-5.214271e+01	-7.264297e+02
3.200000e-07	-7.443820e-06	-1.106635e-08	-5.183167e+01	-7.250413e+02
3.300000e-07	-7.397777e-06	-1.107072e-08	-5.151107e+01	-7.234950e+02
3.400000e-07	-7.350337e-06	-1.101067e-08	-5.118074e+01	-7.218077e+02
3.500000e-07	-7.301409e-06	-1.097081e-08	-5.084005e+01	-7.200264e+02
3.600000e-07	-7.250768e-06	-1.095058e-08	-5.048744e+01	-7.182078e+02
3.700000e-07	-7.198529e-06	-1.091302e-08	-5.012369e+01	-7.163945e+02
3.800000e-07	-7.144866e-06	-1.091671e-08	-4.975004e+01	-7.145989e+02
3.900000e-07	-7.089948e-06	-1.087635e-08	-4.936764e+01	-7.127992e+02
4.000000e-07	-7.033868e-06	-1.083456e-08	-4.897715e+01	-7.109498e+02
4.100000e-07	-6.976508e-06	-1.081589e-08	-4.857776e+01	-7.090002e+02
4.200000e-07	-6.917745e-06	-1.078568e-08	-4.816859e+01	-7.069161e+02
4.300000e-07	-6.857670e-06	-1.074917e-08	-4.775028e+01	-7.046916e+02
4.400000e-07	-6.796453e-06	-1.069389e-08	-4.732402e+01	-7.023501e+02
4.500000e-07	-6.734091e-06	-1.066365e-08	-4.688979e+01	-6.999326e+02
4.600000e-07	-6.670695e-06	-1.063452e-08	-4.644836e+01	-6.974792e+02
4.700000e-07	-6.606226e-06	-1.059835e-08	-4.599946e+01	-6.950117e+02
4.800000e-07	-6.540375e-06	-1.055541e-08	-4.554094e+01	-6.925246e+02
4.900000e-07	-6.473140e-06	-1.050978e-08	-4.507278e+01	-6.899883e+02
5.000000e-07	-6.404844e-06	-1.047914e-08	-4.459723e+01	-6.873629e+02
5.100000e-07	-6.335621e-06	-1.043653e-08	-4.411523e+01	-6.846157e+02
5.200000e-07	-6.265411e-06	-1.038359e-08	-4.362635e+01	-6.817366e+02
5.300000e-07	-6.194239e-06	-1.032622e-08	-4.313078e+01	-6.787419e+02
5.400000e-07	-6.122018e-06	-1.027882e-08	-4.262790e+01	-6.756668e+02
5.500000e-07	-6.048574e-06	-1.023922e-08	-4.211651e+01	-6.725493e+02
5.600000e-07	-5.973915e-06	-1.019402e-08	-4.159665e+01	-6.694111e+02
5.700000e-07	-5.898044e-06	-1.014327e-08	-4.106836e+01	-6.662454e+02
5.800000e-07	-5.821093e-06	-1.009400e-08	-4.053254e+01	-6.630162e+02
5.900000e-07	-5.743099e-06	-1.004953e-08	-3.998947e+01	-6.596703e+02
6.000000e-07	-5.663948e-06	-9.995537e-09	-3.943834e+01	-6.561573e+02
6.100000e-07	-5.583638e-06	-9.929262e-09	-3.887913e+01	-6.524498e+02
6.200000e-07	-5.502148e-06	-9.863053e-09	-3.831171e+01	-6.485548e+02
6.300000e-07	-5.419700e-06	-9.805774e-09	-3.773762e+01	-6.445124e+02
6.400000e-07	-5.336473e-06	-9.748438e-09	-3.715811e+01	-6.403796e+02
6.500000e-07	-5.252404e-06	-9.685305e-09	-3.657274e+01	-6.362083e+02
6.600000e-07	-5.167474e-06	-9.616627e-09	-3.598137e+01	-6.320229e+02
6.700000e-07	-5.081651e-06	-9.552131e-09	-3.538378e+01	-6.278093e+02
6.800000e-07	-4.995001e-06	-9.492355e-09	-3.478043e+01	-6.235177e+02
6.900000e-07	-4.907622e-06	-9.422351e-09	-3.417200e+01	-6.190802e+02
7.000000e-07	-4.819316e-06	-9.344585e-09	-3.355713e+01	-6.144356e+02
7.100000e-07	-4.729960e-06	-9.267116e-09	-3.293493e+01	-6.095514e+02
7.200000e-07	-4.639629e-06	-9.195246e-09	-3.230596e+01	-6.044361e+02
7.300000e-07	-4.548452e-06	-9.117956e-09	-3.167109e+01	-5.991341e+02
7.400000e-07	-4.456442e-06	-9.028332e-09	-3.103041e+01	-5.937081e+02
7.500000e-07	-4.363624e-06	-8.938596e-09	-3.038412e+01	-5.882137e+02
7.600000e-07	-4.270080e-06	-8.855432e-09	-2.973277e+01	-5.826761e+02
7.700000e-07	-4.175798e-06	-8.774550e-09	-2.907628e+01	-5.770800e+02
7.800000e-07	-4.080881e-06	-8.685717e-09	-2.841537e+01	-5.713738e+02
7.900000e-07	-3.985297e-06	-8.590899e-09	-2.774981e+01	-5.654883e+02
8.000000e-07	-3.888893e-06	-8.498351e-09	-2.707855e+01	-5.593621e+02
8.100000e-07	-3.791635e-06	-8.404078e-09	-2.640133e+01	-5.529637e+02
8.200000e-07	-3.693577e-06	-8.298672e-09	-2.571855e+01	-5.463016e+02
8.300000e-07	-3.594883e-06	-8.183255e-09	-2.503134e+01	-5.394196e+02
8.400000e-07	-3.495692e-06	-8.071527e-09	-2.434067e+01	-5.323780e+02
8.500000e-07	-3.395985e-06	-7.968741e-09	-2.364640e+01	-5.252292e+02
8.600000e-07	-3.295621e-06	-7.864019e-09	-2.294757e+01	-5.179970e+02
8.700000e-07	-3.194678e-06	-7.748344e-09	-2.224470e+01	-5.106668e+02
8.800000e-07	-3.093299e-06	-7.627241e-09	-2.153879e+01	-5.031904e+02
8.900000e-07	-2.991386e-06	-7.509580e-09	-2.082916e+01	-4.955038e+02
9.000000e-07	-2.888975e-06	-7.391258e-09	-2.011607e+01	-4.875489e+02
9.100000e-07	-2.786146e-06	-7.261552e-09	-1.940006e+01	-4.792925e+02
9.200000e-07	-2.682922e-06	-7.122803e-09	-1.868131e+01	-4.707347e+02
9.300000e-07	-2.579306e-06	-6.986741e-09	-1.795983e+01	-4.619031e+02
9.400000e-07	-2.475243e-06	-6.854868e-09	-1.723523e+01	-4.528378e+02
9.500000e-07	-2.370732e-06	-6.715883e-09	-1.650752e+01	-4.435719e+02
9.600000e-07	-2.265687e-06	-6.567391e-09	-1.577609e+01	-4.341163e+02
9.700000e-07	-2.160120e-06	-6.415103e-09	-1.504102e+01	-4.244542e+02
9.800000e-07	-2.054096e-06	-6.263344e-09	-1.430276e+01	-4.145468e+02
9.900000e-07	-1.947636e-06	-6.109094e-09	-1.356148e+01	-4.043481e+02
1.000000e-06	-1.840893e-06	-5.946836e-09	-1.281822e+01	-3.938203e+02
1.010000e-06	-1.733922e-06	-5.779790e-09	-1.207338e+01	-3.829459e+02
1.020000e-06	-1.626683e-06	-5.609691e-09	-1.132667e+01	-3.717288e+02
1.030000e-06	-1.519096e-06	-5.435603e-09	-1.057754e+01	-3.601872e+02
1.040000e-06	-1.411082e-06	-5.255707e-09	-9.825427e+00	-3.483399e+02
1.050000e-06	-1.302734e-06	-5.070077e-09	-9.070998e+00	-3.361928e+02
1.060000e-06	-1.194129e-06	-4.880535e-09	-8.314773e+00	-3.237311e+02
1.070000e-06	-1.085236e-06	-4.688300e-09	-7.556549e+00	-3.109213e+02
1.080000e-06	-9.761295e-07	-4.489925e-09	-6.796836e+00	-2.977201e+02
1.090000e-06	-8.668828e-07	-4.281098e-09	-6.036146e+00	-2.840878e+02
1.100000e-06	-7.575006e-07	-4.065419e-09	-5.274512e+00	-2.699999e+02
1.110000e-06	-6.480110e-07	-3.846078e-09	-4.512131e+00	-2.554508e+02
1.120000e-06	-5.383913e-07	-3.620593e-09	-3.748844e+00	-2.404491e+02
1.130000e-06	-4.286668e-07	-3.385865e-09	-2.984827e+00	-2.250067e+02
1.140000e-06	-3.188962e-07	-3.142536e-09	-2.220489e+00	-2.091248e+02
1.150000e-06	-2.090703e-07	-2.893196e-09	-1.455766e+00	-1.927853e+02
1.160000e-06	-9.923215e-08	-2.637323e-09	-6.909582e-01	-1.759493e+02
1.170000e-06	1.056696e-08	-2.373426e-09	7.357824e-02	-1.585647e+02
1.180000e-06	1.203194e-07	-2.099912e-09	8.377894e-01	-1.405795e+02
1.190000e-06	2.300439e-07	-1.816884e-09	1.601807e+00	-1.219552e+02
1.200000e-06	3.397571e-07	-1.524387e-09	2.365745e+00	-1.026762e+02
1.210000e-06	4.494194e-07	-1.221121e-09	3.129328e+00	-8.274962e+01
1.220000e-06	5.589910e-07	-9.059077e-10	3.892281e+00	-6.219823e+01
1.230000e-06	6.684054e-07	-5.808366e-10	4.654139e+00	-4.104940e+01
1.240000e-06	7.776062e-07	-2.488043e-10	5.414508e+00	-1.932568e+01
1.250000e-06	8.866816e-07	8.943073e-11	6.174006e+00	2.957632e+00
1.260000e-06	9.956380e-07	4.354554e-10	6.932674e+00	2.578589e+01
1.270000e-06	1.104343e-06	7.912313e-10	7.689595e+00	4.913126e+01
1.280000e-06	1.212804e-06	1.154589e-09	8.444808e+00	7.293674e+01
1.290000e-06	1.321015e-06	1.522673e-09	9.198290e+00	9.710452e+01
1.300000e-06	1.428903e-06	1.895236e-09	9.949517e+00	1.214940e+02
1.310000e-06	1.536535e-06	2.267410e-09	1.069897e+01	1.459314e+02
1.320000e-06	1.643899e-06	2.636139e-09	1.144654e+01	1.702284e+02
1.330000e-06	1.750992e-06	2.998420e-09	1.219224e+01	1.942048e+02
1.340000e-06	1.857921e-06	3.352906e-09	1.293679e+01	2.177076e+02
1.350000e-06	1.964619e-06	3.700336e-09	1.367974e+01	2.406212e+02
1.360000e-06	2.070940e-06	4.038041e-09	1.442005e+01	2.628669e+02
1.370000e-06	2.176814e-06	4.365954e-09	1.515726e+01	2.843938e+02
1.380000e-06	2.282256e-06	4.682586e-09	1.589146e+01	3.051650e+02
1.390000e-06	2.387215e-06	4.987298e-09	1.662229e+01	3.251465e+02
1.400000e-06	2.491614e-06	5.278854e-09	1.734923e+01	3.443026e+02
1.410000e-06	2.595578e-06	5.554541e-09	1.807313e+01	3.625993e+02
1.420000e-06	2.699192e-06	5.814724e-09	1.879460e+01	3.800134e+02
1.430000e-06	2.802345e-06	6.062293e-09	1.951286e+01	3.965421e+02
1.440000e-06	2.905014e-06	6.298507e-09	2.022775e+01	4.122093e+02
1.450000e-06	3.007233e-06	6.522561e-09	2.093951e+01	4.270639e+02
1.460000e-06	3.108986e-06	6.735510e-09	2.164802e+01	4.411709e+02
1.470000e-06	3.210272e-06	6.938663e-09	2.235328e+01	4.545980e+02
1.480000e-06	3.311015e-06	7.133401e-09	2.305475e+01	4.674028e+02
1.490000e-06	3.411118e-06	7.319089e-09	2.375178e+01	4.796250e+02
1.500000e-06	3.510629e-06	7.494854e-09	2.444468e+01	4.912854e+02
1.510000e-06	3.609522e-06	7.660811e-09	2.513327e+01	5.023932e+02
1.520000e-06	3.707756e-06	7.817288e-09	2.581728e+01	5.129558e+02
1.530000e-06	3.805189e-06	7.968981e-09	2.649571e+01	5.229878e+02
1.540000e-06	3.901735e-06	8.115534e-09	2.716796e+01	5.325156e+02
1.550000e-06	3.997512e-06	8.256638e-09	2.783487e+01	5.415754e+02
1.560000e-06	4.092642e-06	8.391939e-09	2.849726e+01	5.502061e+02
1.570000e-06	4.187095e-06	8.519960e-09	2.915494e+01	5.584406e+02
1.580000e-06	4.280833e-06	8.640447e-09	2.980764e+01	5.663002e+02
1.590000e-06	4.373844e-06	8.751406e-09	3.045528e+01	5.737944e+02
1.600000e-06	4.466067e-06	8.854662e-09	3.109744e+01	5.809259e+02
1.610000e-06	4.557536e-06	8.951888e-09	3.173434e+01	5.876997e+02
1.620000e-06	4.648200e-06	9.046643e-09	3.236564e+01	5.941319e+02
1.630000e-06	4.737878e-06	9.139959e-09	3.299007e+01	6.002533e+02
1.640000e-06	4.826517e-06	9.231090e-09	3.360726e+01	6.061072e+02
1.650000e-06	4.914258e-06	9.319229e-09	3.421821e+01	6.117414e+02
1.660000e-06	5.001152e-06	9.401778e-09	3.482326e+01	6.171975e+02
1.670000e-06	5.087190e-06	9.480330e-09	3.542235e+01	6.225019e+02
1.680000e-06	5.172387e-06	9.556128e-09	3.601558e+01	6.276624e+02
1.690000e-06	5.256805e-06	9.630455e-09	3.660338e+01	6.326711e+02
1.700000e-06	5.340410e-06	9.703429e-09	3.718553e+01	6.375131e+02
1.710000e-06	5.423091e-06	9.772734e-09	3.776124e+01	6.421767e+02
1.720000e-06	5.504743e-06	9.839359e-09	3.832978e+01	6.466607e+02
1.730000e-06	5.585417e-06	9.904630e-09	3.889152e+01	6.509768e+02
1.740000e-06	5.665114e-06	9.967326e-09	3.944645e+01	6.551456e+02
1.750000e-06	5.743812e-06	1.002774e-08	3.999443e+01	6.591876e+02
1.760000e-06	5.821618e-06	1.008581e-08	4.053620e+01	6.631155e+02
1.770000e-06	5.898415e-06	1.014198e-08	4.107094e+01	6.669292e+02
1.780000e-06	5.974140e-06	1.019512e-08	4.159822e+01	6.706173e+02
1.790000e-06	6.048793e-06	1.024593e-08	4.211803e+01	6.741635e+02
1.800000e-06	6.122229e-06	1.029653e-08	4.262937e+01	6.775566e+02
1.810000e-06	6.194418e-06	1.034575e-08	4.313202e+01	6.807977e+02
1.820000e-06	6.265490e-06	1.039201e-08	4.362690e+01	6.839027e+02
1.830000e-06	6.335511e-06	1.043677e-08	4.411446e+01	6.868976e+02
1.840000e-06	6.404511e-06	1.048026e-08	4.459491e+01	6.898090e+02
1.850000e-06	6.472511e-06	1.052078e-08	4.506840e+01	6.926536e+02
1.860000e-06	6.539383e-06	1.055949e-08	4.553403e+01	6.954308e+02
1.870000e-06	6.604915e-06	1.059756e-08	4.599033e+01	6.981228e+02
1.880000e-06	6.669139e-06	1.063664e-08	4.643753e+01	7.007020e+02
1.890000e-06	6.732245e-06	1.067537e-08	4.687694e+01	7.031430e+02
1.900000e-06	6.794274e-06	1.071212e-08	4.730885e+01	7.054349e+02
1.910000e-06	6.855194e-06	1.074681e-08	4.773304e+01	7.075882e+02
1.920000e-06	6.915014e-06	1.077705e-08	4.814957e+01	7.096332e+02
1.930000e-06	6.973531e-06	1.080499e-08	4.855702e+01	7.116104e+02
1.940000e-06	7.030592e-06	1.083169e-08	4.895435e+01	7.135563e+02
1.950000e-06	7.086339e-06	1.085861e-08	4.934251e+01	7.154899e+02
1.960000e-06	7.140898e-06	1.088729e-08	4.972241e+01	7.174057e+02
1.970000e-06	7.194198e-06	1.091717e-08	5.009354e+01	7.192760e+02
1.980000e-06	7.245991e-06	1.094745e-08	5.045418e+01	7.210624e+02
1.990000e-06	7.296066e-06	1.097416e-08	5.080285e+01	7.227311e+02
2.000000e-06	7.344571e-06	1.099739e-08	5.114060e+01	7.242667e+02
2.010000e-06	7.391765e-06	1.101863e-08	5.146921e+01	7.256791e+02
2.020000e-06	7.437686e-06	1.103830e-08	5.178896e+01	7.270002e+02
2.030000e-06	7.482453e-06	1.105751e-08	5.210067e+01	7.282722e+02
2.040000e-06	7.526045e-06	1.107548e-08	5.240421e+01	7.295313e+02
2.050000e-06	7.568187e-06	1.109351e-08	5.269765e+01	7.307949e+02
2.060000e-06	7.608855e-06	1.111287e-08	5.298082e+01	7.320551e+02
2.070000e-06	7.648208e-06	1.113243e-08	5.325483e+01	7.332828e+02
2.080000e-06	7.686289e-06	1.115130e-08	5.351999e+01	7.344403e+02
2.090000e-06	7.723174e-06	1.116873e-08	5.377682e+01	7.354962e+02
2.100000e-06	7.758855e-06	1.118630e-08	5.402528e+01	7.364386e+02
2.110000e-06	7.793041e-06	1.120214e-08	5.426331e+01	7.372789e+02
2.120000e-06	7.825699e-06	1.121369e-08	5.449071e+01	7.380477e+02
2.130000e-06	7.857109e-06	1.122180e-08	5.470942e+01	7.387823e+02
2.140000e-06	7.887269e-06	1.123000e-08	5.491942e+01	7.395125e+02
2.150000e-06	7.916191e-06	1.124062e-08	5.512081e+01	7.402501e+02
2.160000e-06	7.943857e-06	1.125243e-08	5.531345e+01	7.409862e+02
2.170000e-06	7.969934e-06	1.126404e-08	5.549503e+01	7.416971e+02
2.180000e-06	7.994413e-06	1.127639e-08	5.566547e+01	7.423559e+02
2.190000e-06	8.017553e-06	1.128925e-08	5.582660e+01	7.429448e+02
2.200000e-06	8.039368e-06	1.129988e-08	5.597850e+01	7.434628e+02
2.210000e-06	8.059908e-06	1.130777e-08	5.612152e+01	7.439248e+02
2.220000e-06	8.079182e-06	1.131333e-08	5.625573e+01	7.443547e+02
2.230000e-06	8.096913e-06	1.131898e-08	5.637918e+01	7.447731e+02
2.240000e-06	8.113077e-06	1.132528e-08	5.649173e+01	7.451872e+02
2.250000e-06	8.127833e-06	1.133091e-08	5.659448e+01	7.455872e+02
2.260000e-06	8.141139e-06	1.133626e-08	5.668713e+01	7.459499e+02
2.270000e-06	8.152914e-06	1.134245e-08	5.676912e+01	7.462494e+02
2.280000e-06	8.162944e-06	1.134965e-08	5.683896e+01	7.464696e+02
2.290000e-06	8.171284e-06	1.135494e-08	5.689703e+01	7.466122e+02
2.300000e-06	8.178229e-06	1.135708e-08	5.694539e+01	7.466979e+02
2.310000e-06	8.183785e-06	1.135762e-08	5.698408e+01	7.467582e+02
2.320000e-06	8.188036e-06	1.135894e-08	5.701368e+01	7.468225e+02
2.330000e-06	8.190890e-06	1.136067e-08	5.703355e+01	7.469041e+02
2.340000e-06	8.192031e-06	1.136110e-08	5.704150e+01	7.469937e+02
2.350000e-06	8.191682e-06	1.136179e-08	5.703907e+01	7.470608e+02
2.360000e-06	8.190097e-06	1.136000e-08	5.702803e+01	7.470658e+02
2.370000e-06	8.187265e-06	1.135824e-08	5.700831e+01	7.469755e+02
2.380000e-06	8.183234e-06	1.135877e-08	5.698024e+01	7.467778e+02
2.390000e-06	8.177719e-06	1.135854e-08	5.694184e+01	7.464877e+02
2.400000e-06	8.170550e-06	1.135704e-08	5.689193e+01	7.461430e+02
2.410000e-06	8.162070e-06	1.135866e-08	5.683288e+01	7.457898e+02
2.420000e-06	8.152393e-06	1.138302e-08	5.676550e+01	7.454646e+02
2.430000e-06	8.141403e-06	1.135271e-08	5.668897e+01	7.451792e+02
2.440000e-06	8.128709e-06	1.127640e-08	5.660059e+01	7.449161e+02
2.450000e-06	8.113715e-06	1.129260e-08	5.649618e+01	7.446350e+02
2.460000e-06	8.096597e-06	1.129840e-08	5.637699e+01	7.442906e+02
2.470000e-06	8.078079e-06	1.138379e-08	5.624804e+01	7.438517e+02
2.480000e-06	8.058778e-06	1.138081e-08	5.611365e+01	7.433158e+02
2.490000e-06	8.038826e-06	1.120700e-08	5.597472e+01	7.427125e+02
2.500000e-06	8.017357e-06	1.135473e-08	5.582523e+01	7.420923e+02
2.510000e-06	7.994180e-06	1.135287e-08	5.566385e+01	7.415059e+02
2.520000e-06	7.969914e-06	1.117605e-08	5.549489e+01	7.409820e+02
2.530000e-06	7.944215e-06	1.134707e-08	5.531594e+01	7.405118e+02
2.540000e-06	7.917099e-06	1.128674e-08	5.512713e+01	7.400468e+02
2.550000e-06	7.888871e-06	1.116918e-08	5.493058e+01	7.395133e+02
2.560000e-06	7.859056e-06	1.134256e-08	5.472298e+01	7.388361e+02
2.570000e-06	7.827737e-06	1.124235e-08	5.450490e+01	7.379653e+02
2.580000e-06	7.795134e-06	1.120156e-08	5.427789e+01	7.368942e+02
2.590000e-06	7.761055e-06	1.123402e-08	5.404059e+01	7.356628e+02
2.600000e-06	7.725735e-06	1.112482e-08	5.379466e+01	7.343434e+02
2.610000e-06	7.689147e-06	1.123962e-08	5.353989e+01	7.330158e+02
2.620000e-06	7.650999e-06	1.116070e-08	5.327427e+01	7.317395e+02
2.630000e-06	7.611320e-06	1.108792e-08	5.299798e+01	7.305333e+02
2.640000e-06	7.570271e-06	1.115883e-08	5.271215e+01	7.293707e+02
2.650000e-06	7.528079e-06	1.107611e-08	5.241837e+01	7.281921e+02
2.660000e-06	7.484641e-06	1.109501e-08	5.211591e+01	7.269277e+02
2.670000e-06	7.439823e-06	1.102646e-08	5.180384e+01	7.255240e+02
2.680000e-06	7.393534e-06	1.103039e-08	5.148152e+01	7.239622e+02
2.690000e-06	7.345806e-06	1.105370e-08	5.114919e+01	7.222631e+02
2.700000e-06	7.296824e-06	1.096228e-08	5.080813e+01	7.204757e+02
2.710000e-06	7.246474e-06	1.099266e-08	5.045754e+01	7.186561e+02
2.720000e-06	7.194693e-06	1.089308e-08	5.009698e+01	7.168447e+02
2.730000e-06	7.141356e-06	1.089670e-08	4.972560e+01	7.150503e+02
2.740000e-06	7.086356e-06	1.090206e-08	4.934263e+01	7.132480e+02
2.750000e-06	7.030003e-06	1.082629e-08	4.895024e+01	7.113907e+02
2.760000e-06	6.972456e-06	1.084476e-08	4.854954e+01	7.094289e+02
2.770000e-06	6.913762e-06	1.077534e-08	4.814085e+01	7.073306e+02
2.780000e-06	6.854012e-06	1.078176e-08	4.772481e+01	7.050930e+02
2.790000e-06	6.793127e-06	1.072323e-08	4.730086e+01	7.027419e+02
2.800000e-06	6.730909e-06	1.066857e-08	4.686764e+01	7.003193e+02
2.810000e-06	6.667351e-06	1.065416e-08	4.642508e+01	6.978640e+02
2.820000e-06	6.602636e-06	1.060168e-08	4.597447e+01	6.953953e+02
2.830000e-06	6.536765e-06	1.059718e-08	4.551581e+01	6.929050e+02
2.840000e-06	6.469857e-06	1.052287e-08	4.504992e+01	6.903617e+02
2.850000e-06	6.401894e-06	1.049562e-08	4.457669e+01	6.877253e+02
2.860000e-06	6.332634e-06	1.046100e-08	4.409443e+01	6.849650e+02
2.870000e-06	6.262160e-06	1.042835e-08	4.360372e+01	6.820733e+02
2.880000e-06	6.190543e-06	1.039109e-08	4.310505e+01	6.790688e+02
2.890000e-06	6.117850e-06	1.031685e-08	4.259888e+01	6.759879e+02
2.900000e-06	6.044215e-06	1.027577e-08	4.208616e+01	6.728678e+02
2.910000e-06	5.969600e-06	1.022442e-08	4.156661e+01	6.697278e+02
2.920000e-06	5.893904e-06	1.018817e-08	4.103953e+01	6.665578e+02
2.930000e-06	5.816884e-06	1.012920e-08	4.050324e+01	6.633196e+02
2.940000e-06	5.738548e-06	1.008457e-08	3.995778e+01	6.599591e+02
2.950000e-06	5.659069e-06	1.004112e-08	3.940437e+01	6.564274e+02
