# Temperatura_=_20.0
# Concentracion g/m^3_=_10000.0
# C_Vs_to_Am_M_A/Vsm_=_65563218390.804596
# pendiente_HvsI_1/m_=_3716.3
# ordenada_HvsI_A/m_=_1297.0
# frecuencia_Hz_=_212869.349241786

Tiempo_(s)	Campo_(V.s)	Magnetizacion_(V.s)	Campo_(kA/m)	Magnetizacion_(A/m)
0.000000e+00	-8.160439e-06	-1.141867e-08	-5.697644e+01	-7.459584e+02
1.000000e-08	-8.158672e-06	-1.141511e-08	-5.696410e+01	-7.459902e+02
2.000000e-08	-8.155320e-06	-1.141427e-08	-5.694069e+01	-7.459701e+02
3.000000e-08	-8.150788e-06	-1.141169e-08	-5.690905e+01	-7.458520e+02
4.000000e-08	-8.145031e-06	-1.140926e-08	-5.686886e+01	-7.456123e+02
5.000000e-08	-8.137941e-06	-1.140512e-08	-5.681935e+01	-7.452597e+02
6.000000e-08	-8.129594e-06	-1.139781e-08	-5.676107e+01	-7.448325e+02
7.000000e-08	-8.119692e-06	-1.138443e-08	-5.669194e+01	-7.443839e+02
8.000000e-08	-8.108039e-06	-1.135843e-08	-5.661057e+01	-7.439624e+02
9.000000e-08	-8.094672e-06	-1.137984e-08	-5.651725e+01	-7.435939e+02
1.000000e-07	-8.079383e-06	-1.140560e-08	-5.641050e+01	-7.432736e+02
1.100000e-07	-8.062245e-06	-1.138299e-08	-5.629084e+01	-7.429705e+02
1.200000e-07	-8.043692e-06	-1.138240e-08	-5.616131e+01	-7.426417e+02
1.300000e-07	-8.024093e-06	-1.132862e-08	-5.602446e+01	-7.422514e+02
1.400000e-07	-8.003555e-06	-1.128313e-08	-5.588107e+01	-7.417859e+02
1.500000e-07	-7.981826e-06	-1.140196e-08	-5.572935e+01	-7.412580e+02
1.600000e-07	-7.958897e-06	-1.130955e-08	-5.556927e+01	-7.406999e+02
1.700000e-07	-7.934808e-06	-1.124885e-08	-5.540107e+01	-7.401468e+02
1.800000e-07	-7.909059e-06	-1.136848e-08	-5.522129e+01	-7.396180e+02
1.900000e-07	-7.881763e-06	-1.126069e-08	-5.503071e+01	-7.391044e+02
2.000000e-07	-7.853281e-06	-1.125155e-08	-5.483185e+01	-7.385678e+02
2.100000e-07	-7.823497e-06	-1.130543e-08	-5.462389e+01	-7.379519e+02
2.200000e-07	-7.792429e-06	-1.119975e-08	-5.440697e+01	-7.372022e+02
2.300000e-07	-7.760029e-06	-1.121617e-08	-5.418076e+01	-7.362866e+02
2.400000e-07	-7.726176e-06	-1.124267e-08	-5.394439e+01	-7.352077e+02
2.500000e-07	-7.690872e-06	-1.116885e-08	-5.369790e+01	-7.340028e+02
2.600000e-07	-7.654173e-06	-1.117049e-08	-5.344167e+01	-7.327306e+02
2.700000e-07	-7.616130e-06	-1.114154e-08	-5.317606e+01	-7.314491e+02
2.800000e-07	-7.576829e-06	-1.111878e-08	-5.290165e+01	-7.301943e+02
2.900000e-07	-7.536163e-06	-1.110883e-08	-5.261772e+01	-7.289669e+02
3.000000e-07	-7.493947e-06	-1.108980e-08	-5.232297e+01	-7.277324e+02
3.100000e-07	-7.450234e-06	-1.106512e-08	-5.201776e+01	-7.264353e+02
3.200000e-07	-7.405167e-06	-1.104102e-08	-5.170310e+01	-7.250201e+02
3.300000e-07	-7.358757e-06	-1.105005e-08	-5.137907e+01	-7.234528e+02
3.400000e-07	-7.310877e-06	-1.098875e-08	-5.104477e+01	-7.217336e+02
3.500000e-07	-7.261401e-06	-1.094936e-08	-5.069932e+01	-7.198960e+02
3.600000e-07	-7.210272e-06	-1.093996e-08	-5.034234e+01	-7.179939e+02
3.700000e-07	-7.157616e-06	-1.089696e-08	-4.997470e+01	-7.160802e+02
3.800000e-07	-7.103602e-06	-1.088685e-08	-4.959757e+01	-7.141879e+02
3.900000e-07	-7.048389e-06	-1.085076e-08	-4.921207e+01	-7.123178e+02
4.000000e-07	-6.991999e-06	-1.081473e-08	-4.881835e+01	-7.104403e+02
4.100000e-07	-6.934213e-06	-1.079679e-08	-4.841489e+01	-7.085074e+02
4.200000e-07	-6.875024e-06	-1.076478e-08	-4.800163e+01	-7.064716e+02
4.300000e-07	-6.814584e-06	-1.072869e-08	-4.757963e+01	-7.043032e+02
4.400000e-07	-6.752983e-06	-1.068187e-08	-4.714953e+01	-7.019995e+02
4.500000e-07	-6.690293e-06	-1.065234e-08	-4.671183e+01	-6.995825e+02
4.600000e-07	-6.626619e-06	-1.061438e-08	-4.626726e+01	-6.970878e+02
4.700000e-07	-6.561800e-06	-1.057398e-08	-4.581468e+01	-6.945478e+02
4.800000e-07	-6.495681e-06	-1.053591e-08	-4.535305e+01	-6.919792e+02
4.900000e-07	-6.428386e-06	-1.049156e-08	-4.488319e+01	-6.893762e+02
5.000000e-07	-6.359949e-06	-1.045823e-08	-4.440536e+01	-6.867154e+02
5.100000e-07	-6.290539e-06	-1.041442e-08	-4.392074e+01	-6.839667e+02
5.200000e-07	-6.220191e-06	-1.036215e-08	-4.342956e+01	-6.811069e+02
5.300000e-07	-6.148711e-06	-1.031099e-08	-4.293048e+01	-6.781291e+02
5.400000e-07	-6.076155e-06	-1.026403e-08	-4.242390e+01	-6.750443e+02
5.500000e-07	-6.002539e-06	-1.021978e-08	-4.190991e+01	-6.718741e+02
5.600000e-07	-5.927764e-06	-1.017299e-08	-4.138783e+01	-6.686390e+02
5.700000e-07	-5.851777e-06	-1.012192e-08	-4.085728e+01	-6.653467e+02
5.800000e-07	-5.774602e-06	-1.006921e-08	-4.031844e+01	-6.619867e+02
5.900000e-07	-5.696305e-06	-1.001809e-08	-3.977178e+01	-6.585326e+02
6.000000e-07	-5.616912e-06	-9.961643e-09	-3.921745e+01	-6.549529e+02
6.100000e-07	-5.536361e-06	-9.896163e-09	-3.865504e+01	-6.512242e+02
6.200000e-07	-5.454689e-06	-9.831811e-09	-3.808480e+01	-6.473417e+02
6.300000e-07	-5.372153e-06	-9.773408e-09	-3.750853e+01	-6.433214e+02
6.400000e-07	-5.288799e-06	-9.712811e-09	-3.692655e+01	-6.391939e+02
6.500000e-07	-5.204550e-06	-9.648595e-09	-3.633833e+01	-6.349904e+02
6.600000e-07	-5.119437e-06	-9.577379e-09	-3.574407e+01	-6.307281e+02
6.700000e-07	-5.033571e-06	-9.508790e-09	-3.514454e+01	-6.264003e+02
6.800000e-07	-4.946941e-06	-9.444927e-09	-3.453969e+01	-6.219764e+02
6.900000e-07	-4.859389e-06	-9.375261e-09	-3.392840e+01	-6.174113e+02
7.000000e-07	-4.770783e-06	-9.302527e-09	-3.330975e+01	-6.126622e+02
7.100000e-07	-4.681259e-06	-9.226457e-09	-3.268469e+01	-6.077044e+02
7.200000e-07	-4.590950e-06	-9.151067e-09	-3.205415e+01	-6.025417e+02
7.300000e-07	-4.499750e-06	-9.068902e-09	-3.141739e+01	-5.972039e+02
7.400000e-07	-4.407628e-06	-8.977728e-09	-3.077419e+01	-5.917360e+02
7.500000e-07	-4.314667e-06	-8.887605e-09	-3.012513e+01	-5.861786e+02
7.600000e-07	-4.221052e-06	-8.801350e-09	-2.947151e+01	-5.805515e+02
7.700000e-07	-4.126767e-06	-8.718226e-09	-2.881321e+01	-5.748437e+02
7.800000e-07	-4.031662e-06	-8.630337e-09	-2.814919e+01	-5.690155e+02
7.900000e-07	-3.935836e-06	-8.539002e-09	-2.748013e+01	-5.630123e+02
8.000000e-07	-3.839393e-06	-8.446226e-09	-2.680676e+01	-5.567836e+02
8.100000e-07	-3.742223e-06	-8.347785e-09	-2.612831e+01	-5.503005e+02
8.200000e-07	-3.644385e-06	-8.240425e-09	-2.544521e+01	-5.435654e+02
8.300000e-07	-3.545960e-06	-8.125591e-09	-2.475800e+01	-5.366085e+02
8.400000e-07	-3.446932e-06	-8.014528e-09	-2.406659e+01	-5.294748e+02
8.500000e-07	-3.347261e-06	-7.908806e-09	-2.337068e+01	-5.222045e+02
8.600000e-07	-3.246865e-06	-7.800560e-09	-2.266971e+01	-5.148164e+02
8.700000e-07	-3.145870e-06	-7.686296e-09	-2.196456e+01	-5.072998e+02
8.800000e-07	-3.044442e-06	-7.566438e-09	-2.125638e+01	-4.996182e+02
8.900000e-07	-2.942651e-06	-7.445443e-09	-2.054568e+01	-4.917226e+02
9.000000e-07	-2.840466e-06	-7.319039e-09	-1.983222e+01	-4.835695e+02
9.100000e-07	-2.737834e-06	-7.182424e-09	-1.911564e+01	-4.751358e+02
9.200000e-07	-2.634755e-06	-7.043290e-09	-1.839594e+01	-4.664250e+02
9.300000e-07	-2.531205e-06	-6.908286e-09	-1.767295e+01	-4.574618e+02
9.400000e-07	-2.427159e-06	-6.774447e-09	-1.694650e+01	-4.482782e+02
9.500000e-07	-2.322619e-06	-6.631789e-09	-1.621659e+01	-4.388970e+02
9.600000e-07	-2.217658e-06	-6.482320e-09	-1.548375e+01	-4.293187e+02
9.700000e-07	-2.112333e-06	-6.331263e-09	-1.474838e+01	-4.195182e+02
9.800000e-07	-2.006620e-06	-6.178320e-09	-1.401028e+01	-4.094513e+02
9.900000e-07	-1.900547e-06	-6.021839e-09	-1.326968e+01	-3.990698e+02
1.000000e-06	-1.794127e-06	-5.857563e-09	-1.252665e+01	-3.883367e+02
1.010000e-06	-1.687354e-06	-5.688247e-09	-1.178116e+01	-3.772373e+02
1.020000e-06	-1.580202e-06	-5.514935e-09	-1.103302e+01	-3.657805e+02
1.030000e-06	-1.472683e-06	-5.335026e-09	-1.028231e+01	-3.539901e+02
1.040000e-06	-1.364846e-06	-5.148435e-09	-9.529394e+00	-3.418902e+02
1.050000e-06	-1.256665e-06	-4.956283e-09	-8.774077e+00	-3.294907e+02
1.060000e-06	-1.148223e-06	-4.763977e-09	-8.016925e+00	-3.167786e+02
1.070000e-06	-1.039549e-06	-4.569418e-09	-7.258164e+00	-3.037187e+02
1.080000e-06	-9.306380e-07	-4.368996e-09	-6.497743e+00	-2.902632e+02
1.090000e-06	-8.215192e-07	-4.159793e-09	-5.735872e+00	-2.763663e+02
1.100000e-06	-7.122449e-07	-3.940708e-09	-4.972915e+00	-2.619968e+02
1.110000e-06	-6.028955e-07	-3.714088e-09	-4.209435e+00	-2.471439e+02
1.120000e-06	-4.934427e-07	-3.478724e-09	-3.445232e+00	-2.318138e+02
1.130000e-06	-3.838873e-07	-3.236073e-09	-2.680313e+00	-2.160187e+02
1.140000e-06	-2.742921e-07	-2.986986e-09	-1.915116e+00	-1.997624e+02
1.150000e-06	-1.646976e-07	-2.731672e-09	-1.149924e+00	-1.830295e+02
1.160000e-06	-5.512097e-08	-2.472285e-09	-3.848563e-01	-1.657828e+02
1.170000e-06	5.440924e-08	-2.202758e-09	3.798870e-01	-1.479698e+02
1.180000e-06	1.639105e-07	-1.921184e-09	1.144428e+00	-1.295358e+02
1.190000e-06	2.733769e-07	-1.630750e-09	1.908726e+00	-1.104397e+02
1.200000e-06	3.827928e-07	-1.330847e-09	2.672671e+00	-9.066420e+01
1.210000e-06	4.921552e-07	-1.019257e-09	3.436242e+00	-7.021847e+01
1.220000e-06	6.013698e-07	-6.937593e-10	4.198783e+00	-4.913167e+01
1.230000e-06	7.104550e-07	-3.597782e-10	4.960419e+00	-2.744151e+01
1.240000e-06	8.194679e-07	-1.887866e-11	5.721550e+00	-5.183554e+00
1.250000e-06	9.282825e-07	3.288499e-10	6.481297e+00	1.761314e+01
1.260000e-06	1.036902e-06	6.835476e-10	7.239683e+00	4.092091e+01
1.270000e-06	1.145406e-06	1.045400e-09	7.997257e+00	6.470003e+01
1.280000e-06	1.253693e-06	1.411538e-09	8.753324e+00	8.888196e+01
1.290000e-06	1.361666e-06	1.784092e-09	9.507197e+00	1.133563e+02
1.300000e-06	1.469279e-06	2.161791e-09	1.025855e+01	1.379679e+02
1.310000e-06	1.576524e-06	2.537566e-09	1.100734e+01	1.625262e+02
1.320000e-06	1.683439e-06	2.905426e-09	1.175382e+01	1.868269e+02
1.330000e-06	1.790029e-06	3.265286e-09	1.249804e+01	2.106777e+02
1.340000e-06	1.896317e-06	3.619258e-09	1.324014e+01	2.339217e+02
1.350000e-06	2.002279e-06	3.961513e-09	1.397997e+01	2.564513e+02
1.360000e-06	2.107905e-06	4.290319e-09	1.471746e+01	2.782079e+02
1.370000e-06	2.213244e-06	4.606248e-09	1.545294e+01	2.991704e+02
1.380000e-06	2.318243e-06	4.911601e-09	1.618604e+01	3.193360e+02
1.390000e-06	2.422799e-06	5.206359e-09	1.691606e+01	3.387026e+02
1.400000e-06	2.526833e-06	5.486677e-09	1.764243e+01	3.572578e+02
1.410000e-06	2.630402e-06	5.753299e-09	1.836555e+01	3.749791e+02
1.420000e-06	2.733498e-06	6.006993e-09	1.908537e+01	3.918426e+02
1.430000e-06	2.836079e-06	6.249839e-09	1.980159e+01	4.078377e+02
1.440000e-06	2.938249e-06	6.479605e-09	2.051495e+01	4.229780e+02
1.450000e-06	3.040005e-06	6.693620e-09	2.122540e+01	4.373065e+02
1.460000e-06	3.141286e-06	6.895952e-09	2.193256e+01	4.508896e+02
1.470000e-06	3.242134e-06	7.089927e-09	2.263668e+01	4.638043e+02
1.480000e-06	3.342519e-06	7.276924e-09	2.333757e+01	4.761213e+02
1.490000e-06	3.442254e-06	7.453538e-09	2.403392e+01	4.878920e+02
1.500000e-06	3.541195e-06	7.618841e-09	2.472473e+01	4.991425e+02
1.510000e-06	3.639378e-06	7.778296e-09	2.541025e+01	5.098777e+02
1.520000e-06	3.736904e-06	7.933540e-09	2.609118e+01	5.200921e+02
1.530000e-06	3.833741e-06	8.081831e-09	2.676729e+01	5.297833e+02
1.540000e-06	3.929848e-06	8.222216e-09	2.743832e+01	5.389633e+02
1.550000e-06	4.025189e-06	8.357675e-09	2.810399e+01	5.476616e+02
1.560000e-06	4.119780e-06	8.486956e-09	2.876443e+01	5.559220e+02
1.570000e-06	4.213698e-06	8.605971e-09	2.942017e+01	5.637926e+02
1.580000e-06	4.306968e-06	8.714052e-09	3.007138e+01	5.713153e+02
1.590000e-06	4.399562e-06	8.814171e-09	3.071788e+01	5.785185e+02
1.600000e-06	4.491329e-06	8.912077e-09	3.135860e+01	5.854151e+02
1.610000e-06	4.582194e-06	9.010217e-09	3.199302e+01	5.920080e+02
1.620000e-06	4.672120e-06	9.106800e-09	3.262088e+01	5.982986e+02
1.630000e-06	4.761146e-06	9.200930e-09	3.324247e+01	6.042950e+02
1.640000e-06	4.849287e-06	9.290560e-09	3.385787e+01	6.100174e+02
1.650000e-06	4.936549e-06	9.375280e-09	3.446713e+01	6.154969e+02
1.660000e-06	5.022978e-06	9.454316e-09	3.507058e+01	6.207700e+02
1.670000e-06	5.108562e-06	9.527509e-09	3.566814e+01	6.258701e+02
1.680000e-06	5.193332e-06	9.596647e-09	3.626000e+01	6.308212e+02
1.690000e-06	5.277296e-06	9.665596e-09	3.684624e+01	6.356344e+02
1.700000e-06	5.360392e-06	9.736718e-09	3.742642e+01	6.403100e+02
1.710000e-06	5.442493e-06	9.806197e-09	3.799965e+01	6.448426e+02
1.720000e-06	5.523617e-06	9.873679e-09	3.856606e+01	6.492275e+02
1.730000e-06	5.603763e-06	9.939117e-09	3.912564e+01	6.534648e+02
1.740000e-06	5.682904e-06	1.000200e-08	3.967821e+01	6.575600e+02
1.750000e-06	5.761098e-06	1.005921e-08	4.022416e+01	6.615216e+02
1.760000e-06	5.838309e-06	1.011168e-08	4.076326e+01	6.653565e+02
1.770000e-06	5.914461e-06	1.016281e-08	4.129495e+01	6.690669e+02
1.780000e-06	5.989439e-06	1.021351e-08	4.181844e+01	6.726497e+02
1.790000e-06	6.063282e-06	1.026533e-08	4.233402e+01	6.760996e+02
1.800000e-06	6.135987e-06	1.031668e-08	4.284165e+01	6.794136e+02
1.810000e-06	6.207514e-06	1.036662e-08	4.334106e+01	6.825957e+02
1.820000e-06	6.277926e-06	1.041437e-08	4.383267e+01	6.856574e+02
1.830000e-06	6.347262e-06	1.046039e-08	4.431678e+01	6.886155e+02
1.840000e-06	6.415633e-06	1.050191e-08	4.479414e+01	6.914854e+02
1.850000e-06	6.482993e-06	1.053861e-08	4.526445e+01	6.942747e+02
1.860000e-06	6.549057e-06	1.057476e-08	4.572572e+01	6.969792e+02
1.870000e-06	6.613796e-06	1.061238e-08	4.617772e+01	6.995835e+02
1.880000e-06	6.677388e-06	1.065026e-08	4.662173e+01	7.020677e+02
1.890000e-06	6.739860e-06	1.068690e-08	4.705791e+01	7.044165e+02
1.900000e-06	6.801233e-06	1.072378e-08	4.748641e+01	7.066283e+02
1.910000e-06	6.861585e-06	1.076017e-08	4.790780e+01	7.087184e+02
1.920000e-06	6.920819e-06	1.079192e-08	4.832137e+01	7.107173e+02
1.930000e-06	6.978645e-06	1.081751e-08	4.872511e+01	7.126600e+02
1.940000e-06	7.035052e-06	1.084181e-08	4.911895e+01	7.145746e+02
1.950000e-06	7.090187e-06	1.087000e-08	4.950390e+01	7.164708e+02
1.960000e-06	7.144056e-06	1.090128e-08	4.988002e+01	7.183363e+02
1.970000e-06	7.196524e-06	1.092991e-08	5.024635e+01	7.201407e+02
1.980000e-06	7.247385e-06	1.095554e-08	5.060146e+01	7.218474e+02
1.990000e-06	7.296610e-06	1.097960e-08	5.094516e+01	7.234289e+02
2.000000e-06	7.344410e-06	1.100259e-08	5.127889e+01	7.248791e+02
2.010000e-06	7.390993e-06	1.102240e-08	5.160414e+01	7.262172e+02
2.020000e-06	7.436409e-06	1.104049e-08	5.192123e+01	7.274827e+02
2.030000e-06	7.480647e-06	1.106046e-08	5.223010e+01	7.287211e+02
2.040000e-06	7.523543e-06	1.107968e-08	5.252961e+01	7.299671e+02
2.050000e-06	7.564880e-06	1.109848e-08	5.281822e+01	7.312315e+02
2.060000e-06	7.604841e-06	1.111433e-08	5.309723e+01	7.324967e+02
2.070000e-06	7.643589e-06	1.113206e-08	5.336777e+01	7.337235e+02
2.080000e-06	7.681013e-06	1.115410e-08	5.362907e+01	7.348670e+02
2.090000e-06	7.717289e-06	1.117511e-08	5.388235e+01	7.358938e+02
2.100000e-06	7.752365e-06	1.119410e-08	5.412725e+01	7.367968e+02
2.110000e-06	7.785867e-06	1.120704e-08	5.436116e+01	7.375980e+02
2.120000e-06	7.817910e-06	1.121434e-08	5.458488e+01	7.383408e+02
2.130000e-06	7.848726e-06	1.121838e-08	5.480004e+01	7.390733e+02
2.140000e-06	7.878292e-06	1.122252e-08	5.500647e+01	7.398294e+02
2.150000e-06	7.906615e-06	1.123268e-08	5.520423e+01	7.406155e+02
2.160000e-06	7.933512e-06	1.124820e-08	5.539202e+01	7.414078e+02
2.170000e-06	7.958770e-06	1.126751e-08	5.556837e+01	7.421618e+02
2.180000e-06	7.982631e-06	1.128667e-08	5.573498e+01	7.428303e+02
2.190000e-06	8.005236e-06	1.129675e-08	5.589280e+01	7.433828e+02
2.200000e-06	8.026492e-06	1.130024e-08	5.604121e+01	7.438182e+02
2.210000e-06	8.046505e-06	1.130057e-08	5.618095e+01	7.441663e+02
2.220000e-06	8.065163e-06	1.130151e-08	5.631121e+01	7.444768e+02
2.230000e-06	8.082183e-06	1.130554e-08	5.643005e+01	7.447997e+02
2.240000e-06	8.097658e-06	1.131054e-08	5.653810e+01	7.451665e+02
2.250000e-06	8.111699e-06	1.131857e-08	5.663613e+01	7.455773e+02
2.260000e-06	8.124334e-06	1.132869e-08	5.672435e+01	7.460009e+02
2.270000e-06	8.135375e-06	1.133830e-08	5.680144e+01	7.463873e+02
2.280000e-06	8.144582e-06	1.134338e-08	5.686572e+01	7.466874e+02
2.290000e-06	8.152281e-06	1.134467e-08	5.691947e+01	7.468721e+02
2.300000e-06	8.158651e-06	1.134403e-08	5.696395e+01	7.469438e+02
2.310000e-06	8.163626e-06	1.134175e-08	5.699869e+01	7.469347e+02
2.320000e-06	8.167263e-06	1.133877e-08	5.702408e+01	7.468937e+02
2.330000e-06	8.169303e-06	1.133775e-08	5.703832e+01	7.468658e+02
2.340000e-06	8.169758e-06	1.133984e-08	5.704150e+01	7.468744e+02
2.350000e-06	8.168869e-06	1.134487e-08	5.703529e+01	7.469109e+02
2.360000e-06	8.166668e-06	1.134821e-08	5.701992e+01	7.469383e+02
2.370000e-06	8.163285e-06	1.134675e-08	5.699631e+01	7.469061e+02
2.380000e-06	8.158581e-06	1.134455e-08	5.696346e+01	7.467705e+02
2.390000e-06	8.152278e-06	1.134012e-08	5.691946e+01	7.465126e+02
2.400000e-06	8.144561e-06	1.133188e-08	5.686557e+01	7.461459e+02
2.410000e-06	8.135662e-06	1.132851e-08	5.680344e+01	7.457120e+02
2.420000e-06	8.125573e-06	1.134480e-08	5.673300e+01	7.452649e+02
2.430000e-06	8.114048e-06	1.133075e-08	5.665253e+01	7.448504e+02
2.440000e-06	8.100434e-06	1.127746e-08	5.655748e+01	7.444902e+02
2.450000e-06	8.084541e-06	1.128395e-08	5.644651e+01	7.441751e+02
2.460000e-06	8.066897e-06	1.127562e-08	5.632332e+01	7.438709e+02
2.470000e-06	8.048098e-06	1.134082e-08	5.619206e+01	7.435348e+02
2.480000e-06	8.028717e-06	1.134837e-08	5.605675e+01	7.431335e+02
2.490000e-06	8.008490e-06	1.119046e-08	5.591552e+01	7.426573e+02
2.500000e-06	7.986487e-06	1.130988e-08	5.576190e+01	7.421226e+02
2.510000e-06	7.962990e-06	1.132660e-08	5.559784e+01	7.415633e+02
2.520000e-06	7.938328e-06	1.117042e-08	5.542565e+01	7.410132e+02
2.530000e-06	7.912077e-06	1.129618e-08	5.524237e+01	7.404880e+02
2.540000e-06	7.884586e-06	1.125802e-08	5.505042e+01	7.399741e+02
2.550000e-06	7.855748e-06	1.117578e-08	5.484907e+01	7.394295e+02
2.560000e-06	7.825245e-06	1.131800e-08	5.463610e+01	7.387967e+02
2.570000e-06	7.793512e-06	1.122358e-08	5.441454e+01	7.380235e+02
2.580000e-06	7.760380e-06	1.119980e-08	5.418321e+01	7.370823e+02
2.590000e-06	7.725919e-06	1.125782e-08	5.394260e+01	7.359815e+02
2.600000e-06	7.690355e-06	1.114960e-08	5.369429e+01	7.347626e+02
2.610000e-06	7.653292e-06	1.121619e-08	5.343552e+01	7.334857e+02
2.620000e-06	7.614678e-06	1.117369e-08	5.316591e+01	7.322067e+02
2.630000e-06	7.574574e-06	1.112234e-08	5.288591e+01	7.309569e+02
2.640000e-06	7.533160e-06	1.115617e-08	5.259675e+01	7.297314e+02
2.650000e-06	7.490610e-06	1.108741e-08	5.229967e+01	7.284914e+02
2.660000e-06	7.446708e-06	1.110852e-08	5.199314e+01	7.271799e+02
2.670000e-06	7.401419e-06	1.104209e-08	5.167693e+01	7.257433e+02
2.680000e-06	7.354659e-06	1.104440e-08	5.135046e+01	7.241524e+02
2.690000e-06	7.306531e-06	1.106015e-08	5.101443e+01	7.224126e+02
2.700000e-06	7.257095e-06	1.097264e-08	5.066926e+01	7.205618e+02
2.710000e-06	7.206204e-06	1.099402e-08	5.031394e+01	7.186549e+02
2.720000e-06	7.153874e-06	1.091163e-08	4.994857e+01	7.167431e+02
2.730000e-06	7.099995e-06	1.090473e-08	4.957238e+01	7.148549e+02
2.740000e-06	7.044632e-06	1.090169e-08	4.918583e+01	7.129863e+02
2.750000e-06	6.987906e-06	1.083453e-08	4.878977e+01	7.111038e+02
2.760000e-06	6.929964e-06	1.084375e-08	4.838522e+01	7.091583e+02
2.770000e-06	6.871025e-06	1.078368e-08	4.797371e+01	7.071039e+02
2.780000e-06	6.810939e-06	1.077814e-08	4.755419e+01	7.049148e+02
2.790000e-06	6.749602e-06	1.072713e-08	4.712593e+01	7.025922e+02
2.800000e-06	6.687013e-06	1.067916e-08	4.668893e+01	7.001613e+02
2.810000e-06	6.623182e-06	1.065662e-08	4.624326e+01	6.976580e+02
2.820000e-06	6.558212e-06	1.060061e-08	4.578964e+01	6.951133e+02
2.830000e-06	6.492129e-06	1.058678e-08	4.532824e+01	6.925404e+02
2.840000e-06	6.424949e-06	1.052547e-08	4.485919e+01	6.899307e+02
2.850000e-06	6.356594e-06	1.049861e-08	4.438193e+01	6.872586e+02
2.860000e-06	6.287102e-06	1.046133e-08	4.389673e+01	6.844945e+02
2.870000e-06	6.216514e-06	1.041783e-08	4.340389e+01	6.816170e+02
2.880000e-06	6.144702e-06	1.037771e-08	4.290249e+01	6.786221e+02
2.890000e-06	6.071786e-06	1.031026e-08	4.239340e+01	6.755230e+02
2.900000e-06	5.997914e-06	1.026359e-08	4.187762e+01	6.723420e+02
2.910000e-06	5.922970e-06	1.020995e-08	4.135436e+01	6.690983e+02
2.920000e-06	5.846831e-06	1.017297e-08	4.082275e+01	6.657971e+02
2.930000e-06	5.769526e-06	1.012143e-08	4.028301e+01	6.624250e+02
2.940000e-06	5.691046e-06	1.007392e-08	3.973506e+01	6.589540e+02
2.950000e-06	5.611405e-06	1.002430e-08	3.917900e+01	6.553532e+02
