# Temperatura_=_20.0
# Concentracion g/m^3_=_10000.0
# C_Vs_to_Am_M_A/Vsm_=_65563218390.804596
# pendiente_HvsI_1/m_=_3716.3
# ordenada_HvsI_A/m_=_1297.0
# frecuencia_Hz_=_212870.6153230098

Tiempo_(s)	Campo_(V.s)	Magnetizacion_(V.s)	Campo_(kA/m)	Magnetizacion_(A/m)
0.000000e+00	-8.150953e-06	-1.134525e-08	-5.697403e+01	-7.417222e+02
1.000000e-08	-8.149279e-06	-1.134342e-08	-5.696233e+01	-7.417271e+02
2.000000e-08	-8.146019e-06	-1.134549e-08	-5.693955e+01	-7.417306e+02
3.000000e-08	-8.141447e-06	-1.134471e-08	-5.690759e+01	-7.416831e+02
4.000000e-08	-8.135630e-06	-1.134197e-08	-5.686693e+01	-7.415381e+02
5.000000e-08	-8.128505e-06	-1.133738e-08	-5.681712e+01	-7.412710e+02
6.000000e-08	-8.120124e-06	-1.132935e-08	-5.675854e+01	-7.408882e+02
7.000000e-08	-8.110145e-06	-1.131265e-08	-5.668879e+01	-7.404254e+02
8.000000e-08	-8.098393e-06	-1.128727e-08	-5.660665e+01	-7.399344e+02
9.000000e-08	-8.084942e-06	-1.130795e-08	-5.651262e+01	-7.394643e+02
1.000000e-07	-8.069495e-06	-1.132345e-08	-5.640465e+01	-7.390438e+02
1.100000e-07	-8.052239e-06	-1.129939e-08	-5.628403e+01	-7.386717e+02
1.200000e-07	-8.033590e-06	-1.129471e-08	-5.615368e+01	-7.383198e+02
1.300000e-07	-8.013923e-06	-1.124786e-08	-5.601621e+01	-7.379453e+02
1.400000e-07	-7.993427e-06	-1.123313e-08	-5.587295e+01	-7.375086e+02
1.500000e-07	-7.971737e-06	-1.131484e-08	-5.572134e+01	-7.369895e+02
1.600000e-07	-7.948801e-06	-1.121595e-08	-5.556102e+01	-7.363941e+02
1.700000e-07	-7.924595e-06	-1.119529e-08	-5.539182e+01	-7.357510e+02
1.800000e-07	-7.898629e-06	-1.128583e-08	-5.521032e+01	-7.350966e+02
1.900000e-07	-7.871166e-06	-1.118728e-08	-5.501836e+01	-7.344578e+02
2.000000e-07	-7.842679e-06	-1.120586e-08	-5.481924e+01	-7.338368e+02
2.100000e-07	-7.812916e-06	-1.123184e-08	-5.461120e+01	-7.332068e+02
2.200000e-07	-7.781841e-06	-1.113523e-08	-5.439399e+01	-7.325186e+02
2.300000e-07	-7.749454e-06	-1.116858e-08	-5.416761e+01	-7.317172e+02
2.400000e-07	-7.715509e-06	-1.118007e-08	-5.393034e+01	-7.307623e+02
2.500000e-07	-7.680134e-06	-1.110991e-08	-5.368308e+01	-7.296432e+02
2.600000e-07	-7.643430e-06	-1.109713e-08	-5.342652e+01	-7.283840e+02
2.700000e-07	-7.605335e-06	-1.107561e-08	-5.316024e+01	-7.270353e+02
2.800000e-07	-7.565973e-06	-1.107096e-08	-5.288511e+01	-7.256560e+02
2.900000e-07	-7.525307e-06	-1.104857e-08	-5.260085e+01	-7.242924e+02
3.000000e-07	-7.483030e-06	-1.102797e-08	-5.230534e+01	-7.229608e+02
3.100000e-07	-7.439197e-06	-1.100788e-08	-5.199896e+01	-7.216423e+02
3.200000e-07	-7.393994e-06	-1.098060e-08	-5.168300e+01	-7.202902e+02
3.300000e-07	-7.347404e-06	-1.097829e-08	-5.135734e+01	-7.188485e+02
3.400000e-07	-7.299465e-06	-1.091887e-08	-5.102225e+01	-7.172727e+02
3.500000e-07	-7.249948e-06	-1.088654e-08	-5.067613e+01	-7.155472e+02
3.600000e-07	-7.198655e-06	-1.088102e-08	-5.031760e+01	-7.136906e+02
3.700000e-07	-7.145839e-06	-1.085245e-08	-4.994842e+01	-7.117492e+02
3.800000e-07	-7.091680e-06	-1.083665e-08	-4.956986e+01	-7.097785e+02
3.900000e-07	-7.036343e-06	-1.078952e-08	-4.918307e+01	-7.078224e+02
4.000000e-07	-6.979942e-06	-1.075499e-08	-4.878883e+01	-7.058967e+02
4.100000e-07	-6.922155e-06	-1.072961e-08	-4.838491e+01	-7.039822e+02
4.200000e-07	-6.862945e-06	-1.069323e-08	-4.797104e+01	-7.020320e+02
4.300000e-07	-6.802547e-06	-1.065462e-08	-4.754886e+01	-6.999880e+02
4.400000e-07	-6.741021e-06	-1.061544e-08	-4.711880e+01	-6.978014e+02
4.500000e-07	-6.678391e-06	-1.059680e-08	-4.668103e+01	-6.954499e+02
4.600000e-07	-6.614775e-06	-1.056021e-08	-4.623636e+01	-6.929440e+02
4.700000e-07	-6.550017e-06	-1.051419e-08	-4.578371e+01	-6.903225e+02
4.800000e-07	-6.483790e-06	-1.046700e-08	-4.532080e+01	-6.876371e+02
4.900000e-07	-6.416245e-06	-1.042220e-08	-4.484866e+01	-6.849340e+02
5.000000e-07	-6.347732e-06	-1.038644e-08	-4.436977e+01	-6.822376e+02
5.100000e-07	-6.278330e-06	-1.034136e-08	-4.388466e+01	-6.795437e+02
5.200000e-07	-6.207907e-06	-1.029492e-08	-4.339241e+01	-6.768221e+02
5.300000e-07	-6.136433e-06	-1.025218e-08	-4.289282e+01	-6.740285e+02
5.400000e-07	-6.063991e-06	-1.021097e-08	-4.238645e+01	-6.711204e+02
5.500000e-07	-5.990456e-06	-1.016418e-08	-4.187245e+01	-6.680701e+02
5.600000e-07	-5.915572e-06	-1.011297e-08	-4.134903e+01	-6.648714e+02
5.700000e-07	-5.839423e-06	-1.006016e-08	-4.081676e+01	-6.615382e+02
5.800000e-07	-5.762277e-06	-1.001028e-08	-4.027752e+01	-6.580952e+02
5.900000e-07	-5.684119e-06	-9.959816e-09	-3.973121e+01	-6.545670e+02
6.000000e-07	-5.604812e-06	-9.901372e-09	-3.917686e+01	-6.509682e+02
6.100000e-07	-5.524294e-06	-9.838303e-09	-3.861405e+01	-6.472993e+02
6.200000e-07	-5.442609e-06	-9.780493e-09	-3.804309e+01	-6.435486e+02
6.300000e-07	-5.359957e-06	-9.726339e-09	-3.746536e+01	-6.396983e+02
6.400000e-07	-5.276548e-06	-9.663921e-09	-3.688234e+01	-6.357322e+02
6.500000e-07	-5.192367e-06	-9.598581e-09	-3.629393e+01	-6.316411e+02
6.600000e-07	-5.107366e-06	-9.533083e-09	-3.569978e+01	-6.274232e+02
6.700000e-07	-5.021515e-06	-9.471527e-09	-3.509970e+01	-6.230813e+02
6.800000e-07	-4.934798e-06	-9.406278e-09	-3.449355e+01	-6.186173e+02
6.900000e-07	-4.847276e-06	-9.329571e-09	-3.388179e+01	-6.140275e+02
7.000000e-07	-4.758886e-06	-9.253284e-09	-3.326395e+01	-6.093018e+02
7.100000e-07	-4.669552e-06	-9.181140e-09	-3.263952e+01	-6.044258e+02
7.200000e-07	-4.579244e-06	-9.109141e-09	-3.200828e+01	-5.993869e+02
7.300000e-07	-4.488010e-06	-9.027702e-09	-3.137057e+01	-5.941798e+02
7.400000e-07	-4.395899e-06	-8.940862e-09	-3.072673e+01	-5.888097e+02
7.500000e-07	-4.302994e-06	-8.856829e-09	-3.007733e+01	-5.832904e+02
7.600000e-07	-4.209391e-06	-8.771454e-09	-2.942306e+01	-5.776389e+02
7.700000e-07	-4.115111e-06	-8.681650e-09	-2.876406e+01	-5.718674e+02
7.800000e-07	-4.020197e-06	-8.584466e-09	-2.810062e+01	-5.659766e+02
7.900000e-07	-3.924686e-06	-8.487892e-09	-2.743301e+01	-5.599528e+02
8.000000e-07	-3.828511e-06	-8.395928e-09	-2.676076e+01	-5.537712e+02
8.100000e-07	-3.731554e-06	-8.300208e-09	-2.608304e+01	-5.474031e+02
8.200000e-07	-3.633727e-06	-8.198514e-09	-2.539925e+01	-5.408255e+02
8.300000e-07	-3.535137e-06	-8.093195e-09	-2.471012e+01	-5.340286e+02
8.400000e-07	-3.435957e-06	-7.989833e-09	-2.401686e+01	-5.270181e+02
8.500000e-07	-3.336221e-06	-7.884113e-09	-2.331972e+01	-5.198120e+02
8.600000e-07	-3.236013e-06	-7.765726e-09	-2.261929e+01	-5.124321e+02
8.700000e-07	-3.135320e-06	-7.640029e-09	-2.191545e+01	-5.048944e+02
8.800000e-07	-3.034102e-06	-7.515581e-09	-2.120795e+01	-4.972007e+02
8.900000e-07	-2.932449e-06	-7.397142e-09	-2.049741e+01	-4.893369e+02
9.000000e-07	-2.830360e-06	-7.278228e-09	-1.978383e+01	-4.812759e+02
9.100000e-07	-2.727718e-06	-7.151805e-09	-1.906637e+01	-4.729866e+02
9.200000e-07	-2.624640e-06	-7.022945e-09	-1.834587e+01	-4.644429e+02
9.300000e-07	-2.521201e-06	-6.892340e-09	-1.762285e+01	-4.556310e+02
9.400000e-07	-2.417378e-06	-6.753182e-09	-1.689714e+01	-4.465510e+02
9.500000e-07	-2.313110e-06	-6.601595e-09	-1.616832e+01	-4.372132e+02
9.600000e-07	-2.208384e-06	-6.444417e-09	-1.543630e+01	-4.276299e+02
9.700000e-07	-2.103245e-06	-6.291593e-09	-1.470139e+01	-4.178064e+02
9.800000e-07	-1.997635e-06	-6.141225e-09	-1.396320e+01	-4.077352e+02
9.900000e-07	-1.891583e-06	-5.988721e-09	-1.322191e+01	-3.973954e+02
1.000000e-06	-1.785128e-06	-5.831686e-09	-1.247780e+01	-3.867575e+02
1.010000e-06	-1.678309e-06	-5.667821e-09	-1.173114e+01	-3.757919e+02
1.020000e-06	-1.571136e-06	-5.496497e-09	-1.098202e+01	-3.644766e+02
1.030000e-06	-1.463602e-06	-5.314824e-09	-1.023038e+01	-3.528026e+02
1.040000e-06	-1.355715e-06	-5.125866e-09	-9.476264e+00	-3.407733e+02
1.050000e-06	-1.247576e-06	-4.933818e-09	-8.720385e+00	-3.283984e+02
1.060000e-06	-1.139235e-06	-4.741281e-09	-7.963094e+00	-3.156856e+02
1.070000e-06	-1.030660e-06	-4.548397e-09	-7.204173e+00	-3.026320e+02
1.080000e-06	-9.218602e-07	-4.350281e-09	-6.443675e+00	-2.892204e+02
1.090000e-06	-8.129129e-07	-4.145548e-09	-5.682148e+00	-2.754197e+02
1.100000e-06	-7.038403e-07	-3.933282e-09	-4.919746e+00	-2.611913e+02
1.110000e-06	-5.946144e-07	-3.710026e-09	-4.156272e+00	-2.464974e+02
1.120000e-06	-4.852813e-07	-3.475312e-09	-3.392049e+00	-2.313088e+02
1.130000e-06	-3.759375e-07	-3.230513e-09	-2.627751e+00	-2.156086e+02
1.140000e-06	-2.665599e-07	-2.980269e-09	-1.863217e+00	-1.993909e+02
1.150000e-06	-1.571537e-07	-2.726868e-09	-1.098483e+00	-1.826551e+02
1.160000e-06	-4.774168e-08	-2.468904e-09	-3.337077e-01	-1.653979e+02
1.170000e-06	6.168019e-08	-2.203704e-09	4.311360e-01	-1.476072e+02
1.180000e-06	1.710770e-07	-1.927203e-09	1.195805e+00	-1.292587e+02
1.190000e-06	2.804156e-07	-1.639583e-09	1.960067e+00	-1.103194e+02
1.200000e-06	3.896590e-07	-1.339491e-09	2.723663e+00	-9.075390e+01
1.210000e-06	4.987934e-07	-1.026155e-09	3.486497e+00	-7.053356e+01
1.220000e-06	6.078060e-07	-7.033639e-10	4.248480e+00	-4.964493e+01
1.230000e-06	7.167157e-07	-3.718362e-10	5.009744e+00	-2.809514e+01
1.240000e-06	8.254835e-07	-3.469571e-11	5.770015e+00	-5.913566e+00
1.250000e-06	9.340977e-07	3.077127e-10	6.529214e+00	1.684962e+01
1.260000e-06	1.042542e-06	6.594222e-10	7.287225e+00	4.012626e+01
1.270000e-06	1.150794e-06	1.019228e-09	8.043893e+00	6.383260e+01
1.280000e-06	1.258845e-06	1.385791e-09	8.799154e+00	8.787002e+01
1.290000e-06	1.366653e-06	1.757318e-09	9.552714e+00	1.121245e+02
1.300000e-06	1.474212e-06	2.132668e-09	1.030454e+01	1.364657e+02
1.310000e-06	1.581516e-06	2.504538e-09	1.105458e+01	1.607489e+02
1.320000e-06	1.688478e-06	2.866791e-09	1.180223e+01	1.848189e+02
1.330000e-06	1.795042e-06	3.223867e-09	1.254710e+01	2.085189e+02
1.340000e-06	1.901238e-06	3.575571e-09	1.328939e+01	2.317012e+02
1.350000e-06	2.007074e-06	3.917762e-09	1.402917e+01	2.542385e+02
1.360000e-06	2.112508e-06	4.248176e-09	1.476614e+01	2.760314e+02
1.370000e-06	2.217494e-06	4.566723e-09	1.549997e+01	2.970130e+02
1.380000e-06	2.322075e-06	4.872924e-09	1.623098e+01	3.171462e+02
1.390000e-06	2.426331e-06	5.165319e-09	1.695972e+01	3.364181e+02
1.400000e-06	2.530196e-06	5.444593e-09	1.768572e+01	3.548320e+02
1.410000e-06	2.633630e-06	5.710036e-09	1.840871e+01	3.723993e+02
1.420000e-06	2.736649e-06	5.962492e-09	1.912880e+01	3.891356e+02
1.430000e-06	2.839213e-06	6.203654e-09	1.984571e+01	4.050587e+02
1.440000e-06	2.941314e-06	6.432132e-09	2.055938e+01	4.201908e+02
1.450000e-06	3.042958e-06	6.647410e-09	2.126986e+01	4.345602e+02
1.460000e-06	3.144050e-06	6.850227e-09	2.197648e+01	4.482030e+02
1.470000e-06	3.244652e-06	7.044838e-09	2.267967e+01	4.611620e+02
1.480000e-06	3.344849e-06	7.231655e-09	2.338003e+01	4.734830e+02
1.490000e-06	3.444464e-06	7.407690e-09	2.407633e+01	4.852101e+02
1.500000e-06	3.543328e-06	7.574328e-09	2.476738e+01	4.963807e+02
1.510000e-06	3.641407e-06	7.734914e-09	2.545293e+01	5.070235e+02
1.520000e-06	3.738698e-06	7.891751e-09	2.613298e+01	5.171585e+02
1.530000e-06	3.835271e-06	8.040322e-09	2.680801e+01	5.268009e+02
1.540000e-06	3.931186e-06	8.179368e-09	2.747845e+01	5.359651e+02
1.550000e-06	4.026383e-06	8.312467e-09	2.814386e+01	5.446692e+02
1.560000e-06	4.120844e-06	8.438656e-09	2.880413e+01	5.529371e+02
1.570000e-06	4.214598e-06	8.556845e-09	2.945946e+01	5.607977e+02
1.580000e-06	4.307626e-06	8.666745e-09	3.010971e+01	5.682826e+02
1.590000e-06	4.399971e-06	8.769735e-09	3.075519e+01	5.754217e+02
1.600000e-06	4.491639e-06	8.869979e-09	3.139593e+01	5.822407e+02
1.610000e-06	4.582358e-06	8.967661e-09	3.203005e+01	5.887598e+02
1.620000e-06	4.671991e-06	9.061827e-09	3.265657e+01	5.949949e+02
1.630000e-06	4.760690e-06	9.153258e-09	3.327656e+01	6.009603e+02
1.640000e-06	4.848545e-06	9.240056e-09	3.389066e+01	6.066722e+02
1.650000e-06	4.935547e-06	9.322056e-09	3.449879e+01	6.121501e+02
1.660000e-06	5.021736e-06	9.399696e-09	3.510124e+01	6.174177e+02
1.670000e-06	5.107144e-06	9.474332e-09	3.569823e+01	6.224999e+02
1.680000e-06	5.191779e-06	9.547320e-09	3.628981e+01	6.274201e+02
1.690000e-06	5.275676e-06	9.619582e-09	3.687624e+01	6.321965e+02
1.700000e-06	5.358635e-06	9.689608e-09	3.745612e+01	6.368399e+02
1.710000e-06	5.440499e-06	9.755317e-09	3.802833e+01	6.413536e+02
1.720000e-06	5.521381e-06	9.819261e-09	3.859369e+01	6.457352e+02
1.730000e-06	5.601317e-06	9.882971e-09	3.915243e+01	6.499791e+02
1.740000e-06	5.680250e-06	9.945361e-09	3.970416e+01	6.540800e+02
1.750000e-06	5.758243e-06	1.000332e-08	4.024932e+01	6.580352e+02
1.760000e-06	5.835348e-06	1.005827e-08	4.078828e+01	6.618452e+02
1.770000e-06	5.911469e-06	1.011175e-08	4.132035e+01	6.655143e+02
1.780000e-06	5.986376e-06	1.016454e-08	4.184394e+01	6.690492e+02
1.790000e-06	6.059938e-06	1.021741e-08	4.235813e+01	6.724581e+02
1.800000e-06	6.132381e-06	1.026776e-08	4.286450e+01	6.757491e+02
1.810000e-06	6.203819e-06	1.031462e-08	4.336383e+01	6.789295e+02
1.820000e-06	6.274180e-06	1.035896e-08	4.385565e+01	6.820050e+02
1.830000e-06	6.343459e-06	1.040155e-08	4.433990e+01	6.849782e+02
1.840000e-06	6.411779e-06	1.044048e-08	4.481745e+01	6.878486e+02
1.850000e-06	6.479122e-06	1.047772e-08	4.528817e+01	6.906124e+02
1.860000e-06	6.545059e-06	1.051712e-08	4.574906e+01	6.932631e+02
1.870000e-06	6.609644e-06	1.055892e-08	4.620049e+01	6.957947e+02
1.880000e-06	6.673136e-06	1.059895e-08	4.664430e+01	6.982042e+02
1.890000e-06	6.735499e-06	1.063512e-08	4.708021e+01	7.004949e+02
1.900000e-06	6.796735e-06	1.066815e-08	4.750824e+01	7.026785e+02
1.910000e-06	6.856924e-06	1.069778e-08	4.792895e+01	7.047733e+02
1.920000e-06	6.915917e-06	1.072394e-08	4.834130e+01	7.068014e+02
1.930000e-06	6.973451e-06	1.074896e-08	4.874346e+01	7.087820e+02
1.940000e-06	7.029632e-06	1.077851e-08	4.913615e+01	7.107253e+02
1.950000e-06	7.084585e-06	1.081303e-08	4.952027e+01	7.126286e+02
1.960000e-06	7.138302e-06	1.084805e-08	4.989574e+01	7.144761e+02
1.970000e-06	7.190709e-06	1.087816e-08	5.026206e+01	7.162436e+02
1.980000e-06	7.241544e-06	1.090151e-08	5.061739e+01	7.179069e+02
1.990000e-06	7.290726e-06	1.091981e-08	5.096116e+01	7.194517e+02
2.000000e-06	7.338484e-06	1.093638e-08	5.129498e+01	7.208801e+02
2.010000e-06	7.384948e-06	1.095400e-08	5.161976e+01	7.222129e+02
2.020000e-06	7.430136e-06	1.097428e-08	5.193562e+01	7.234839e+02
2.030000e-06	7.474230e-06	1.099796e-08	5.224383e+01	7.247301e+02
2.040000e-06	7.517023e-06	1.102127e-08	5.254295e+01	7.259789e+02
2.050000e-06	7.558221e-06	1.104260e-08	5.283092e+01	7.272379e+02
2.060000e-06	7.598049e-06	1.106116e-08	5.310931e+01	7.284919e+02
2.070000e-06	7.636661e-06	1.107993e-08	5.337921e+01	7.297072e+02
2.080000e-06	7.674061e-06	1.109936e-08	5.364063e+01	7.308436e+02
2.090000e-06	7.710299e-06	1.111563e-08	5.389392e+01	7.318690e+02
2.100000e-06	7.745144e-06	1.113111e-08	5.413748e+01	7.327721e+02
2.110000e-06	7.778416e-06	1.114451e-08	5.437005e+01	7.335677e+02
2.120000e-06	7.810371e-06	1.115476e-08	5.459342e+01	7.342931e+02
2.130000e-06	7.841084e-06	1.116302e-08	5.480809e+01	7.349949e+02
2.140000e-06	7.870508e-06	1.117221e-08	5.501376e+01	7.357133e+02
2.150000e-06	7.898747e-06	1.118400e-08	5.521115e+01	7.364670e+02
2.160000e-06	7.925584e-06	1.119730e-08	5.539873e+01	7.372461e+02
2.170000e-06	7.950739e-06	1.121236e-08	5.557457e+01	7.380160e+02
2.180000e-06	7.974468e-06	1.122635e-08	5.574043e+01	7.387296e+02
2.190000e-06	7.996901e-06	1.123747e-08	5.589723e+01	7.393452e+02
2.200000e-06	8.018012e-06	1.124588e-08	5.604480e+01	7.398421e+02
2.210000e-06	8.037967e-06	1.125106e-08	5.618428e+01	7.402290e+02
2.220000e-06	8.056525e-06	1.125443e-08	5.631399e+01	7.405407e+02
2.230000e-06	8.073482e-06	1.125733e-08	5.643252e+01	7.408258e+02
2.240000e-06	8.088952e-06	1.126238e-08	5.654065e+01	7.411280e+02
2.250000e-06	8.102943e-06	1.127006e-08	5.663845e+01	7.414699e+02
2.260000e-06	8.115534e-06	1.127839e-08	5.672646e+01	7.418444e+02
2.270000e-06	8.126538e-06	1.128693e-08	5.680338e+01	7.422173e+02
2.280000e-06	8.135723e-06	1.129311e-08	5.686758e+01	7.425409e+02
2.290000e-06	8.143395e-06	1.129677e-08	5.692120e+01	7.427718e+02
2.300000e-06	8.149728e-06	1.129696e-08	5.696547e+01	7.428885e+02
2.310000e-06	8.154652e-06	1.129598e-08	5.699989e+01	7.428993e+02
2.320000e-06	8.158240e-06	1.129482e-08	5.702497e+01	7.428392e+02
2.330000e-06	8.160224e-06	1.129414e-08	5.703883e+01	7.427566e+02
2.340000e-06	8.160605e-06	1.129468e-08	5.704150e+01	7.426941e+02
2.350000e-06	8.159684e-06	1.129575e-08	5.703506e+01	7.426719e+02
2.360000e-06	8.157450e-06	1.129536e-08	5.701944e+01	7.426793e+02
2.370000e-06	8.153991e-06	1.129346e-08	5.699527e+01	7.426785e+02
2.380000e-06	8.149237e-06	1.129351e-08	5.696204e+01	7.426189e+02
2.390000e-06	8.142857e-06	1.129283e-08	5.691744e+01	7.424565e+02
2.400000e-06	8.135032e-06	1.129023e-08	5.686275e+01	7.421708e+02
2.410000e-06	8.126070e-06	1.129009e-08	5.680011e+01	7.417731e+02
2.420000e-06	8.115886e-06	1.130362e-08	5.672892e+01	7.413025e+02
2.430000e-06	8.104276e-06	1.128092e-08	5.664777e+01	7.408119e+02
2.440000e-06	8.090613e-06	1.123671e-08	5.655226e+01	7.403481e+02
2.450000e-06	8.074590e-06	1.124527e-08	5.644027e+01	7.399356e+02
2.460000e-06	8.056774e-06	1.124370e-08	5.631573e+01	7.395689e+02
2.470000e-06	8.037864e-06	1.129844e-08	5.618355e+01	7.392164e+02
2.480000e-06	8.018395e-06	1.127595e-08	5.604747e+01	7.388347e+02
2.490000e-06	7.997915e-06	1.116418e-08	5.590432e+01	7.383863e+02
2.500000e-06	7.975567e-06	1.127886e-08	5.574811e+01	7.378547e+02
2.510000e-06	7.951870e-06	1.125703e-08	5.558247e+01	7.372500e+02
2.520000e-06	7.927062e-06	1.114740e-08	5.540907e+01	7.366028e+02
2.530000e-06	7.900668e-06	1.125133e-08	5.522458e+01	7.359495e+02
2.540000e-06	7.873065e-06	1.117072e-08	5.503164e+01	7.353139e+02
2.550000e-06	7.844144e-06	1.112751e-08	5.482948e+01	7.346939e+02
2.560000e-06	7.813561e-06	1.124824e-08	5.461571e+01	7.340587e+02
2.570000e-06	7.781742e-06	1.113483e-08	5.439330e+01	7.333568e+02
2.580000e-06	7.748588e-06	1.113055e-08	5.416156e+01	7.325343e+02
2.590000e-06	7.714053e-06	1.116793e-08	5.392016e+01	7.315546e+02
2.600000e-06	7.678452e-06	1.109106e-08	5.367132e+01	7.304122e+02
2.610000e-06	7.641447e-06	1.115136e-08	5.341266e+01	7.291358e+02
2.620000e-06	7.602748e-06	1.107371e-08	5.314215e+01	7.277788e+02
2.630000e-06	7.562475e-06	1.105226e-08	5.286065e+01	7.263995e+02
2.640000e-06	7.520973e-06	1.107307e-08	5.257056e+01	7.250405e+02
2.650000e-06	7.478355e-06	1.099906e-08	5.227267e+01	7.237128e+02
2.660000e-06	7.434483e-06	1.102851e-08	5.196601e+01	7.223927e+02
2.670000e-06	7.389269e-06	1.095901e-08	5.164996e+01	7.210307e+02
2.680000e-06	7.342515e-06	1.097525e-08	5.132316e+01	7.195711e+02
2.690000e-06	7.294410e-06	1.097913e-08	5.098692e+01	7.179730e+02
2.700000e-06	7.244982e-06	1.089941e-08	5.064142e+01	7.162258e+02
2.710000e-06	7.194073e-06	1.091446e-08	5.028557e+01	7.143531e+02
2.720000e-06	7.141869e-06	1.083048e-08	4.992068e+01	7.124037e+02
2.730000e-06	7.088095e-06	1.084376e-08	4.954481e+01	7.104329e+02
2.740000e-06	7.032697e-06	1.082235e-08	4.915758e+01	7.084812e+02
2.750000e-06	6.976017e-06	1.076896e-08	4.876139e+01	7.065592e+02
2.760000e-06	6.918193e-06	1.077449e-08	4.835721e+01	7.046428e+02
2.770000e-06	6.859294e-06	1.071289e-08	4.794551e+01	7.026823e+02
2.780000e-06	6.799236e-06	1.071215e-08	4.752572e+01	7.006194e+02
2.790000e-06	6.737853e-06	1.064566e-08	4.709666e+01	6.984087e+02
2.800000e-06	6.675116e-06	1.061465e-08	4.665814e+01	6.960325e+02
2.810000e-06	6.611241e-06	1.059201e-08	4.621166e+01	6.935063e+02
2.820000e-06	6.546255e-06	1.054435e-08	4.575741e+01	6.908718e+02
2.830000e-06	6.480100e-06	1.052232e-08	4.529500e+01	6.881811e+02
2.840000e-06	6.412896e-06	1.045268e-08	4.482526e+01	6.854781e+02
2.850000e-06	6.344682e-06	1.043412e-08	4.434845e+01	6.827831e+02
2.860000e-06	6.275243e-06	1.039337e-08	4.386308e+01	6.800874e+02
2.870000e-06	6.204448e-06	1.035726e-08	4.336823e+01	6.773579e+02
2.880000e-06	6.132569e-06	1.031047e-08	4.286581e+01	6.745496e+02
2.890000e-06	6.059752e-06	1.025267e-08	4.235683e+01	6.716214e+02
2.900000e-06	5.985939e-06	1.021397e-08	4.184088e+01	6.685487e+02
2.910000e-06	5.911109e-06	1.015840e-08	4.131783e+01	6.653286e+02
2.920000e-06	5.835103e-06	1.011649e-08	4.078656e+01	6.619772e+02
2.930000e-06	5.757806e-06	1.005776e-08	4.024626e+01	6.585200e+02
2.940000e-06	5.679195e-06	1.001478e-08	3.969679e+01	6.549805e+02
2.950000e-06	5.599469e-06	9.962962e-09	3.913951e+01	6.513714e+02
