# Temperatura_=_20.0
# Concentracion g/m^3_=_10000.0
# C_Vs_to_Am_M_A/Vsm_=_65563218390.804596
# pendiente_HvsI_1/m_=_3716.3
# ordenada_HvsI_A/m_=_1297.0
# frecuencia_Hz_=_212867.94802871032

Tiempo_(s)	Campo_(V.s)	Magnetizacion_(V.s)	Campo_(kA/m)	Magnetizacion_(A/m)
0.000000e+00	-8.198252e-06	-1.138989e-08	-5.697847e+01	-7.437362e+02
1.000000e-08	-8.196784e-06	-1.138630e-08	-5.696827e+01	-7.437568e+02
2.000000e-08	-8.193686e-06	-1.138577e-08	-5.694674e+01	-7.437094e+02
3.000000e-08	-8.189296e-06	-1.138072e-08	-5.691623e+01	-7.435700e+02
4.000000e-08	-8.183747e-06	-1.137422e-08	-5.687767e+01	-7.433339e+02
5.000000e-08	-8.176899e-06	-1.136996e-08	-5.683007e+01	-7.430181e+02
6.000000e-08	-8.168783e-06	-1.136755e-08	-5.677366e+01	-7.426555e+02
7.000000e-08	-8.159114e-06	-1.136489e-08	-5.670646e+01	-7.422833e+02
8.000000e-08	-8.147689e-06	-1.132635e-08	-5.662706e+01	-7.419300e+02
9.000000e-08	-8.134606e-06	-1.134630e-08	-5.653613e+01	-7.416063e+02
1.000000e-07	-8.119579e-06	-1.139107e-08	-5.643169e+01	-7.413034e+02
1.100000e-07	-8.102651e-06	-1.135767e-08	-5.631404e+01	-7.410001e+02
1.200000e-07	-8.084251e-06	-1.136593e-08	-5.618616e+01	-7.406734e+02
1.300000e-07	-8.064743e-06	-1.133017e-08	-5.605058e+01	-7.403100e+02
1.400000e-07	-8.044357e-06	-1.121948e-08	-5.590889e+01	-7.399123e+02
1.500000e-07	-8.022794e-06	-1.138430e-08	-5.575903e+01	-7.394963e+02
1.600000e-07	-7.999886e-06	-1.131264e-08	-5.559981e+01	-7.390824e+02
1.700000e-07	-7.975799e-06	-1.118198e-08	-5.543241e+01	-7.386822e+02
1.800000e-07	-7.950145e-06	-1.136321e-08	-5.525411e+01	-7.382880e+02
1.900000e-07	-7.922909e-06	-1.124224e-08	-5.506482e+01	-7.378693e+02
2.000000e-07	-7.894536e-06	-1.119989e-08	-5.486762e+01	-7.373785e+02
2.100000e-07	-7.864953e-06	-1.131006e-08	-5.466202e+01	-7.367650e+02
2.200000e-07	-7.834060e-06	-1.118437e-08	-5.444731e+01	-7.359918e+02
2.300000e-07	-7.801798e-06	-1.117873e-08	-5.422309e+01	-7.350492e+02
2.400000e-07	-7.767968e-06	-1.122790e-08	-5.398797e+01	-7.339592e+02
2.500000e-07	-7.732672e-06	-1.114260e-08	-5.374265e+01	-7.327690e+02
2.600000e-07	-7.696098e-06	-1.115627e-08	-5.348847e+01	-7.315353e+02
2.700000e-07	-7.658197e-06	-1.111686e-08	-5.322505e+01	-7.303052e+02
2.800000e-07	-7.618962e-06	-1.110035e-08	-5.295237e+01	-7.291009e+02
2.900000e-07	-7.578403e-06	-1.109965e-08	-5.267048e+01	-7.279125e+02
3.000000e-07	-7.536285e-06	-1.107214e-08	-5.237775e+01	-7.267035e+02
3.100000e-07	-7.492524e-06	-1.105460e-08	-5.207361e+01	-7.254255e+02
3.200000e-07	-7.447365e-06	-1.101132e-08	-5.175975e+01	-7.240360e+02
3.300000e-07	-7.400897e-06	-1.103340e-08	-5.143679e+01	-7.225142e+02
3.400000e-07	-7.353007e-06	-1.097956e-08	-5.110395e+01	-7.208675e+02
3.500000e-07	-7.303575e-06	-1.093754e-08	-5.076040e+01	-7.191270e+02
3.600000e-07	-7.252413e-06	-1.093213e-08	-5.040482e+01	-7.173345e+02
3.700000e-07	-7.199681e-06	-1.087360e-08	-5.003833e+01	-7.155254e+02
3.800000e-07	-7.145606e-06	-1.087507e-08	-4.966250e+01	-7.137153e+02
3.900000e-07	-7.090175e-06	-1.084015e-08	-4.927726e+01	-7.118947e+02
4.000000e-07	-7.033633e-06	-1.079888e-08	-4.888429e+01	-7.100333e+02
4.100000e-07	-6.975892e-06	-1.078351e-08	-4.848298e+01	-7.080928e+02
4.200000e-07	-6.916707e-06	-1.075315e-08	-4.807164e+01	-7.060417e+02
4.300000e-07	-6.856220e-06	-1.072835e-08	-4.765125e+01	-7.038670e+02
4.400000e-07	-6.794560e-06	-1.067195e-08	-4.722271e+01	-7.015778e+02
4.500000e-07	-6.731791e-06	-1.063700e-08	-4.678646e+01	-6.991997e+02
4.600000e-07	-6.667945e-06	-1.059953e-08	-4.634273e+01	-6.967634e+02
4.700000e-07	-6.602987e-06	-1.056134e-08	-4.589126e+01	-6.942911e+02
4.800000e-07	-6.536758e-06	-1.052606e-08	-4.543097e+01	-6.917877e+02
4.900000e-07	-6.469191e-06	-1.047833e-08	-4.496137e+01	-6.892391e+02
5.000000e-07	-6.400584e-06	-1.044905e-08	-4.448454e+01	-6.866190e+02
5.100000e-07	-6.331057e-06	-1.041034e-08	-4.400133e+01	-6.838998e+02
5.200000e-07	-6.260528e-06	-1.036293e-08	-4.351114e+01	-6.810646e+02
5.300000e-07	-6.188908e-06	-1.031027e-08	-4.301338e+01	-6.781131e+02
5.400000e-07	-6.116149e-06	-1.025970e-08	-4.250770e+01	-6.750611e+02
5.500000e-07	-6.042331e-06	-1.021558e-08	-4.199466e+01	-6.719318e+02
5.600000e-07	-5.967314e-06	-1.017185e-08	-4.147328e+01	-6.687447e+02
5.700000e-07	-5.891032e-06	-1.012132e-08	-4.094312e+01	-6.655054e+02
5.800000e-07	-5.813624e-06	-1.006545e-08	-4.040513e+01	-6.622015e+02
5.900000e-07	-5.735161e-06	-1.001580e-08	-3.985981e+01	-6.588062e+02
6.000000e-07	-5.655624e-06	-9.966749e-09	-3.930701e+01	-6.552882e+02
6.100000e-07	-5.574939e-06	-9.907358e-09	-3.874625e+01	-6.516239e+02
6.200000e-07	-5.493074e-06	-9.841104e-09	-3.817728e+01	-6.478066e+02
6.300000e-07	-5.410200e-06	-9.782501e-09	-3.760130e+01	-6.438485e+02
6.400000e-07	-5.326545e-06	-9.725335e-09	-3.701989e+01	-6.397756e+02
6.500000e-07	-5.242146e-06	-9.664514e-09	-3.643331e+01	-6.356158e+02
6.600000e-07	-5.156893e-06	-9.592872e-09	-3.584080e+01	-6.313868e+02
6.700000e-07	-5.070741e-06	-9.523037e-09	-3.524203e+01	-6.270874e+02
6.800000e-07	-4.983789e-06	-9.464672e-09	-3.463771e+01	-6.226964e+02
6.900000e-07	-4.895938e-06	-9.400096e-09	-3.402714e+01	-6.181795e+02
7.000000e-07	-4.807098e-06	-9.328394e-09	-3.340970e+01	-6.135021e+02
7.100000e-07	-4.717351e-06	-9.251048e-09	-3.278595e+01	-6.086414e+02
7.200000e-07	-4.626720e-06	-9.178039e-09	-3.215605e+01	-6.035949e+02
7.300000e-07	-4.535180e-06	-9.101011e-09	-3.151985e+01	-5.983802e+02
7.400000e-07	-4.442777e-06	-9.010745e-09	-3.087764e+01	-5.930267e+02
7.500000e-07	-4.349634e-06	-8.918775e-09	-3.023029e+01	-5.875634e+02
7.600000e-07	-4.255811e-06	-8.832248e-09	-2.957821e+01	-5.820052e+02
7.700000e-07	-4.161306e-06	-8.751103e-09	-2.892139e+01	-5.763461e+02
7.800000e-07	-4.066045e-06	-8.664245e-09	-2.825932e+01	-5.705596e+02
7.900000e-07	-3.969938e-06	-8.571601e-09	-2.759137e+01	-5.646069e+02
8.000000e-07	-3.873088e-06	-8.480548e-09	-2.691825e+01	-5.584500e+02
8.100000e-07	-3.775608e-06	-8.386477e-09	-2.624076e+01	-5.520641e+02
8.200000e-07	-3.677459e-06	-8.282586e-09	-2.555862e+01	-5.454446e+02
8.300000e-07	-3.578539e-06	-8.167775e-09	-2.487112e+01	-5.386070e+02
8.400000e-07	-3.478913e-06	-8.053848e-09	-2.417871e+01	-5.315787e+02
8.500000e-07	-3.378746e-06	-7.945663e-09	-2.348254e+01	-5.243872e+02
8.600000e-07	-3.278051e-06	-7.837954e-09	-2.278270e+01	-5.170496e+02
8.700000e-07	-3.176839e-06	-7.723924e-09	-2.207927e+01	-5.095654e+02
8.800000e-07	-3.075145e-06	-7.603738e-09	-2.137249e+01	-5.019176e+02
8.900000e-07	-2.973053e-06	-7.486671e-09	-2.066294e+01	-4.940788e+02
9.000000e-07	-2.870567e-06	-7.367122e-09	-1.995066e+01	-4.860208e+02
9.100000e-07	-2.767567e-06	-7.237549e-09	-1.923480e+01	-4.777225e+02
9.200000e-07	-2.664059e-06	-7.099312e-09	-1.851541e+01	-4.691742e+02
9.300000e-07	-2.560006e-06	-6.960672e-09	-1.779224e+01	-4.603761e+02
9.400000e-07	-2.455429e-06	-6.826014e-09	-1.706542e+01	-4.513321e+02
9.500000e-07	-2.350454e-06	-6.684630e-09	-1.633584e+01	-4.420437e+02
9.600000e-07	-2.245095e-06	-6.534114e-09	-1.560358e+01	-4.325044e+02
9.700000e-07	-2.139299e-06	-6.381107e-09	-1.486829e+01	-4.226991e+02
9.800000e-07	-2.033128e-06	-6.229313e-09	-1.413040e+01	-4.126080e+02
9.900000e-07	-1.926668e-06	-6.077436e-09	-1.339049e+01	-4.022125e+02
1.000000e-06	-1.819766e-06	-5.916238e-09	-1.264751e+01	-3.915010e+02
1.010000e-06	-1.712382e-06	-5.745858e-09	-1.190118e+01	-3.804705e+02
1.020000e-06	-1.604626e-06	-5.569848e-09	-1.115227e+01	-3.691250e+02
1.030000e-06	-1.496563e-06	-5.389316e-09	-1.040123e+01	-3.574693e+02
1.040000e-06	-1.388204e-06	-5.204280e-09	-9.648120e+00	-3.455019e+02
1.050000e-06	-1.279589e-06	-5.013199e-09	-8.893239e+00	-3.332104e+02
1.060000e-06	-1.170684e-06	-4.820896e-09	-8.136346e+00	-3.205714e+02
1.070000e-06	-1.061546e-06	-4.628881e-09	-7.377824e+00	-3.075543e+02
1.080000e-06	-9.522256e-07	-4.432809e-09	-6.618040e+00	-2.941289e+02
1.090000e-06	-8.426825e-07	-4.226832e-09	-5.856707e+00	-2.802727e+02
1.100000e-06	-7.330647e-07	-4.009467e-09	-5.094855e+00	-2.659743e+02
1.110000e-06	-6.233950e-07	-3.783249e-09	-4.332643e+00	-2.512317e+02
1.120000e-06	-5.136098e-07	-3.548501e-09	-3.569627e+00	-2.360456e+02
1.130000e-06	-4.037458e-07	-3.306394e-09	-2.806064e+00	-2.204115e+02
1.140000e-06	-2.938148e-07	-3.057561e-09	-2.042035e+00	-2.043118e+02
1.150000e-06	-1.838190e-07	-2.805413e-09	-1.277556e+00	-1.877143e+02
1.160000e-06	-7.381366e-08	-2.550618e-09	-5.130105e-01	-1.705760e+02
1.170000e-06	3.620600e-08	-2.288354e-09	2.516344e-01	-1.528517e+02
1.180000e-06	1.461437e-07	-2.013292e-09	1.015710e+00	-1.345049e+02
1.190000e-06	2.559529e-07	-1.723384e-09	1.778892e+00	-1.155156e+02
1.200000e-06	3.657541e-07	-1.421847e-09	2.542019e+00	-9.588210e+01
1.210000e-06	4.755144e-07	-1.109455e-09	3.304861e+00	-7.561733e+01
1.220000e-06	5.851785e-07	-7.852914e-10	4.067035e+00	-5.474017e+01
1.230000e-06	6.947160e-07	-4.532754e-10	4.828329e+00	-3.326721e+01
1.240000e-06	8.040718e-07	-1.188161e-10	5.588360e+00	-1.120897e+01
1.250000e-06	9.132697e-07	2.193844e-10	6.347294e+00	1.142638e+01
1.260000e-06	1.022332e-06	5.666352e-10	7.105287e+00	3.462184e+01
1.270000e-06	1.131231e-06	9.268839e-10	7.862144e+00	5.833627e+01
1.280000e-06	1.239916e-06	1.297358e-09	8.617512e+00	8.249056e+01
1.290000e-06	1.348316e-06	1.671606e-09	9.370902e+00	1.069607e+02
1.300000e-06	1.456453e-06	2.047099e-09	1.012246e+01	1.315816e+02
1.310000e-06	1.564353e-06	2.422327e-09	1.087237e+01	1.561615e+02
1.320000e-06	1.671980e-06	2.792674e-09	1.162039e+01	1.805040e+02
1.330000e-06	1.779283e-06	3.153259e-09	1.236615e+01	2.044300e+02
1.340000e-06	1.886259e-06	3.504245e-09	1.310965e+01	2.277954e+02
1.350000e-06	1.992863e-06	3.845852e-09	1.385055e+01	2.504982e+02
1.360000e-06	2.099116e-06	4.180200e-09	1.458901e+01	2.724746e+02
1.370000e-06	2.205025e-06	4.505017e-09	1.532509e+01	2.936872e+02
1.380000e-06	2.310462e-06	4.815542e-09	1.605789e+01	3.141110e+02
1.390000e-06	2.415483e-06	5.113008e-09	1.678779e+01	3.337217e+02
1.400000e-06	2.520125e-06	5.398789e-09	1.751506e+01	3.524918e+02
1.410000e-06	2.624291e-06	5.671025e-09	1.823902e+01	3.703943e+02
1.420000e-06	2.727979e-06	5.926757e-09	1.895966e+01	3.874118e+02
1.430000e-06	2.831217e-06	6.168786e-09	1.967718e+01	4.035469e+02
1.440000e-06	2.933993e-06	6.399558e-09	2.039148e+01	4.188274e+02
1.450000e-06	3.036277e-06	6.618529e-09	2.110235e+01	4.333051e+02
1.460000e-06	3.138062e-06	6.825792e-09	2.180977e+01	4.470469e+02
1.470000e-06	3.239371e-06	7.022134e-09	2.251388e+01	4.601213e+02
1.480000e-06	3.340174e-06	7.210337e-09	2.321446e+01	4.725860e+02
1.490000e-06	3.440423e-06	7.392169e-09	2.391120e+01	4.844798e+02
1.500000e-06	3.540040e-06	7.563091e-09	2.460355e+01	4.958220e+02
1.510000e-06	3.638960e-06	7.722446e-09	2.529105e+01	5.066189e+02
1.520000e-06	3.737162e-06	7.874820e-09	2.597356e+01	5.168741e+02
1.530000e-06	3.834624e-06	8.024045e-09	2.665093e+01	5.265993e+02
1.540000e-06	3.931281e-06	8.168231e-09	2.732270e+01	5.358194e+02
1.550000e-06	4.027166e-06	8.303257e-09	2.798911e+01	5.445720e+02
1.560000e-06	4.122328e-06	8.430557e-09	2.865050e+01	5.529014e+02
1.570000e-06	4.216704e-06	8.552211e-09	2.930642e+01	5.608499e+02
1.580000e-06	4.310338e-06	8.666709e-09	2.995718e+01	5.684495e+02
1.590000e-06	4.403298e-06	8.771549e-09	3.060326e+01	5.757195e+02
1.600000e-06	4.495602e-06	8.870575e-09	3.124478e+01	5.826683e+02
1.610000e-06	4.587087e-06	8.969302e-09	3.188060e+01	5.893006e+02
1.620000e-06	4.677636e-06	9.066853e-09	3.250992e+01	5.956247e+02
1.630000e-06	4.767243e-06	9.160352e-09	3.313270e+01	6.016587e+02
1.640000e-06	4.855905e-06	9.248598e-09	3.374891e+01	6.074311e+02
1.650000e-06	4.943711e-06	9.332306e-09	3.435916e+01	6.129771e+02
1.660000e-06	5.030623e-06	9.412936e-09	3.496321e+01	6.183309e+02
1.670000e-06	5.116623e-06	9.489352e-09	3.556092e+01	6.235184e+02
1.680000e-06	5.201807e-06	9.562630e-09	3.615295e+01	6.285528e+02
1.690000e-06	5.286208e-06	9.635590e-09	3.673954e+01	6.334350e+02
1.700000e-06	5.369733e-06	9.709248e-09	3.732005e+01	6.381581e+02
1.710000e-06	5.452332e-06	9.780393e-09	3.789412e+01	6.427148e+02
1.720000e-06	5.533995e-06	9.846110e-09	3.846168e+01	6.471032e+02
1.730000e-06	5.614668e-06	9.907319e-09	3.902237e+01	6.513301e+02
1.740000e-06	5.694330e-06	9.966683e-09	3.957603e+01	6.554095e+02
1.750000e-06	5.772959e-06	1.002467e-08	4.012250e+01	6.593576e+02
1.760000e-06	5.850628e-06	1.008046e-08	4.066231e+01	6.631867e+02
1.770000e-06	5.927342e-06	1.013425e-08	4.119548e+01	6.669014e+02
1.780000e-06	6.003025e-06	1.018725e-08	4.172148e+01	6.704979e+02
1.790000e-06	6.077509e-06	1.023923e-08	4.223915e+01	6.739677e+02
1.800000e-06	6.150673e-06	1.028870e-08	4.274764e+01	6.773030e+02
1.810000e-06	6.222665e-06	1.033572e-08	4.324799e+01	6.805022e+02
1.820000e-06	6.293634e-06	1.038117e-08	4.374124e+01	6.835723e+02
1.830000e-06	6.363528e-06	1.042646e-08	4.422701e+01	6.865267e+02
1.840000e-06	6.432388e-06	1.046815e-08	4.470559e+01	6.893802e+02
1.850000e-06	6.500279e-06	1.050435e-08	4.517743e+01	6.921422e+02
1.860000e-06	6.567007e-06	1.053894e-08	4.564119e+01	6.948132e+02
1.870000e-06	6.632405e-06	1.057496e-08	4.609572e+01	6.973837e+02
1.880000e-06	6.696528e-06	1.061300e-08	4.654138e+01	6.998397e+02
1.890000e-06	6.759490e-06	1.065095e-08	4.697897e+01	7.021696e+02
1.900000e-06	6.821338e-06	1.068737e-08	4.740882e+01	7.043719e+02
1.910000e-06	6.882093e-06	1.072125e-08	4.783107e+01	7.064591e+02
1.920000e-06	6.941747e-06	1.074973e-08	4.824567e+01	7.084555e+02
1.930000e-06	7.000101e-06	1.077311e-08	4.865123e+01	7.103904e+02
1.940000e-06	7.056969e-06	1.079608e-08	4.904647e+01	7.122882e+02
1.950000e-06	7.112512e-06	1.082088e-08	4.943250e+01	7.141594e+02
1.960000e-06	7.166805e-06	1.084854e-08	4.980984e+01	7.159968e+02
1.970000e-06	7.219769e-06	1.087890e-08	5.017794e+01	7.177785e+02
1.980000e-06	7.271294e-06	1.090837e-08	5.053604e+01	7.194764e+02
1.990000e-06	7.321222e-06	1.093489e-08	5.088305e+01	7.210679e+02
2.000000e-06	7.369642e-06	1.095661e-08	5.121957e+01	7.225457e+02
2.010000e-06	7.416721e-06	1.097402e-08	5.154677e+01	7.239215e+02
2.020000e-06	7.462475e-06	1.099165e-08	5.186477e+01	7.252225e+02
2.030000e-06	7.506990e-06	1.101095e-08	5.217415e+01	7.264813e+02
2.040000e-06	7.550324e-06	1.103016e-08	5.247533e+01	7.277239e+02
2.050000e-06	7.592224e-06	1.104909e-08	5.276653e+01	7.289590e+02
2.060000e-06	7.632601e-06	1.106897e-08	5.304716e+01	7.301752e+02
2.070000e-06	7.671622e-06	1.108958e-08	5.331835e+01	7.313451e+02
2.080000e-06	7.709443e-06	1.110791e-08	5.358121e+01	7.324363e+02
2.090000e-06	7.746113e-06	1.112372e-08	5.383607e+01	7.334247e+02
2.100000e-06	7.781527e-06	1.113873e-08	5.408220e+01	7.343043e+02
2.110000e-06	7.815444e-06	1.115191e-08	5.431793e+01	7.350906e+02
2.120000e-06	7.847845e-06	1.116212e-08	5.454312e+01	7.358154e+02
2.130000e-06	7.878996e-06	1.116970e-08	5.475962e+01	7.365156e+02
2.140000e-06	7.908911e-06	1.117893e-08	5.496753e+01	7.372198e+02
2.150000e-06	7.937525e-06	1.119138e-08	5.516640e+01	7.379385e+02
2.160000e-06	7.964905e-06	1.120381e-08	5.535670e+01	7.386617e+02
2.170000e-06	7.990818e-06	1.121742e-08	5.553679e+01	7.393638e+02
2.180000e-06	8.015097e-06	1.123216e-08	5.570553e+01	7.400149e+02
2.190000e-06	8.037990e-06	1.124554e-08	5.586464e+01	7.405928e+02
2.200000e-06	8.059508e-06	1.125485e-08	5.601419e+01	7.410919e+02
2.210000e-06	8.079765e-06	1.125983e-08	5.615498e+01	7.415239e+02
2.220000e-06	8.098723e-06	1.126275e-08	5.628674e+01	7.419123e+02
2.230000e-06	8.116122e-06	1.126639e-08	5.640766e+01	7.422817e+02
2.240000e-06	8.132068e-06	1.127112e-08	5.651849e+01	7.426467e+02
2.250000e-06	8.146587e-06	1.127693e-08	5.661940e+01	7.430063e+02
2.260000e-06	8.159539e-06	1.128590e-08	5.670942e+01	7.433443e+02
2.270000e-06	8.170860e-06	1.129535e-08	5.678810e+01	7.436368e+02
2.280000e-06	8.180409e-06	1.130241e-08	5.685446e+01	7.438639e+02
2.290000e-06	8.188396e-06	1.130582e-08	5.690997e+01	7.440185e+02
2.300000e-06	8.195046e-06	1.130560e-08	5.695619e+01	7.441105e+02
2.310000e-06	8.200269e-06	1.130498e-08	5.699249e+01	7.441636e+02
2.320000e-06	8.204172e-06	1.130491e-08	5.701962e+01	7.442053e+02
2.330000e-06	8.206575e-06	1.130539e-08	5.703632e+01	7.442549e+02
2.340000e-06	8.207320e-06	1.130494e-08	5.704150e+01	7.443147e+02
2.350000e-06	8.206610e-06	1.130726e-08	5.703656e+01	7.443678e+02
2.360000e-06	8.204612e-06	1.131096e-08	5.702267e+01	7.443830e+02
2.370000e-06	8.201354e-06	1.130970e-08	5.700004e+01	7.443273e+02
2.380000e-06	8.196918e-06	1.130919e-08	5.696920e+01	7.441782e+02
2.390000e-06	8.191033e-06	1.130781e-08	5.692830e+01	7.439330e+02
2.400000e-06	8.183526e-06	1.130269e-08	5.687613e+01	7.436109e+02
2.410000e-06	8.174813e-06	1.129620e-08	5.681557e+01	7.432458e+02
2.420000e-06	8.164884e-06	1.131574e-08	5.674657e+01	7.428746e+02
2.430000e-06	8.153505e-06	1.131107e-08	5.666748e+01	7.425241e+02
2.440000e-06	8.140237e-06	1.123449e-08	5.657526e+01	7.422032e+02
2.450000e-06	8.124672e-06	1.124800e-08	5.646709e+01	7.419014e+02
2.460000e-06	8.107171e-06	1.122281e-08	5.634545e+01	7.415967e+02
2.470000e-06	8.088387e-06	1.129341e-08	5.621490e+01	7.412667e+02
2.480000e-06	8.068904e-06	1.137253e-08	5.607950e+01	7.408996e+02
2.490000e-06	8.048681e-06	1.112877e-08	5.593894e+01	7.404993e+02
2.500000e-06	8.026806e-06	1.126495e-08	5.578691e+01	7.400827e+02
2.510000e-06	8.003311e-06	1.137334e-08	5.562362e+01	7.396699e+02
2.520000e-06	7.978717e-06	1.113586e-08	5.545269e+01	7.392711e+02
2.530000e-06	7.952611e-06	1.131995e-08	5.527125e+01	7.388763e+02
2.540000e-06	7.925130e-06	1.131624e-08	5.508025e+01	7.384527e+02
2.550000e-06	7.896513e-06	1.112443e-08	5.488137e+01	7.379518e+02
2.560000e-06	7.866283e-06	1.133113e-08	5.467127e+01	7.373237e+02
2.570000e-06	7.834577e-06	1.123747e-08	5.445091e+01	7.365335e+02
2.580000e-06	7.801567e-06	1.117856e-08	5.422149e+01	7.355748e+02
2.590000e-06	7.767154e-06	1.128047e-08	5.398231e+01	7.344724e+02
2.600000e-06	7.731566e-06	1.111123e-08	5.373497e+01	7.332753e+02
2.610000e-06	7.694624e-06	1.122809e-08	5.347822e+01	7.320402e+02
2.620000e-06	7.656054e-06	1.117882e-08	5.321016e+01	7.308123e+02
2.630000e-06	7.615949e-06	1.108881e-08	5.293142e+01	7.296105e+02
2.640000e-06	7.574518e-06	1.117397e-08	5.264348e+01	7.284221e+02
2.650000e-06	7.531926e-06	1.106178e-08	5.234745e+01	7.272085e+02
2.660000e-06	7.488073e-06	1.112065e-08	5.204268e+01	7.259211e+02
2.670000e-06	7.442876e-06	1.103289e-08	5.172855e+01	7.245188e+02
2.680000e-06	7.396184e-06	1.101752e-08	5.140404e+01	7.229838e+02
2.690000e-06	7.348010e-06	1.107307e-08	5.106922e+01	7.213261e+02
2.700000e-06	7.298544e-06	1.094277e-08	5.072543e+01	7.195786e+02
2.710000e-06	7.247739e-06	1.101781e-08	5.037233e+01	7.177831e+02
2.720000e-06	7.195563e-06	1.090879e-08	5.000971e+01	7.159736e+02
2.730000e-06	7.141799e-06	1.090098e-08	4.963605e+01	7.141634e+02
2.740000e-06	7.086382e-06	1.092356e-08	4.925090e+01	7.123403e+02
2.750000e-06	7.029623e-06	1.082431e-08	4.885641e+01	7.104728e+02
2.760000e-06	6.971681e-06	1.085547e-08	4.845371e+01	7.085224e+02
2.770000e-06	6.912662e-06	1.075625e-08	4.804353e+01	7.064593e+02
2.780000e-06	6.852490e-06	1.078066e-08	4.762533e+01	7.042725e+02
2.790000e-06	6.791033e-06	1.073379e-08	4.719819e+01	7.019731e+02
2.800000e-06	6.728208e-06	1.068150e-08	4.676156e+01	6.995879e+02
2.810000e-06	6.664135e-06	1.067337e-08	4.631624e+01	6.971472e+02
2.820000e-06	6.599002e-06	1.060197e-08	4.586357e+01	6.946720e+02
2.830000e-06	6.532791e-06	1.061205e-08	4.540340e+01	6.921650e+02
2.840000e-06	6.465526e-06	1.052619e-08	4.493589e+01	6.896107e+02
2.850000e-06	6.397066e-06	1.050335e-08	4.446010e+01	6.869818e+02
2.860000e-06	6.327424e-06	1.046388e-08	4.397608e+01	6.842516e+02
2.870000e-06	6.256583e-06	1.042615e-08	4.348373e+01	6.814045e+02
2.880000e-06	6.184590e-06	1.039413e-08	4.298337e+01	6.784421e+02
2.890000e-06	6.111597e-06	1.031911e-08	4.247607e+01	6.753813e+02
2.900000e-06	6.037606e-06	1.028212e-08	4.196182e+01	6.722456e+02
2.910000e-06	5.962567e-06	1.022067e-08	4.144029e+01	6.690534e+02
2.920000e-06	5.886265e-06	1.019319e-08	4.090999e+01	6.658085e+02
2.930000e-06	5.808732e-06	1.013545e-08	4.037113e+01	6.624969e+02
2.940000e-06	5.729981e-06	1.009009e-08	3.982380e+01	6.590907e+02
2.950000e-06	5.650064e-06	1.004077e-08	3.926837e+01	6.555590e+02
