# Temperatura_=_20.0
# Concentracion g/m^3_=_10000.0
# C_Vs_to_Am_M_A/Vsm_=_65563218390.804596
# pendiente_HvsI_1/m_=_3716.3
# ordenada_HvsI_A/m_=_1297.0
# frecuencia_Hz_=_212871.2993529277

Tiempo_(s)	Campo_(V.s)	Magnetizacion_(V.s)	Campo_(kA/m)	Magnetizacion_(A/m)
0.000000e+00	-8.109111e-06	-1.137830e-08	-5.697693e+01	-7.433332e+02
1.000000e-08	-8.107500e-06	-1.137701e-08	-5.696560e+01	-7.433392e+02
2.000000e-08	-8.104271e-06	-1.137587e-08	-5.694291e+01	-7.432671e+02
3.000000e-08	-8.099741e-06	-1.137116e-08	-5.691109e+01	-7.431001e+02
4.000000e-08	-8.094029e-06	-1.136620e-08	-5.687095e+01	-7.428422e+02
5.000000e-08	-8.087035e-06	-1.135933e-08	-5.682181e+01	-7.425160e+02
6.000000e-08	-8.078850e-06	-1.134975e-08	-5.676430e+01	-7.421543e+02
7.000000e-08	-8.069157e-06	-1.133317e-08	-5.669619e+01	-7.417877e+02
8.000000e-08	-8.057684e-06	-1.130568e-08	-5.661558e+01	-7.414329e+02
9.000000e-08	-8.044503e-06	-1.134078e-08	-5.652297e+01	-7.410867e+02
1.000000e-07	-8.029317e-06	-1.137145e-08	-5.641627e+01	-7.407279e+02
1.100000e-07	-8.012274e-06	-1.133941e-08	-5.629652e+01	-7.403261e+02
1.200000e-07	-7.993855e-06	-1.133194e-08	-5.616710e+01	-7.398542e+02
1.300000e-07	-7.974373e-06	-1.127114e-08	-5.603022e+01	-7.392997e+02
1.400000e-07	-7.954011e-06	-1.124143e-08	-5.588715e+01	-7.386710e+02
1.500000e-07	-7.932568e-06	-1.136108e-08	-5.573648e+01	-7.379950e+02
1.600000e-07	-7.909867e-06	-1.123669e-08	-5.557698e+01	-7.373083e+02
1.700000e-07	-7.885927e-06	-1.119593e-08	-5.540877e+01	-7.366433e+02
1.800000e-07	-7.860396e-06	-1.133157e-08	-5.522938e+01	-7.360164e+02
1.900000e-07	-7.833325e-06	-1.119764e-08	-5.503917e+01	-7.354206e+02
2.000000e-07	-7.805052e-06	-1.120596e-08	-5.484052e+01	-7.348258e+02
2.100000e-07	-7.775491e-06	-1.126218e-08	-5.463282e+01	-7.341871e+02
2.200000e-07	-7.744678e-06	-1.114249e-08	-5.441631e+01	-7.334574e+02
2.300000e-07	-7.712579e-06	-1.117297e-08	-5.419078e+01	-7.326013e+02
2.400000e-07	-7.679062e-06	-1.119451e-08	-5.395528e+01	-7.316033e+02
2.500000e-07	-7.644070e-06	-1.112343e-08	-5.370941e+01	-7.304714e+02
2.600000e-07	-7.607616e-06	-1.112528e-08	-5.345328e+01	-7.292320e+02
2.700000e-07	-7.569818e-06	-1.108817e-08	-5.318770e+01	-7.279202e+02
2.800000e-07	-7.530767e-06	-1.107940e-08	-5.291331e+01	-7.265688e+02
2.900000e-07	-7.490430e-06	-1.106721e-08	-5.262990e+01	-7.251985e+02
3.000000e-07	-7.448531e-06	-1.104338e-08	-5.233550e+01	-7.238139e+02
3.100000e-07	-7.405045e-06	-1.102067e-08	-5.202996e+01	-7.224043e+02
3.200000e-07	-7.360207e-06	-1.099644e-08	-5.171491e+01	-7.209494e+02
3.300000e-07	-7.314061e-06	-1.100538e-08	-5.139068e+01	-7.194274e+02
3.400000e-07	-7.266616e-06	-1.094133e-08	-5.105731e+01	-7.178223e+02
3.500000e-07	-7.217688e-06	-1.090984e-08	-5.071353e+01	-7.161284e+02
3.600000e-07	-7.167024e-06	-1.089984e-08	-5.035756e+01	-7.143511e+02
3.700000e-07	-7.114750e-06	-1.085903e-08	-4.999026e+01	-7.125039e+02
3.800000e-07	-7.061056e-06	-1.085265e-08	-4.961299e+01	-7.106032e+02
3.900000e-07	-7.006097e-06	-1.080698e-08	-4.922683e+01	-7.086631e+02
4.000000e-07	-6.950013e-06	-1.077098e-08	-4.883277e+01	-7.066904e+02
4.100000e-07	-6.892711e-06	-1.075268e-08	-4.843015e+01	-7.046834e+02
4.200000e-07	-6.834031e-06	-1.072407e-08	-4.801785e+01	-7.026315e+02
4.300000e-07	-6.773997e-06	-1.069246e-08	-4.759603e+01	-7.005189e+02
4.400000e-07	-6.712836e-06	-1.064607e-08	-4.716630e+01	-6.983276e+02
4.500000e-07	-6.650608e-06	-1.061733e-08	-4.672906e+01	-6.960425e+02
4.600000e-07	-6.587372e-06	-1.057834e-08	-4.628475e+01	-6.936545e+02
4.700000e-07	-6.523102e-06	-1.053929e-08	-4.583317e+01	-6.911629e+02
4.800000e-07	-6.457575e-06	-1.049661e-08	-4.537276e+01	-6.885749e+02
4.900000e-07	-6.390704e-06	-1.045068e-08	-4.490291e+01	-6.859036e+02
5.000000e-07	-6.322587e-06	-1.041890e-08	-4.442430e+01	-6.831641e+02
5.100000e-07	-6.253522e-06	-1.037850e-08	-4.393903e+01	-6.803685e+02
5.200000e-07	-6.183584e-06	-1.032978e-08	-4.344762e+01	-6.775217e+02
5.300000e-07	-6.112655e-06	-1.027735e-08	-4.294925e+01	-6.746188e+02
5.400000e-07	-6.040653e-06	-1.022993e-08	-4.244335e+01	-6.716451e+02
5.500000e-07	-5.967641e-06	-1.018360e-08	-4.193035e+01	-6.685794e+02
5.600000e-07	-5.893569e-06	-1.013538e-08	-4.140989e+01	-6.653999e+02
5.700000e-07	-5.818114e-06	-1.008074e-08	-4.087973e+01	-6.620906e+02
5.800000e-07	-5.741458e-06	-1.002536e-08	-4.034112e+01	-6.586461e+02
5.900000e-07	-5.663789e-06	-9.974216e-09	-3.979540e+01	-6.550744e+02
6.000000e-07	-5.585039e-06	-9.917628e-09	-3.924208e+01	-6.513937e+02
6.100000e-07	-5.505164e-06	-9.854027e-09	-3.868085e+01	-6.476272e+02
6.200000e-07	-5.424008e-06	-9.791881e-09	-3.811062e+01	-6.437942e+02
6.300000e-07	-5.341854e-06	-9.736654e-09	-3.753339e+01	-6.399034e+02
6.400000e-07	-5.259008e-06	-9.677755e-09	-3.695129e+01	-6.359478e+02
6.500000e-07	-5.175271e-06	-9.612607e-09	-3.636293e+01	-6.319058e+02
6.600000e-07	-5.090618e-06	-9.540543e-09	-3.576813e+01	-6.277468e+02
6.700000e-07	-5.005205e-06	-9.471467e-09	-3.516799e+01	-6.234401e+02
6.800000e-07	-4.919008e-06	-9.407212e-09	-3.456235e+01	-6.189636e+02
6.900000e-07	-4.832012e-06	-9.337237e-09	-3.395110e+01	-6.143106e+02
7.000000e-07	-4.744054e-06	-9.265253e-09	-3.333307e+01	-6.094903e+02
7.100000e-07	-4.655109e-06	-9.191641e-09	-3.270812e+01	-6.045235e+02
7.200000e-07	-4.565373e-06	-9.118608e-09	-3.207761e+01	-5.994339e+02
7.300000e-07	-4.474861e-06	-9.036543e-09	-3.144165e+01	-5.942388e+02
7.400000e-07	-4.383457e-06	-8.944498e-09	-3.079941e+01	-5.889418e+02
7.500000e-07	-4.291121e-06	-8.853922e-09	-3.015064e+01	-5.835309e+02
7.600000e-07	-4.198037e-06	-8.767004e-09	-2.949660e+01	-5.779821e+02
7.700000e-07	-4.104263e-06	-8.682954e-09	-2.883772e+01	-5.722673e+02
7.800000e-07	-4.009770e-06	-8.594138e-09	-2.817379e+01	-5.663631e+02
7.900000e-07	-3.914632e-06	-8.503402e-09	-2.750532e+01	-5.602584e+02
8.000000e-07	-3.818817e-06	-8.412555e-09	-2.683209e+01	-5.539559e+02
8.100000e-07	-3.722195e-06	-8.313864e-09	-2.615320e+01	-5.474697e+02
8.200000e-07	-3.624949e-06	-8.205873e-09	-2.546993e+01	-5.408179e+02
8.300000e-07	-3.527239e-06	-8.092296e-09	-2.478339e+01	-5.340141e+02
8.400000e-07	-3.428944e-06	-7.980575e-09	-2.409274e+01	-5.270614e+02
8.500000e-07	-3.329946e-06	-7.873299e-09	-2.339715e+01	-5.199506e+02
8.600000e-07	-3.230219e-06	-7.764485e-09	-2.269644e+01	-5.126623e+02
8.700000e-07	-3.129861e-06	-7.650857e-09	-2.199130e+01	-5.051743e+02
8.800000e-07	-3.029052e-06	-7.533046e-09	-2.128298e+01	-4.974684e+02
8.900000e-07	-2.927942e-06	-7.413427e-09	-2.057255e+01	-4.895350e+02
9.000000e-07	-2.826434e-06	-7.288320e-09	-1.985933e+01	-4.813748e+02
9.100000e-07	-2.724411e-06	-7.153586e-09	-1.914249e+01	-4.729945e+02
9.200000e-07	-2.621902e-06	-7.015067e-09	-1.842223e+01	-4.644007e+02
9.300000e-07	-2.518974e-06	-6.878674e-09	-1.769903e+01	-4.555931e+02
9.400000e-07	-2.415643e-06	-6.743397e-09	-1.697300e+01	-4.465613e+02
9.500000e-07	-2.311855e-06	-6.604028e-09	-1.624375e+01	-4.372847e+02
9.600000e-07	-2.207528e-06	-6.458630e-09	-1.551072e+01	-4.277375e+02
9.700000e-07	-2.102768e-06	-6.308257e-09	-1.477465e+01	-4.178956e+02
9.800000e-07	-1.997700e-06	-6.154118e-09	-1.403641e+01	-4.077432e+02
9.900000e-07	-1.892320e-06	-5.996139e-09	-1.329598e+01	-3.972759e+02
1.000000e-06	-1.786644e-06	-5.830552e-09	-1.255347e+01	-3.864997e+02
1.010000e-06	-1.680616e-06	-5.658788e-09	-1.180849e+01	-3.754254e+02
1.020000e-06	-1.574237e-06	-5.483650e-09	-1.106104e+01	-3.640614e+02
1.030000e-06	-1.467566e-06	-5.305055e-09	-1.031153e+01	-3.524069e+02
1.040000e-06	-1.360576e-06	-5.124196e-09	-9.559793e+00	-3.404487e+02
1.050000e-06	-1.253198e-06	-4.937778e-09	-8.805324e+00	-3.281624e+02
1.060000e-06	-1.145469e-06	-4.746958e-09	-8.048390e+00	-3.155170e+02
1.070000e-06	-1.037399e-06	-4.553424e-09	-7.289064e+00	-3.024821e+02
1.080000e-06	-9.289969e-07	-4.353137e-09	-6.527397e+00	-2.890331e+02
1.090000e-06	-8.204098e-07	-4.143011e-09	-5.764433e+00	-2.751547e+02
1.100000e-06	-7.117064e-07	-3.922569e-09	-5.000652e+00	-2.608389e+02
1.110000e-06	-6.029112e-07	-3.695132e-09	-4.236226e+00	-2.460806e+02
1.120000e-06	-4.940420e-07	-3.461153e-09	-3.471280e+00	-2.308725e+02
1.130000e-06	-3.850964e-07	-3.221194e-09	-2.705797e+00	-2.152003e+02
1.140000e-06	-2.760915e-07	-2.974538e-09	-1.939898e+00	-1.990416e+02
1.150000e-06	-1.671013e-07	-2.721448e-09	-1.174102e+00	-1.823676e+02
1.160000e-06	-5.816417e-08	-2.463743e-09	-4.086781e-01	-1.651481e+02
1.170000e-06	5.076828e-08	-2.196287e-09	3.567124e-01	-1.473553e+02
1.180000e-06	1.596925e-07	-1.916168e-09	1.122045e+00	-1.289679e+02
1.190000e-06	2.685518e-07	-1.623185e-09	1.886922e+00	-1.099713e+02
1.200000e-06	3.773522e-07	-1.321261e-09	2.651384e+00	-9.035575e+01
1.210000e-06	4.861133e-07	-1.010488e-09	3.415570e+00	-7.011453e+01
1.220000e-06	5.947656e-07	-6.887236e-10	4.178992e+00	-4.924260e+01
1.230000e-06	7.033091e-07	-3.587192e-10	4.941650e+00	-2.773903e+01
1.240000e-06	8.117553e-07	-2.172976e-11	5.703624e+00	-5.612604e+00
1.250000e-06	9.199992e-07	3.220366e-10	6.464176e+00	1.711021e+01
1.260000e-06	1.028040e-06	6.756653e-10	7.223302e+00	4.037752e+01
1.270000e-06	1.135819e-06	1.037395e-09	7.980588e+00	6.410710e+01
1.280000e-06	1.243208e-06	1.406260e-09	8.735134e+00	8.818650e+01
1.290000e-06	1.350248e-06	1.779837e-09	9.487224e+00	1.124786e+02
1.300000e-06	1.456984e-06	2.153650e-09	1.023718e+01	1.368311e+02
1.310000e-06	1.563448e-06	2.524592e-09	1.098523e+01	1.610882e+02
1.320000e-06	1.669638e-06	2.886636e-09	1.173135e+01	1.851001e+02
1.330000e-06	1.775529e-06	3.239948e-09	1.247538e+01	2.087303e+02
1.340000e-06	1.881151e-06	3.587372e-09	1.321750e+01	2.318580e+02
1.350000e-06	1.986518e-06	3.929781e-09	1.395784e+01	2.543781e+02
1.360000e-06	2.091521e-06	4.264370e-09	1.469563e+01	2.762000e+02
1.370000e-06	2.196113e-06	4.588110e-09	1.543052e+01	2.972473e+02
1.380000e-06	2.300346e-06	4.898468e-09	1.616289e+01	3.174595e+02
1.390000e-06	2.404159e-06	5.192288e-09	1.689231e+01	3.367955e+02
1.400000e-06	2.507524e-06	5.469210e-09	1.761858e+01	3.552368e+02
1.410000e-06	2.610487e-06	5.729080e-09	1.834203e+01	3.727894e+02
1.420000e-06	2.713017e-06	5.975346e-09	1.906243e+01	3.894808e+02
1.430000e-06	2.815084e-06	6.214045e-09	1.977958e+01	4.053539e+02
1.440000e-06	2.916746e-06	6.445746e-09	2.049389e+01	4.204579e+02
1.450000e-06	3.018008e-06	6.666782e-09	2.120538e+01	4.348393e+02
1.460000e-06	3.118825e-06	6.875537e-09	2.191375e+01	4.485350e+02
1.470000e-06	3.219150e-06	7.072241e-09	2.261866e+01	4.615713e+02
1.480000e-06	3.318864e-06	7.257490e-09	2.331928e+01	4.739670e+02
1.490000e-06	3.417853e-06	7.430800e-09	2.401481e+01	4.857395e+02
1.500000e-06	3.516119e-06	7.590823e-09	2.470525e+01	4.969120e+02
1.510000e-06	3.613607e-06	7.746113e-09	2.539023e+01	5.075176e+02
1.520000e-06	3.710355e-06	7.900683e-09	2.607001e+01	5.175984e+02
1.530000e-06	3.806468e-06	8.050836e-09	2.674533e+01	5.272006e+02
1.540000e-06	3.901893e-06	8.195653e-09	2.741581e+01	5.363664e+02
1.550000e-06	3.996616e-06	8.332172e-09	2.808136e+01	5.451269e+02
1.560000e-06	4.090604e-06	8.459340e-09	2.874175e+01	5.534987e+02
1.570000e-06	4.183902e-06	8.576372e-09	2.939729e+01	5.614854e+02
1.580000e-06	4.276595e-06	8.685353e-09	3.004857e+01	5.690845e+02
1.590000e-06	4.368646e-06	8.787291e-09	3.069535e+01	5.762962e+02
1.600000e-06	4.459872e-06	8.885093e-09	3.133633e+01	5.831320e+02
1.610000e-06	4.550135e-06	8.982078e-09	3.197055e+01	5.896184e+02
1.620000e-06	4.639458e-06	9.075668e-09	3.259816e+01	5.957952e+02
1.630000e-06	4.727888e-06	9.166932e-09	3.321949e+01	6.017086e+02
1.640000e-06	4.815471e-06	9.254278e-09	3.383487e+01	6.074023e+02
1.650000e-06	4.902210e-06	9.337193e-09	3.444433e+01	6.129085e+02
1.660000e-06	4.988110e-06	9.415644e-09	3.504788e+01	6.182448e+02
1.670000e-06	5.073222e-06	9.490023e-09	3.564591e+01	6.234148e+02
1.680000e-06	5.157569e-06	9.562237e-09	3.623855e+01	6.284148e+02
1.690000e-06	5.241027e-06	9.633088e-09	3.682495e+01	6.332408e+02
1.700000e-06	5.323459e-06	9.705348e-09	3.740414e+01	6.378957e+02
1.710000e-06	5.405013e-06	9.775247e-09	3.797716e+01	6.423905e+02
1.720000e-06	5.485658e-06	9.840817e-09	3.854380e+01	6.467420e+02
1.730000e-06	5.565234e-06	9.903267e-09	3.910292e+01	6.509664e+02
1.740000e-06	5.643857e-06	9.962855e-09	3.965535e+01	6.550726e+02
1.750000e-06	5.721572e-06	1.002086e-08	4.020140e+01	6.590580e+02
1.760000e-06	5.798351e-06	1.007754e-08	4.074086e+01	6.629100e+02
1.770000e-06	5.874064e-06	1.013266e-08	4.127284e+01	6.666118e+02
1.780000e-06	5.948541e-06	1.018552e-08	4.179615e+01	6.701508e+02
1.790000e-06	6.021837e-06	1.023768e-08	4.231114e+01	6.735267e+02
1.800000e-06	6.094047e-06	1.028963e-08	4.281851e+01	6.767542e+02
1.810000e-06	6.165123e-06	1.033823e-08	4.331791e+01	6.798605e+02
1.820000e-06	6.235097e-06	1.038219e-08	4.380957e+01	6.828769e+02
1.830000e-06	6.304123e-06	1.042359e-08	4.429457e+01	6.858278e+02
1.840000e-06	6.372182e-06	1.046311e-08	4.477277e+01	6.887221e+02
1.850000e-06	6.439038e-06	1.050058e-08	4.524252e+01	6.915495e+02
1.860000e-06	6.504594e-06	1.053797e-08	4.570313e+01	6.942846e+02
1.870000e-06	6.569012e-06	1.057761e-08	4.615575e+01	6.968969e+02
1.880000e-06	6.632356e-06	1.061790e-08	4.660082e+01	6.993635e+02
1.890000e-06	6.694553e-06	1.065664e-08	4.703784e+01	7.016786e+02
1.900000e-06	6.755614e-06	1.069329e-08	4.746687e+01	7.038582e+02
1.910000e-06	6.815649e-06	1.072549e-08	4.788869e+01	7.059347e+02
1.920000e-06	6.874531e-06	1.075281e-08	4.830242e+01	7.079469e+02
1.930000e-06	6.931934e-06	1.077666e-08	4.870574e+01	7.099258e+02
1.940000e-06	6.987951e-06	1.080143e-08	4.909934e+01	7.118838e+02
1.950000e-06	7.042728e-06	1.083002e-08	4.948421e+01	7.138109e+02
1.960000e-06	7.096251e-06	1.086046e-08	4.986028e+01	7.156792e+02
1.970000e-06	7.148375e-06	1.089039e-08	5.022652e+01	7.174541e+02
1.980000e-06	7.198848e-06	1.091734e-08	5.058116e+01	7.191087e+02
1.990000e-06	7.247722e-06	1.094055e-08	5.092456e+01	7.206349e+02
2.000000e-06	7.295241e-06	1.096138e-08	5.125844e+01	7.220474e+02
2.010000e-06	7.341572e-06	1.098098e-08	5.158397e+01	7.233793e+02
2.020000e-06	7.386767e-06	1.100050e-08	5.190153e+01	7.246705e+02
2.030000e-06	7.430835e-06	1.101914e-08	5.221117e+01	7.259531e+02
2.040000e-06	7.473518e-06	1.103674e-08	5.251107e+01	7.272403e+02
2.050000e-06	7.514659e-06	1.105523e-08	5.280013e+01	7.285224e+02
2.060000e-06	7.554451e-06	1.107356e-08	5.307972e+01	7.297714e+02
2.070000e-06	7.592959e-06	1.109323e-08	5.335029e+01	7.309522e+02
2.080000e-06	7.630250e-06	1.111285e-08	5.361231e+01	7.320367e+02
2.090000e-06	7.666411e-06	1.113104e-08	5.386639e+01	7.330146e+02
2.100000e-06	7.701256e-06	1.114881e-08	5.411122e+01	7.338970e+02
2.110000e-06	7.734553e-06	1.116180e-08	5.434517e+01	7.347122e+02
2.120000e-06	7.766480e-06	1.116980e-08	5.456950e+01	7.354944e+02
2.130000e-06	7.797230e-06	1.117639e-08	5.478556e+01	7.362709e+02
2.140000e-06	7.826697e-06	1.118469e-08	5.499260e+01	7.370523e+02
2.150000e-06	7.854985e-06	1.119627e-08	5.519137e+01	7.378297e+02
2.160000e-06	7.881933e-06	1.120940e-08	5.538071e+01	7.385794e+02
2.170000e-06	7.907175e-06	1.122386e-08	5.555806e+01	7.392737e+02
2.180000e-06	7.930894e-06	1.123820e-08	5.572472e+01	7.398927e+02
2.190000e-06	7.953314e-06	1.125015e-08	5.588225e+01	7.404323e+02
2.200000e-06	7.974477e-06	1.125820e-08	5.603095e+01	7.409057e+02
2.210000e-06	7.994414e-06	1.126251e-08	5.617103e+01	7.413379e+02
2.220000e-06	8.012931e-06	1.126620e-08	5.630113e+01	7.417546e+02
2.230000e-06	8.029951e-06	1.126894e-08	5.642072e+01	7.421713e+02
2.240000e-06	8.045499e-06	1.127160e-08	5.652997e+01	7.425872e+02
2.250000e-06	8.059601e-06	1.127628e-08	5.662905e+01	7.429847e+02
2.260000e-06	8.072294e-06	1.128303e-08	5.671824e+01	7.433370e+02
2.270000e-06	8.083323e-06	1.129089e-08	5.679573e+01	7.436191e+02
2.280000e-06	8.092593e-06	1.129729e-08	5.686087e+01	7.438187e+02
2.290000e-06	8.100422e-06	1.130112e-08	5.691587e+01	7.439415e+02
2.300000e-06	8.106894e-06	1.130179e-08	5.696135e+01	7.440099e+02
2.310000e-06	8.111922e-06	1.130134e-08	5.699667e+01	7.440543e+02
2.320000e-06	8.115653e-06	1.130058e-08	5.702289e+01	7.441013e+02
2.330000e-06	8.117809e-06	1.129935e-08	5.703804e+01	7.441627e+02
2.340000e-06	8.118302e-06	1.129908e-08	5.704150e+01	7.442306e+02
2.350000e-06	8.117485e-06	1.130154e-08	5.703576e+01	7.442793e+02
2.360000e-06	8.115365e-06	1.130284e-08	5.702087e+01	7.442754e+02
2.370000e-06	8.112019e-06	1.130179e-08	5.699736e+01	7.441897e+02
2.380000e-06	8.107467e-06	1.130138e-08	5.696538e+01	7.440084e+02
2.390000e-06	8.101301e-06	1.129937e-08	5.692205e+01	7.437385e+02
2.400000e-06	8.093639e-06	1.129490e-08	5.686821e+01	7.434049e+02
2.410000e-06	8.084892e-06	1.129604e-08	5.680676e+01	7.430408e+02
2.420000e-06	8.074933e-06	1.132260e-08	5.673678e+01	7.426754e+02
2.430000e-06	8.063540e-06	1.129221e-08	5.665673e+01	7.423227e+02
2.440000e-06	8.050200e-06	1.122290e-08	5.656300e+01	7.419763e+02
2.450000e-06	8.034526e-06	1.123474e-08	5.645287e+01	7.416132e+02
2.460000e-06	8.016947e-06	1.123290e-08	5.632936e+01	7.412024e+02
2.470000e-06	7.998189e-06	1.131427e-08	5.619755e+01	7.407185e+02
2.480000e-06	7.978879e-06	1.129849e-08	5.606188e+01	7.401519e+02
2.490000e-06	7.958725e-06	1.113807e-08	5.592027e+01	7.395141e+02
2.500000e-06	7.936799e-06	1.129750e-08	5.576621e+01	7.388342e+02
2.510000e-06	7.913402e-06	1.126567e-08	5.560182e+01	7.381490e+02
2.520000e-06	7.888896e-06	1.108554e-08	5.542963e+01	7.374892e+02
2.530000e-06	7.862844e-06	1.125833e-08	5.524658e+01	7.368682e+02
2.540000e-06	7.835555e-06	1.118623e-08	5.505484e+01	7.362750e+02
2.550000e-06	7.807037e-06	1.110243e-08	5.485446e+01	7.356767e+02
2.560000e-06	7.776877e-06	1.127185e-08	5.464256e+01	7.350273e+02
2.570000e-06	7.745385e-06	1.115619e-08	5.442128e+01	7.342806e+02
2.580000e-06	7.712516e-06	1.115801e-08	5.419034e+01	7.334036e+02
2.590000e-06	7.678274e-06	1.119438e-08	5.394974e+01	7.323846e+02
2.600000e-06	7.642957e-06	1.108382e-08	5.370159e+01	7.312346e+02
2.610000e-06	7.606247e-06	1.119143e-08	5.344366e+01	7.299821e+02
2.620000e-06	7.567963e-06	1.109957e-08	5.317466e+01	7.286626e+02
2.630000e-06	7.528181e-06	1.106120e-08	5.289514e+01	7.273074e+02
2.640000e-06	7.487077e-06	1.110512e-08	5.260633e+01	7.259352e+02
2.650000e-06	7.444776e-06	1.100805e-08	5.230912e+01	7.245480e+02
2.660000e-06	7.401208e-06	1.104546e-08	5.200300e+01	7.231330e+02
2.670000e-06	7.356347e-06	1.096355e-08	5.168779e+01	7.216695e+02
2.680000e-06	7.310012e-06	1.098434e-08	5.136223e+01	7.201359e+02
2.690000e-06	7.262277e-06	1.100079e-08	5.102683e+01	7.185176e+02
2.700000e-06	7.213220e-06	1.090830e-08	5.068214e+01	7.168107e+02
2.710000e-06	7.162771e-06	1.094435e-08	5.032767e+01	7.150219e+02
2.720000e-06	7.110988e-06	1.084374e-08	4.996383e+01	7.131657e+02
2.730000e-06	7.057572e-06	1.086010e-08	4.958851e+01	7.112585e+02
2.740000e-06	7.002540e-06	1.084254e-08	4.920184e+01	7.093133e+02
2.750000e-06	6.946236e-06	1.077511e-08	4.880624e+01	7.073359e+02
2.760000e-06	6.888775e-06	1.079046e-08	4.840250e+01	7.053230e+02
2.770000e-06	6.830233e-06	1.071163e-08	4.799116e+01	7.032632e+02
2.780000e-06	6.770545e-06	1.072270e-08	4.757178e+01	7.011399e+02
2.790000e-06	6.709722e-06	1.066367e-08	4.714442e+01	6.989355e+02
2.800000e-06	6.647584e-06	1.063331e-08	4.670782e+01	6.966354e+02
2.810000e-06	6.584074e-06	1.061111e-08	4.626158e+01	6.942319e+02
2.820000e-06	6.519457e-06	1.055434e-08	4.580756e+01	6.917252e+02
2.830000e-06	6.453774e-06	1.054344e-08	4.534605e+01	6.891239e+02
2.840000e-06	6.387053e-06	1.046652e-08	4.487726e+01	6.864415e+02
2.850000e-06	6.319227e-06	1.044269e-08	4.440069e+01	6.836929e+02
2.860000e-06	6.250261e-06	1.039698e-08	4.391611e+01	6.808897e+02
2.870000e-06	6.180052e-06	1.036438e-08	4.342281e+01	6.780351e+02
2.880000e-06	6.108604e-06	1.032453e-08	4.292079e+01	6.751228e+02
2.890000e-06	6.036158e-06	1.026259e-08	4.241177e+01	6.721368e+02
2.900000e-06	5.962747e-06	1.022315e-08	4.189596e+01	6.690554e+02
2.910000e-06	5.888356e-06	1.016636e-08	4.137327e+01	6.658573e+02
2.920000e-06	5.812822e-06	1.013004e-08	4.084255e+01	6.625278e+02
2.930000e-06	5.736128e-06	1.007108e-08	4.030367e+01	6.590635e+02
2.940000e-06	5.658263e-06	1.002486e-08	3.975656e+01	6.554741e+02
2.950000e-06	5.579162e-06	9.970723e-09	3.920078e+01	6.517792e+02
