# Temperatura_=_20.0
# Concentracion g/m^3_=_10000.0
# C_Vs_to_Am_M_A/Vsm_=_65563218390.804596
# pendiente_HvsI_1/m_=_3716.3
# ordenada_HvsI_A/m_=_1297.0
# frecuencia_Hz_=_301415.86479961924

Tiempo_(s)	Campo_(V.s)	Magnetizacion_(V.s)	Campo_(kA/m)	Magnetizacion_(A/m)
0.000000e+00	-2.412745e-06	-5.244436e-09	-1.612949e+01	-3.464709e+02
1.000000e-08	-2.412500e-06	-5.245938e-09	-1.612786e+01	-3.467696e+02
2.000000e-08	-2.411642e-06	-5.249674e-09	-1.612212e+01	-3.469469e+02
3.000000e-08	-2.409829e-06	-5.254152e-09	-1.611000e+01	-3.470057e+02
4.000000e-08	-2.406894e-06	-5.256686e-09	-1.609038e+01	-3.469492e+02
5.000000e-08	-2.403060e-06	-5.256209e-09	-1.606474e+01	-3.467802e+02
6.000000e-08	-2.398577e-06	-5.253617e-09	-1.603478e+01	-3.465018e+02
7.000000e-08	-2.393416e-06	-5.245645e-09	-1.600027e+01	-3.461170e+02
8.000000e-08	-2.387347e-06	-5.243584e-09	-1.595970e+01	-3.456288e+02
9.000000e-08	-2.380234e-06	-5.273109e-09	-1.591215e+01	-3.450401e+02
1.000000e-07	-2.372183e-06	-5.277901e-09	-1.585833e+01	-3.443538e+02
1.100000e-07	-2.363551e-06	-5.191085e-09	-1.580063e+01	-3.435728e+02
1.200000e-07	-2.354394e-06	-5.142974e-09	-1.573940e+01	-3.426999e+02
1.300000e-07	-2.344166e-06	-5.226040e-09	-1.567103e+01	-3.417378e+02
1.400000e-07	-2.332619e-06	-5.267773e-09	-1.559384e+01	-3.406892e+02
1.500000e-07	-2.320205e-06	-5.149681e-09	-1.551085e+01	-3.395566e+02
1.600000e-07	-2.307055e-06	-5.126347e-09	-1.542294e+01	-3.383425e+02
1.700000e-07	-2.292880e-06	-5.205078e-09	-1.532818e+01	-3.370494e+02
1.800000e-07	-2.277689e-06	-5.166119e-09	-1.522663e+01	-3.356794e+02
1.900000e-07	-2.261736e-06	-5.078604e-09	-1.511998e+01	-3.342347e+02
2.000000e-07	-2.244830e-06	-5.143806e-09	-1.500696e+01	-3.327174e+02
2.100000e-07	-2.226819e-06	-5.124781e-09	-1.488655e+01	-3.311294e+02
2.200000e-07	-2.208171e-06	-4.972492e-09	-1.476189e+01	-3.294724e+02
2.300000e-07	-2.188971e-06	-5.035773e-09	-1.463353e+01	-3.277480e+02
2.400000e-07	-2.168961e-06	-5.097304e-09	-1.449977e+01	-3.259579e+02
2.500000e-07	-2.148242e-06	-4.953605e-09	-1.436126e+01	-3.241032e+02
2.600000e-07	-2.126954e-06	-4.880588e-09	-1.421894e+01	-3.221853e+02
2.700000e-07	-2.104995e-06	-4.965743e-09	-1.407214e+01	-3.202052e+02
2.800000e-07	-2.082224e-06	-4.928621e-09	-1.391992e+01	-3.181637e+02
2.900000e-07	-2.058671e-06	-4.837095e-09	-1.376246e+01	-3.160618e+02
3.000000e-07	-2.034498e-06	-4.822796e-09	-1.360087e+01	-3.138999e+02
3.100000e-07	-2.009803e-06	-4.799192e-09	-1.343578e+01	-3.116785e+02
3.200000e-07	-1.984446e-06	-4.754642e-09	-1.326626e+01	-3.093979e+02
3.300000e-07	-1.958048e-06	-4.742115e-09	-1.308979e+01	-3.070584e+02
3.400000e-07	-1.930503e-06	-4.685324e-09	-1.290565e+01	-3.046598e+02
3.500000e-07	-1.902264e-06	-4.617180e-09	-1.271686e+01	-3.022021e+02
3.600000e-07	-1.873607e-06	-4.593145e-09	-1.252529e+01	-2.996850e+02
3.700000e-07	-1.844369e-06	-4.574724e-09	-1.232983e+01	-2.971081e+02
3.800000e-07	-1.814444e-06	-4.552641e-09	-1.212977e+01	-2.944708e+02
3.900000e-07	-1.783854e-06	-4.469599e-09	-1.192528e+01	-2.917725e+02
4.000000e-07	-1.752629e-06	-4.396815e-09	-1.171654e+01	-2.890124e+02
4.100000e-07	-1.720898e-06	-4.392519e-09	-1.150441e+01	-2.861895e+02
4.200000e-07	-1.688758e-06	-4.380224e-09	-1.128955e+01	-2.833029e+02
4.300000e-07	-1.656212e-06	-4.281450e-09	-1.107198e+01	-2.803514e+02
4.400000e-07	-1.623031e-06	-4.219741e-09	-1.085016e+01	-2.773338e+02
4.500000e-07	-1.588970e-06	-4.199438e-09	-1.062245e+01	-2.742488e+02
4.600000e-07	-1.554027e-06	-4.152428e-09	-1.038886e+01	-2.710950e+02
4.700000e-07	-1.518360e-06	-4.101498e-09	-1.015042e+01	-2.678710e+02
4.800000e-07	-1.482225e-06	-4.029883e-09	-9.908854e+00	-2.645752e+02
4.900000e-07	-1.445781e-06	-3.962853e-09	-9.665218e+00	-2.612061e+02
5.000000e-07	-1.408965e-06	-3.921379e-09	-9.419102e+00	-2.577620e+02
5.100000e-07	-1.371574e-06	-3.889821e-09	-9.169135e+00	-2.542414e+02
5.200000e-07	-1.333599e-06	-3.816187e-09	-8.915269e+00	-2.506425e+02
5.300000e-07	-1.295211e-06	-3.735775e-09	-8.658641e+00	-2.469637e+02
5.400000e-07	-1.256407e-06	-3.674715e-09	-8.399230e+00	-2.432032e+02
5.500000e-07	-1.217094e-06	-3.633873e-09	-8.136418e+00	-2.393594e+02
5.600000e-07	-1.177321e-06	-3.581001e-09	-7.870534e+00	-2.354306e+02
5.700000e-07	-1.137244e-06	-3.494930e-09	-7.602614e+00	-2.314152e+02
5.800000e-07	-1.096977e-06	-3.420985e-09	-7.333425e+00	-2.273116e+02
5.900000e-07	-1.056491e-06	-3.371676e-09	-7.062768e+00	-2.231182e+02
6.000000e-07	-1.015654e-06	-3.322013e-09	-6.789766e+00	-2.188336e+02
6.100000e-07	-9.742327e-07	-3.241442e-09	-6.512863e+00	-2.144562e+02
6.200000e-07	-9.322031e-07	-3.157144e-09	-6.231890e+00	-2.099849e+02
6.300000e-07	-8.897128e-07	-3.085842e-09	-5.947837e+00	-2.054182e+02
6.400000e-07	-8.467337e-07	-3.029768e-09	-5.660517e+00	-2.007551e+02
6.500000e-07	-8.032116e-07	-2.967479e-09	-5.369566e+00	-1.959945e+02
6.600000e-07	-7.593026e-07	-2.882216e-09	-5.076029e+00	-1.911354e+02
6.700000e-07	-7.152460e-07	-2.795555e-09	-4.781505e+00	-1.861771e+02
6.800000e-07	-6.710630e-07	-2.724586e-09	-4.486137e+00	-1.811190e+02
6.900000e-07	-6.267443e-07	-2.660104e-09	-4.189861e+00	-1.759603e+02
7.000000e-07	-5.823410e-07	-2.574049e-09	-3.893020e+00	-1.707009e+02
7.100000e-07	-5.378129e-07	-2.478388e-09	-3.595344e+00	-1.653404e+02
7.200000e-07	-4.931015e-07	-2.394160e-09	-3.296443e+00	-1.598787e+02
7.300000e-07	-4.482231e-07	-2.326201e-09	-2.996425e+00	-1.543161e+02
7.400000e-07	-4.031757e-07	-2.252466e-09	-2.695278e+00	-1.486528e+02
7.500000e-07	-3.579528e-07	-2.160603e-09	-2.392958e+00	-1.428893e+02
7.600000e-07	-3.126280e-07	-2.065687e-09	-2.089956e+00	-1.370262e+02
7.700000e-07	-2.671692e-07	-1.981010e-09	-1.786058e+00	-1.310644e+02
7.800000e-07	-2.215311e-07	-1.904230e-09	-1.480962e+00	-1.250049e+02
7.900000e-07	-1.758165e-07	-1.816517e-09	-1.175354e+00	-1.188490e+02
8.000000e-07	-1.300465e-07	-1.716846e-09	-8.693765e-01	-1.125981e+02
8.100000e-07	-8.422542e-08	-1.617204e-09	-5.630571e-01	-1.062539e+02
8.200000e-07	-3.840682e-08	-1.532119e-09	-2.567542e-01	-9.981816e+01
8.300000e-07	7.450090e-09	-1.447088e-09	4.980475e-02	-9.329302e+01
8.400000e-07	5.329933e-08	-1.344739e-09	3.563124e-01	-8.668071e+01
8.500000e-07	9.907771e-08	-1.236014e-09	6.623464e-01	-7.998370e+01
8.600000e-07	1.448220e-07	-1.137193e-09	9.681527e-01	-7.320466e+01
8.700000e-07	1.905876e-07	-1.048071e-09	1.274101e+00	-6.634646e+01
8.800000e-07	2.363202e-07	-9.483506e-10	1.579829e+00	-5.941217e+01
8.900000e-07	2.819296e-07	-8.354281e-10	1.884733e+00	-5.240505e+01
9.000000e-07	3.273432e-07	-7.227979e-10	2.188329e+00	-4.532856e+01
9.100000e-07	3.725533e-07	-6.223834e-10	2.490563e+00	-3.818635e+01
9.200000e-07	4.175928e-07	-5.233865e-10	2.791658e+00	-3.098225e+01
9.300000e-07	4.624931e-07	-4.125547e-10	3.091822e+00	-2.372025e+01
9.400000e-07	5.072361e-07	-2.955901e-10	3.390934e+00	-1.640454e+01
9.500000e-07	5.517760e-07	-1.836470e-10	3.688689e+00	-9.039464e+00
9.600000e-07	5.961966e-07	-8.033265e-11	3.985646e+00	-1.629512e+00
9.700000e-07	6.405295e-07	3.049957e-11	4.282017e+00	5.820662e+00
9.800000e-07	6.847729e-07	1.535559e-10	4.577789e+00	1.330627e+01
9.900000e-07	7.289141e-07	2.759826e-10	4.872879e+00	2.082237e+01
1.000000e-06	7.729054e-07	3.869220e-10	5.166966e+00	2.836394e+01
1.010000e-06	8.167024e-07	4.940611e-10	5.459754e+00	3.592579e+01
1.020000e-06	8.601836e-07	6.108388e-10	5.750431e+00	4.350266e+01
1.030000e-06	9.031149e-07	7.359833e-10	6.037432e+00	5.108919e+01
1.040000e-06	9.452927e-07	8.558798e-10	6.319395e+00	5.867992e+01
1.050000e-06	9.868199e-07	9.667393e-10	6.597010e+00	6.626933e+01
1.060000e-06	1.027881e-06	1.082302e-09	6.871511e+00	7.385183e+01
1.070000e-06	1.068543e-06	1.207221e-09	7.143341e+00	8.142178e+01
1.080000e-06	1.108936e-06	1.334551e-09	7.413367e+00	8.897350e+01
1.090000e-06	1.149127e-06	1.452229e-09	7.682053e+00	9.650130e+01
1.100000e-06	1.189069e-06	1.562571e-09	7.949071e+00	1.039994e+02
1.110000e-06	1.228667e-06	1.679479e-09	8.213789e+00	1.114622e+02
1.120000e-06	1.267791e-06	1.805545e-09	8.475335e+00	1.188838e+02
1.130000e-06	1.306404e-06	1.929246e-09	8.733465e+00	1.262586e+02
1.140000e-06	1.344566e-06	2.043315e-09	8.988585e+00	1.335810e+02
1.150000e-06	1.382269e-06	2.155239e-09	9.240636e+00	1.408452e+02
1.160000e-06	1.419452e-06	2.271009e-09	9.489208e+00	1.480457e+02
1.170000e-06	1.456157e-06	2.389023e-09	9.734586e+00	1.551770e+02
1.180000e-06	1.492525e-06	2.499578e-09	9.977708e+00	1.622336e+02
1.190000e-06	1.528606e-06	2.604619e-09	1.021892e+01	1.692103e+02
1.200000e-06	1.564244e-06	2.714422e-09	1.045716e+01	1.761017e+02
1.210000e-06	1.599179e-06	2.830138e-09	1.069070e+01	1.829028e+02
1.220000e-06	1.633260e-06	2.943447e-09	1.091854e+01	1.896084e+02
1.230000e-06	1.666453e-06	3.046660e-09	1.114044e+01	1.962138e+02
1.240000e-06	1.698966e-06	3.144409e-09	1.135779e+01	2.027142e+02
1.250000e-06	1.731051e-06	3.244213e-09	1.157228e+01	2.091049e+02
1.260000e-06	1.762708e-06	3.345805e-09	1.178391e+01	2.153816e+02
1.270000e-06	1.793730e-06	3.441060e-09	1.199130e+01	2.215400e+02
1.280000e-06	1.824056e-06	3.529413e-09	1.219404e+01	2.275759e+02
1.290000e-06	1.853764e-06	3.617570e-09	1.239263e+01	2.334855e+02
1.300000e-06	1.882818e-06	3.709960e-09	1.258686e+01	2.392651e+02
1.310000e-06	1.911349e-06	3.801204e-09	1.277760e+01	2.449111e+02
1.320000e-06	1.939493e-06	3.884322e-09	1.296574e+01	2.504201e+02
1.330000e-06	1.967020e-06	3.959806e-09	1.314977e+01	2.557892e+02
1.340000e-06	1.993591e-06	4.034405e-09	1.332740e+01	2.610153e+02
1.350000e-06	2.019083e-06	4.111190e-09	1.349781e+01	2.660958e+02
1.360000e-06	2.043673e-06	4.183427e-09	1.366220e+01	2.710283e+02
1.370000e-06	2.067577e-06	4.248740e-09	1.382200e+01	2.758104e+02
1.380000e-06	2.090825e-06	4.311632e-09	1.397742e+01	2.804402e+02
1.390000e-06	2.113362e-06	4.378985e-09	1.412808e+01	2.849159e+02
1.400000e-06	2.135165e-06	4.447658e-09	1.427383e+01	2.892359e+02
1.410000e-06	2.156263e-06	4.508467e-09	1.441488e+01	2.933988e+02
1.420000e-06	2.176762e-06	4.561167e-09	1.455192e+01	2.974037e+02
1.430000e-06	2.196739e-06	4.612988e-09	1.468547e+01	3.012495e+02
1.440000e-06	2.215992e-06	4.667665e-09	1.481417e+01	3.049357e+02
1.450000e-06	2.234335e-06	4.717767e-09	1.493680e+01	3.084618e+02
1.460000e-06	2.251859e-06	4.758893e-09	1.505395e+01	3.118277e+02
1.470000e-06	2.268564e-06	4.797680e-09	1.516562e+01	3.150332e+02
1.480000e-06	2.284384e-06	4.842296e-09	1.527138e+01	3.180787e+02
1.490000e-06	2.299266e-06	4.889901e-09	1.537087e+01	3.209647e+02
1.500000e-06	2.313264e-06	4.929980e-09	1.546445e+01	3.236916e+02
1.510000e-06	2.326486e-06	4.961555e-09	1.555284e+01	3.262604e+02
1.520000e-06	2.338871e-06	4.991477e-09	1.563563e+01	3.286721e+02
1.530000e-06	2.350348e-06	5.024499e-09	1.571236e+01	3.309280e+02
1.540000e-06	2.360693e-06	5.054672e-09	1.578151e+01	3.330294e+02
1.550000e-06	2.369866e-06	5.077170e-09	1.584284e+01	3.349778e+02
1.560000e-06	2.378217e-06	5.097985e-09	1.589867e+01	3.367751e+02
1.570000e-06	2.385857e-06	5.123881e-09	1.594974e+01	3.384231e+02
1.580000e-06	2.392655e-06	5.150612e-09	1.599519e+01	3.399238e+02
1.590000e-06	2.398660e-06	5.169987e-09	1.603533e+01	3.412794e+02
1.600000e-06	2.403905e-06	5.184238e-09	1.607039e+01	3.424923e+02
1.610000e-06	2.408431e-06	5.198676e-09	1.610065e+01	3.435647e+02
1.620000e-06	2.412251e-06	5.214622e-09	1.612619e+01	3.444993e+02
1.630000e-06	2.415155e-06	5.228552e-09	1.614560e+01	3.452986e+02
1.640000e-06	2.416917e-06	5.236426e-09	1.615738e+01	3.459654e+02
1.650000e-06	2.417638e-06	5.241645e-09	1.616220e+01	3.465024e+02
1.660000e-06	2.417611e-06	5.250329e-09	1.616202e+01	3.469125e+02
1.670000e-06	2.416841e-06	5.260448e-09	1.615687e+01	3.471986e+02
1.680000e-06	2.415294e-06	5.265236e-09	1.614653e+01	3.473636e+02
1.690000e-06	2.413005e-06	5.265103e-09	1.613123e+01	3.474105e+02
1.700000e-06	2.409986e-06	5.264505e-09	1.611105e+01	3.473423e+02
1.710000e-06	2.406336e-06	5.266754e-09	1.608665e+01	3.471619e+02
1.720000e-06	2.402091e-06	5.271511e-09	1.605827e+01	3.468725e+02
1.730000e-06	2.396945e-06	5.275279e-09	1.602387e+01	3.464770e+02
1.740000e-06	2.390589e-06	5.245235e-09	1.598138e+01	3.459784e+02
1.750000e-06	2.382962e-06	5.187122e-09	1.593039e+01	3.453797e+02
1.760000e-06	2.374178e-06	5.228698e-09	1.587166e+01	3.446836e+02
1.770000e-06	2.364741e-06	5.304733e-09	1.580858e+01	3.438931e+02
1.780000e-06	2.355136e-06	5.234071e-09	1.574437e+01	3.430111e+02
1.790000e-06	2.344996e-06	5.155563e-09	1.567658e+01	3.420401e+02
1.800000e-06	2.333522e-06	5.178280e-09	1.559988e+01	3.409829e+02
1.810000e-06	2.320892e-06	5.236817e-09	1.551545e+01	3.398420e+02
1.820000e-06	2.307907e-06	5.155688e-09	1.542864e+01	3.386199e+02
1.830000e-06	2.294037e-06	5.116727e-09	1.533591e+01	3.373189e+02
1.840000e-06	2.278630e-06	5.198053e-09	1.523292e+01	3.359414e+02
1.850000e-06	2.262449e-06	5.121698e-09	1.512474e+01	3.344894e+02
1.860000e-06	2.245848e-06	5.038792e-09	1.501377e+01	3.329649e+02
1.870000e-06	2.228280e-06	5.136287e-09	1.489632e+01	3.313699e+02
1.880000e-06	2.209643e-06	5.138269e-09	1.477173e+01	3.297062e+02
1.890000e-06	2.190387e-06	4.940289e-09	1.464300e+01	3.279752e+02
1.900000e-06	2.170601e-06	4.965578e-09	1.451073e+01	3.261786e+02
1.910000e-06	2.150011e-06	5.088554e-09	1.437308e+01	3.243177e+02
1.920000e-06	2.128507e-06	4.953099e-09	1.422932e+01	3.223936e+02
1.930000e-06	2.106039e-06	4.847161e-09	1.407912e+01	3.204073e+02
1.940000e-06	2.082719e-06	4.924654e-09	1.392323e+01	3.183599e+02
1.950000e-06	2.058762e-06	4.882723e-09	1.376307e+01	3.162520e+02
1.960000e-06	2.034086e-06	4.814805e-09	1.359811e+01	3.140843e+02
1.970000e-06	2.008744e-06	4.812096e-09	1.342869e+01	3.118571e+02
1.980000e-06	1.982813e-06	4.739897e-09	1.325534e+01	3.095707e+02
1.990000e-06	1.956119e-06	4.702300e-09	1.307689e+01	3.072254e+02
2.000000e-06	1.928766e-06	4.715962e-09	1.289404e+01	3.048210e+02
2.010000e-06	1.900917e-06	4.656497e-09	1.270786e+01	3.023575e+02
2.020000e-06	1.872308e-06	4.592717e-09	1.251661e+01	2.998346e+02
2.030000e-06	1.842702e-06	4.552884e-09	1.231868e+01	2.972517e+02
2.040000e-06	1.812240e-06	4.493258e-09	1.211504e+01	2.946085e+02
2.050000e-06	1.781140e-06	4.513739e-09	1.190713e+01	2.919041e+02
2.060000e-06	1.749488e-06	4.473643e-09	1.169554e+01	2.891378e+02
2.070000e-06	1.717291e-06	4.342017e-09	1.148030e+01	2.863087e+02
2.080000e-06	1.684514e-06	4.337033e-09	1.126118e+01	2.834157e+02
2.090000e-06	1.651193e-06	4.340355e-09	1.103843e+01	2.804577e+02
2.100000e-06	1.617322e-06	4.240962e-09	1.081199e+01	2.774335e+02
2.110000e-06	1.582874e-06	4.176012e-09	1.058170e+01	2.743417e+02
2.120000e-06	1.547894e-06	4.134283e-09	1.034786e+01	2.711810e+02
2.130000e-06	1.512486e-06	4.078484e-09	1.011115e+01	2.679499e+02
2.140000e-06	1.476725e-06	4.051185e-09	9.872086e+00	2.646468e+02
2.150000e-06	1.440515e-06	3.989126e-09	9.630018e+00	2.612703e+02
2.160000e-06	1.403614e-06	3.902732e-09	9.383326e+00	2.578187e+02
2.170000e-06	1.365820e-06	3.852887e-09	9.130671e+00	2.542902e+02
2.180000e-06	1.327236e-06	3.806166e-09	8.872732e+00	2.506834e+02
2.190000e-06	1.288112e-06	3.757041e-09	8.611181e+00	2.469964e+02
2.200000e-06	1.248651e-06	3.682294e-09	8.347381e+00	2.432276e+02
2.210000e-06	1.208941e-06	3.600577e-09	8.081915e+00	2.393753e+02
2.220000e-06	1.168912e-06	3.554067e-09	7.814318e+00	2.354379e+02
2.230000e-06	1.128555e-06	3.512235e-09	7.544524e+00	2.314136e+02
2.240000e-06	1.087773e-06	3.436675e-09	7.271896e+00	2.273010e+02
2.250000e-06	1.046500e-06	3.353405e-09	6.995981e+00	2.230984e+02
2.260000e-06	1.004917e-06	3.287648e-09	6.717994e+00	2.188045e+02
2.270000e-06	9.631073e-07	3.233885e-09	6.438489e+00	2.144176e+02
2.280000e-06	9.209372e-07	3.169644e-09	6.156576e+00	2.099366e+02
2.290000e-06	8.783636e-07	3.082690e-09	5.871967e+00	2.053602e+02
2.300000e-06	8.354247e-07	2.999929e-09	5.584915e+00	2.006872e+02
2.310000e-06	7.922526e-07	2.931107e-09	5.296304e+00	1.959167e+02
2.320000e-06	7.489293e-07	2.875928e-09	5.006682e+00	1.910476e+02
2.330000e-06	7.054460e-07	2.803563e-09	4.715991e+00	1.860791e+02
2.340000e-06	6.618584e-07	2.707919e-09	4.424603e+00	1.810107e+02
2.350000e-06	6.181483e-07	2.626708e-09	4.132396e+00	1.758418e+02
2.360000e-06	5.742856e-07	2.563028e-09	3.839168e+00	1.705721e+02
2.370000e-06	5.301990e-07	2.491403e-09	3.544444e+00	1.652013e+02
2.380000e-06	4.859551e-07	2.399009e-09	3.248668e+00	1.597294e+02
2.390000e-06	4.415303e-07	2.303705e-09	2.951683e+00	1.541565e+02
2.400000e-06	3.968458e-07	2.224610e-09	2.652962e+00	1.484829e+02
2.410000e-06	3.519939e-07	2.153446e-09	2.353121e+00	1.427092e+02
2.420000e-06	3.070091e-07	2.067579e-09	2.052393e+00	1.368361e+02
2.430000e-06	2.618806e-07	1.968544e-09	1.750703e+00	1.308642e+02
2.440000e-06	2.166532e-07	1.872272e-09	1.448352e+00	1.247949e+02
2.450000e-06	1.713697e-07	1.789423e-09	1.145627e+00	1.186293e+02
2.460000e-06	1.259643e-07	1.709279e-09	8.420864e-01	1.123688e+02
2.470000e-06	8.045770e-08	1.610475e-09	5.378694e-01	1.060152e+02
2.480000e-06	3.490678e-08	1.504581e-09	2.333560e-01	9.957034e+01
2.490000e-06	-1.067060e-08	1.410861e-09	-7.133424e-02	9.303627e+01
2.500000e-06	-5.617158e-08	1.326775e-09	-3.755138e-01	8.641529e+01
2.510000e-06	-1.015910e-07	1.232045e-09	-6.791479e-01	7.970989e+01
2.520000e-06	-1.469644e-07	1.123370e-09	-9.824748e-01	7.292276e+01
2.530000e-06	-1.922121e-07	1.017515e-09	-1.284961e+00	6.605678e+01
2.540000e-06	-2.373706e-07	9.229403e-10	-1.586851e+00	5.911506e+01
2.550000e-06	-2.824828e-07	8.284105e-10	-1.888431e+00	5.210087e+01
2.560000e-06	-3.274648e-07	7.207776e-10	-2.189141e+00	4.501769e+01
2.570000e-06	-3.722894e-07	6.061039e-10	-2.488799e+00	3.786919e+01
2.580000e-06	-4.169891e-07	4.963699e-10	-2.787622e+00	3.065922e+01
2.590000e-06	-4.614986e-07	3.962662e-10	-3.085173e+00	2.339179e+01
2.600000e-06	-5.057401e-07	2.916283e-10	-3.380933e+00	1.607111e+01
2.610000e-06	-5.497371e-07	1.730748e-10	-3.675059e+00	8.701534e+00
2.620000e-06	-5.935346e-07	5.166248e-11	-3.967850e+00	1.287576e+00
2.630000e-06	-6.371838e-07	-5.790931e-11	-4.259651e+00	-6.166097e+00
2.640000e-06	-6.807296e-07	-1.613347e-10	-4.550759e+00	-1.365468e+01
2.650000e-06	-7.241888e-07	-2.756326e-10	-4.841289e+00	-2.117323e+01
2.660000e-06	-7.675735e-07	-3.989885e-10	-5.131321e+00	-2.871669e+01
2.670000e-06	-8.108305e-07	-5.186471e-10	-5.420500e+00	-3.627988e+01
2.680000e-06	-8.538517e-07	-6.294667e-10	-5.708101e+00	-4.385751e+01
2.690000e-06	-8.965566e-07	-7.424666e-10	-5.993589e+00	-5.144422e+01
2.700000e-06	-9.388784e-07	-8.649263e-10	-6.276515e+00	-5.903455e+01
2.710000e-06	-9.807920e-07	-9.901016e-10	-6.556713e+00	-6.662295e+01
2.720000e-06	-1.022349e-06	-1.106876e-09	-6.834526e+00	-7.420385e+01
2.730000e-06	-1.063634e-06	-1.216088e-09	-7.110523e+00	-8.177159e+01
2.740000e-06	-1.104599e-06	-1.329824e-09	-7.384374e+00	-8.932050e+01
2.750000e-06	-1.145110e-06	-1.453652e-09	-7.655199e+00	-9.684486e+01
2.760000e-06	-1.185209e-06	-1.578950e-09	-7.923267e+00	-1.043389e+02
2.770000e-06	-1.224950e-06	-1.693750e-09	-8.188940e+00	-1.117970e+02
2.780000e-06	-1.264421e-06	-1.804067e-09	-8.452806e+00	-1.192134e+02
2.790000e-06	-1.303637e-06	-1.921930e-09	-8.714973e+00	-1.265823e+02
2.800000e-06	-1.342420e-06	-2.045384e-09	-8.974241e+00	-1.338982e+02
2.810000e-06	-1.380555e-06	-2.161907e-09	-9.229176e+00	-1.411553e+02
2.820000e-06	-1.417866e-06	-2.269139e-09	-9.478607e+00	-1.483481e+02
2.830000e-06	-1.454382e-06	-2.377073e-09	-9.722716e+00	-1.554712e+02
2.840000e-06	-1.490285e-06	-2.491029e-09	-9.962738e+00	-1.625190e+02
2.850000e-06	-1.525817e-06	-2.605509e-09	-1.020027e+01	-1.694862e+02
2.860000e-06	-1.561033e-06	-2.713512e-09	-1.043570e+01	-1.763677e+02
2.870000e-06	-1.595768e-06	-2.816960e-09	-1.066790e+01	-1.831582e+02
2.880000e-06	-1.629879e-06	-2.922235e-09	-1.089593e+01	-1.898528e+02
2.890000e-06	-1.663364e-06	-3.030678e-09	-1.111979e+01	-1.964467e+02
2.900000e-06	-1.696296e-06	-3.134511e-09	-1.133994e+01	-2.029350e+02
2.910000e-06	-1.728599e-06	-3.230218e-09	-1.155589e+01	-2.093132e+02
2.920000e-06	-1.760320e-06	-3.324091e-09	-1.176795e+01	-2.155769e+02
2.930000e-06	-1.791672e-06	-3.420289e-09	-1.197755e+01	-2.217218e+02
2.940000e-06	-1.822445e-06	-3.515311e-09	-1.218326e+01	-2.277438e+02
