# Temperatura_=_20.0
# Concentracion g/m^3_=_10000.0
# C_Vs_to_Am_M_A/Vsm_=_65563218390.804596
# pendiente_HvsI_1/m_=_3716.3
# ordenada_HvsI_A/m_=_1297.0
# frecuencia_Hz_=_301417.2125231688

Tiempo_(s)	Campo_(V.s)	Magnetizacion_(V.s)	Campo_(kA/m)	Magnetizacion_(A/m)
0.000000e+00	-2.414996e-06	-5.261420e-09	-1.613581e+01	-3.475458e+02
1.000000e-08	-2.414726e-06	-5.266446e-09	-1.613400e+01	-3.478330e+02
2.000000e-08	-2.413728e-06	-5.265884e-09	-1.612734e+01	-3.479999e+02
3.000000e-08	-2.411772e-06	-5.263723e-09	-1.611427e+01	-3.480496e+02
4.000000e-08	-2.408821e-06	-5.263252e-09	-1.609455e+01	-3.479850e+02
5.000000e-08	-2.404995e-06	-5.265616e-09	-1.606899e+01	-3.478093e+02
6.000000e-08	-2.400449e-06	-5.274852e-09	-1.603862e+01	-3.475253e+02
7.000000e-08	-2.395118e-06	-5.275448e-09	-1.600300e+01	-3.471362e+02
8.000000e-08	-2.388897e-06	-5.253075e-09	-1.596143e+01	-3.466449e+02
9.000000e-08	-2.381720e-06	-5.217998e-09	-1.591347e+01	-3.460544e+02
1.000000e-07	-2.373682e-06	-5.245078e-09	-1.585977e+01	-3.453675e+02
1.100000e-07	-2.365099e-06	-5.286110e-09	-1.580242e+01	-3.445872e+02
1.200000e-07	-2.355824e-06	-5.226300e-09	-1.574045e+01	-3.437161e+02
1.300000e-07	-2.345420e-06	-5.185787e-09	-1.567094e+01	-3.427571e+02
1.400000e-07	-2.333854e-06	-5.197430e-09	-1.559366e+01	-3.417127e+02
1.500000e-07	-2.321394e-06	-5.249325e-09	-1.551041e+01	-3.405855e+02
1.600000e-07	-2.308120e-06	-5.173785e-09	-1.542172e+01	-3.393780e+02
1.700000e-07	-2.293831e-06	-5.156870e-09	-1.532625e+01	-3.380924e+02
1.800000e-07	-2.278574e-06	-5.198014e-09	-1.522430e+01	-3.367309e+02
1.900000e-07	-2.262512e-06	-5.138405e-09	-1.511698e+01	-3.352957e+02
2.000000e-07	-2.245501e-06	-5.112109e-09	-1.500333e+01	-3.337888e+02
2.100000e-07	-2.227533e-06	-5.129406e-09	-1.488327e+01	-3.322120e+02
2.200000e-07	-2.208871e-06	-5.125256e-09	-1.475859e+01	-3.305669e+02
2.300000e-07	-2.189570e-06	-5.005357e-09	-1.462962e+01	-3.288553e+02
2.400000e-07	-2.169545e-06	-5.003060e-09	-1.449583e+01	-3.270784e+02
2.500000e-07	-2.148767e-06	-5.053747e-09	-1.435700e+01	-3.252375e+02
2.600000e-07	-2.127310e-06	-4.992225e-09	-1.421363e+01	-3.233339e+02
2.700000e-07	-2.105236e-06	-4.908556e-09	-1.406615e+01	-3.213684e+02
2.800000e-07	-2.082418e-06	-4.924430e-09	-1.391369e+01	-3.193420e+02
2.900000e-07	-2.058814e-06	-4.903435e-09	-1.375598e+01	-3.172552e+02
3.000000e-07	-2.034560e-06	-4.854556e-09	-1.359392e+01	-3.151085e+02
3.100000e-07	-2.009737e-06	-4.818659e-09	-1.342807e+01	-3.129024e+02
3.200000e-07	-1.984173e-06	-4.776155e-09	-1.325726e+01	-3.106371e+02
3.300000e-07	-1.957588e-06	-4.730259e-09	-1.307963e+01	-3.083126e+02
3.400000e-07	-1.930035e-06	-4.704052e-09	-1.289554e+01	-3.059288e+02
3.500000e-07	-1.901833e-06	-4.694842e-09	-1.270711e+01	-3.034855e+02
3.600000e-07	-1.873096e-06	-4.623393e-09	-1.251510e+01	-3.009823e+02
3.700000e-07	-1.843804e-06	-4.575494e-09	-1.231939e+01	-2.984187e+02
3.800000e-07	-1.813877e-06	-4.546557e-09	-1.211943e+01	-2.957942e+02
3.900000e-07	-1.783234e-06	-4.534596e-09	-1.191469e+01	-2.931078e+02
4.000000e-07	-1.751949e-06	-4.457057e-09	-1.170566e+01	-2.903588e+02
4.100000e-07	-1.720169e-06	-4.389051e-09	-1.149332e+01	-2.875461e+02
4.200000e-07	-1.688005e-06	-4.362105e-09	-1.127841e+01	-2.846686e+02
4.300000e-07	-1.655358e-06	-4.325293e-09	-1.106028e+01	-2.817251e+02
4.400000e-07	-1.622023e-06	-4.282006e-09	-1.083756e+01	-2.787143e+02
4.500000e-07	-1.587794e-06	-4.221049e-09	-1.060885e+01	-2.756348e+02
4.600000e-07	-1.552726e-06	-4.168167e-09	-1.037455e+01	-2.724852e+02
4.700000e-07	-1.517028e-06	-4.108076e-09	-1.013603e+01	-2.692639e+02
4.800000e-07	-1.480847e-06	-4.075347e-09	-9.894285e+00	-2.659693e+02
4.900000e-07	-1.444314e-06	-4.008978e-09	-9.650191e+00	-2.625997e+02
5.000000e-07	-1.407323e-06	-3.934570e-09	-9.403038e+00	-2.591536e+02
5.100000e-07	-1.369755e-06	-3.874186e-09	-9.152024e+00	-2.556292e+02
5.200000e-07	-1.331684e-06	-3.832726e-09	-8.897652e+00	-2.520247e+02
5.300000e-07	-1.293212e-06	-3.786225e-09	-8.640603e+00	-2.483385e+02
5.400000e-07	-1.254326e-06	-3.708331e-09	-8.380783e+00	-2.445688e+02
5.500000e-07	-1.214939e-06	-3.638612e-09	-8.117618e+00	-2.407138e+02
5.600000e-07	-1.175128e-06	-3.580389e-09	-7.851624e+00	-2.367719e+02
5.700000e-07	-1.135068e-06	-3.532235e-09	-7.583965e+00	-2.327413e+02
5.800000e-07	-1.094806e-06	-3.456230e-09	-7.314953e+00	-2.286206e+02
5.900000e-07	-1.054268e-06	-3.382245e-09	-7.044097e+00	-2.244080e+02
6.000000e-07	-1.013264e-06	-3.309667e-09	-6.770130e+00	-2.201022e+02
6.100000e-07	-9.717433e-07	-3.248546e-09	-6.492708e+00	-2.157016e+02
6.200000e-07	-9.296936e-07	-3.190574e-09	-6.211753e+00	-2.112048e+02
6.300000e-07	-8.871003e-07	-3.112936e-09	-5.927166e+00	-2.066108e+02
6.400000e-07	-8.439788e-07	-3.030664e-09	-5.639049e+00	-2.019183e+02
6.500000e-07	-8.003924e-07	-2.957933e-09	-5.347826e+00	-1.971262e+02
6.600000e-07	-7.565319e-07	-2.901401e-09	-5.054772e+00	-1.922337e+02
6.700000e-07	-7.125190e-07	-2.823639e-09	-4.760700e+00	-1.872399e+02
6.800000e-07	-6.683418e-07	-2.733596e-09	-4.465529e+00	-1.821443e+02
6.900000e-07	-6.240050e-07	-2.644858e-09	-4.169293e+00	-1.769464e+02
7.000000e-07	-5.795559e-07	-2.573143e-09	-3.872306e+00	-1.716457e+02
7.100000e-07	-5.349932e-07	-2.501559e-09	-3.574560e+00	-1.662422e+02
7.200000e-07	-4.902505e-07	-2.415230e-09	-3.275611e+00	-1.607359e+02
7.300000e-07	-4.453298e-07	-2.325983e-09	-2.975473e+00	-1.551268e+02
7.400000e-07	-4.002132e-07	-2.243027e-09	-2.674026e+00	-1.494154e+02
7.500000e-07	-3.549091e-07	-2.171648e-09	-2.371327e+00	-1.436022e+02
7.600000e-07	-3.095165e-07	-2.087803e-09	-2.068036e+00	-1.376880e+02
7.700000e-07	-2.639845e-07	-1.991521e-09	-1.763814e+00	-1.316736e+02
7.800000e-07	-2.182604e-07	-1.890019e-09	-1.458308e+00	-1.255602e+02
7.900000e-07	-1.724266e-07	-1.803708e-09	-1.152069e+00	-1.193492e+02
8.000000e-07	-1.265644e-07	-1.723028e-09	-8.456409e-01	-1.130420e+02
8.100000e-07	-8.066250e-08	-1.628838e-09	-5.389469e-01	-1.066405e+02
8.200000e-07	-3.472288e-08	-1.526695e-09	-2.320011e-01	-1.001465e+02
8.300000e-07	1.121985e-08	-1.429773e-09	7.496551e-02	-9.356222e+01
8.400000e-07	5.715203e-08	-1.344014e-09	3.818616e-01	-8.689004e+01
8.500000e-07	1.030383e-07	-1.248372e-09	6.884511e-01	-8.013252e+01
8.600000e-07	1.488535e-07	-1.140827e-09	9.945656e-01	-7.329245e+01
8.700000e-07	1.946564e-07	-1.029591e-09	1.300598e+00	-6.637279e+01
8.800000e-07	2.403980e-07	-9.299287e-10	1.606220e+00	-5.937673e+01
8.900000e-07	2.859889e-07	-8.341147e-10	1.910837e+00	-5.230765e+01
9.000000e-07	3.314269e-07	-7.289332e-10	2.214431e+00	-4.516913e+01
9.100000e-07	3.767320e-07	-6.172856e-10	2.517137e+00	-3.796491e+01
9.200000e-07	4.218942e-07	-5.064569e-10	2.818889e+00	-3.069894e+01
9.300000e-07	4.668616e-07	-4.034377e-10	3.119339e+00	-2.337534e+01
9.400000e-07	5.116021e-07	-2.975467e-10	3.418272e+00	-1.599841e+01
9.500000e-07	5.561245e-07	-1.828988e-10	3.715749e+00	-8.572584e+00
9.600000e-07	6.005037e-07	-6.241654e-11	4.012269e+00	-1.102487e+00
9.700000e-07	6.447885e-07	5.037310e-11	4.308158e+00	6.407126e+00
9.800000e-07	6.890025e-07	1.593182e-10	4.603574e+00	1.395135e+01
9.900000e-07	7.331242e-07	2.728873e-10	4.898374e+00	2.152517e+01
1.000000e-06	7.771039e-07	3.922446e-10	5.192224e+00	2.912342e+01
1.010000e-06	8.209094e-07	5.117811e-10	5.484911e+00	3.674083e+01
1.020000e-06	8.643830e-07	6.259887e-10	5.775380e+00	4.437205e+01
1.030000e-06	9.073305e-07	7.424527e-10	6.062334e+00	5.201160e+01
1.040000e-06	9.496768e-07	8.614138e-10	6.345271e+00	5.965396e+01
1.050000e-06	9.913599e-07	9.854212e-10	6.623777e+00	6.729351e+01
1.060000e-06	1.032425e-06	1.106661e-09	6.898150e+00	7.492459e+01
1.070000e-06	1.073070e-06	1.223176e-09	7.169726e+00	8.254147e+01
1.080000e-06	1.113440e-06	1.341991e-09	7.439454e+00	9.013840e+01
1.090000e-06	1.153607e-06	1.464565e-09	7.707833e+00	9.770962e+01
1.100000e-06	1.193527e-06	1.585303e-09	7.974555e+00	1.052493e+02
1.110000e-06	1.233068e-06	1.700356e-09	8.238748e+00	1.127518e+02
1.120000e-06	1.272144e-06	1.816819e-09	8.499837e+00	1.202111e+02
1.130000e-06	1.310744e-06	1.939001e-09	8.757743e+00	1.276216e+02
1.140000e-06	1.348879e-06	2.063690e-09	9.012543e+00	1.349776e+02
1.150000e-06	1.386551e-06	2.181790e-09	9.264250e+00	1.422734e+02
1.160000e-06	1.423737e-06	2.293082e-09	9.512708e+00	1.495034e+02
1.170000e-06	1.460421e-06	2.404751e-09	9.757814e+00	1.566621e+02
1.180000e-06	1.496726e-06	2.518844e-09	1.000038e+01	1.637440e+02
1.190000e-06	1.532734e-06	2.631272e-09	1.024097e+01	1.707437e+02
1.200000e-06	1.568305e-06	2.738929e-09	1.047864e+01	1.776560e+02
1.210000e-06	1.603201e-06	2.845825e-09	1.071179e+01	1.844758e+02
1.220000e-06	1.637206e-06	2.956376e-09	1.093900e+01	1.911980e+02
1.230000e-06	1.670316e-06	3.068517e-09	1.116023e+01	1.978178e+02
1.240000e-06	1.702806e-06	3.173048e-09	1.137731e+01	2.043304e+02
1.250000e-06	1.734882e-06	3.270039e-09	1.159162e+01	2.107314e+02
1.260000e-06	1.766468e-06	3.365579e-09	1.180266e+01	2.170162e+02
1.270000e-06	1.797458e-06	3.463034e-09	1.200972e+01	2.231806e+02
1.280000e-06	1.827814e-06	3.558646e-09	1.221255e+01	2.292207e+02
1.290000e-06	1.857493e-06	3.646785e-09	1.241085e+01	2.351324e+02
1.300000e-06	1.886534e-06	3.733166e-09	1.260488e+01	2.409122e+02
1.310000e-06	1.915001e-06	3.820557e-09	1.279509e+01	2.465566e+02
1.320000e-06	1.942985e-06	3.908411e-09	1.298207e+01	2.520623e+02
1.330000e-06	1.970334e-06	3.989621e-09	1.316480e+01	2.574262e+02
1.340000e-06	1.996766e-06	4.062226e-09	1.334141e+01	2.626456e+02
1.350000e-06	2.022199e-06	4.133088e-09	1.351133e+01	2.677179e+02
1.360000e-06	2.046762e-06	4.204792e-09	1.367545e+01	2.726405e+02
1.370000e-06	2.070655e-06	4.274026e-09	1.383509e+01	2.774114e+02
1.380000e-06	2.093871e-06	4.338277e-09	1.399021e+01	2.820287e+02
1.390000e-06	2.116392e-06	4.400324e-09	1.414069e+01	2.864906e+02
1.400000e-06	2.138205e-06	4.463327e-09	1.428643e+01	2.907956e+02
1.410000e-06	2.159273e-06	4.527414e-09	1.442719e+01	2.949426e+02
1.420000e-06	2.179721e-06	4.586457e-09	1.456382e+01	2.989304e+02
1.430000e-06	2.199598e-06	4.638676e-09	1.469663e+01	3.027584e+02
1.440000e-06	2.218738e-06	4.688330e-09	1.482451e+01	3.064260e+02
1.450000e-06	2.236988e-06	4.737947e-09	1.494645e+01	3.099328e+02
1.460000e-06	2.254361e-06	4.784147e-09	1.506252e+01	3.132788e+02
1.470000e-06	2.270971e-06	4.824214e-09	1.517350e+01	3.164640e+02
1.480000e-06	2.286778e-06	4.860168e-09	1.527912e+01	3.194888e+02
1.490000e-06	2.301680e-06	4.898074e-09	1.537869e+01	3.223537e+02
1.500000e-06	2.315677e-06	4.940141e-09	1.547221e+01	3.250594e+02
1.510000e-06	2.328798e-06	4.980230e-09	1.555988e+01	3.276069e+02
1.520000e-06	2.341067e-06	5.013229e-09	1.564185e+01	3.299974e+02
1.530000e-06	2.352385e-06	5.042235e-09	1.571748e+01	3.322320e+02
1.540000e-06	2.362616e-06	5.071242e-09	1.578583e+01	3.343124e+02
1.550000e-06	2.371783e-06	5.097713e-09	1.584708e+01	3.362402e+02
1.560000e-06	2.380118e-06	5.120271e-09	1.590277e+01	3.380171e+02
1.570000e-06	2.387729e-06	5.138967e-09	1.595363e+01	3.396453e+02
1.580000e-06	2.394516e-06	5.157311e-09	1.599897e+01	3.411267e+02
1.590000e-06	2.400464e-06	5.177748e-09	1.603871e+01	3.424636e+02
1.600000e-06	2.405618e-06	5.198417e-09	1.607315e+01	3.436584e+02
1.610000e-06	2.410063e-06	5.215619e-09	1.610285e+01	3.447136e+02
1.620000e-06	2.413796e-06	5.229496e-09	1.612779e+01	3.456318e+02
1.630000e-06	2.416571e-06	5.241777e-09	1.614633e+01	3.464156e+02
1.640000e-06	2.418231e-06	5.253833e-09	1.615743e+01	3.470678e+02
1.650000e-06	2.418946e-06	5.262665e-09	1.616220e+01	3.475913e+02
1.660000e-06	2.418933e-06	5.266115e-09	1.616211e+01	3.479889e+02
1.670000e-06	2.418186e-06	5.268004e-09	1.615712e+01	3.482636e+02
1.680000e-06	2.416645e-06	5.273368e-09	1.614683e+01	3.484183e+02
1.690000e-06	2.414327e-06	5.279133e-09	1.613134e+01	3.484561e+02
1.700000e-06	2.411287e-06	5.281826e-09	1.611103e+01	3.483800e+02
1.710000e-06	2.407599e-06	5.277657e-09	1.608639e+01	3.481930e+02
1.720000e-06	2.403227e-06	5.264635e-09	1.605717e+01	3.478981e+02
1.730000e-06	2.397961e-06	5.271806e-09	1.602199e+01	3.474984e+02
1.740000e-06	2.391537e-06	5.305818e-09	1.597907e+01	3.469969e+02
1.750000e-06	2.383862e-06	5.274567e-09	1.592779e+01	3.463964e+02
1.760000e-06	2.375089e-06	5.223149e-09	1.586917e+01	3.456999e+02
1.770000e-06	2.365649e-06	5.201769e-09	1.580610e+01	3.449102e+02
1.780000e-06	2.355898e-06	5.254789e-09	1.574095e+01	3.440301e+02
1.790000e-06	2.345517e-06	5.255971e-09	1.567159e+01	3.430624e+02
1.800000e-06	2.333961e-06	5.187514e-09	1.559437e+01	3.420095e+02
1.810000e-06	2.321351e-06	5.196580e-09	1.551012e+01	3.408741e+02
1.820000e-06	2.308156e-06	5.205585e-09	1.542196e+01	3.396586e+02
1.830000e-06	2.294054e-06	5.185680e-09	1.532773e+01	3.383652e+02
1.840000e-06	2.278689e-06	5.143324e-09	1.522508e+01	3.369963e+02
1.850000e-06	2.262562e-06	5.176046e-09	1.511732e+01	3.355539e+02
1.860000e-06	2.245876e-06	5.122544e-09	1.500583e+01	3.340399e+02
1.870000e-06	2.228252e-06	5.035611e-09	1.488808e+01	3.324562e+02
1.880000e-06	2.209641e-06	5.103109e-09	1.476373e+01	3.308044e+02
1.890000e-06	2.190378e-06	5.112876e-09	1.463502e+01	3.290862e+02
1.900000e-06	2.170563e-06	4.995045e-09	1.450263e+01	3.273029e+02
1.910000e-06	2.149997e-06	4.968601e-09	1.436522e+01	3.254558e+02
1.920000e-06	2.128468e-06	5.011095e-09	1.422137e+01	3.235460e+02
1.930000e-06	2.105902e-06	4.967695e-09	1.407060e+01	3.215745e+02
1.940000e-06	2.082512e-06	4.891112e-09	1.391431e+01	3.195421e+02
1.950000e-06	2.058482e-06	4.870256e-09	1.375376e+01	3.174493e+02
1.960000e-06	2.033751e-06	4.855339e-09	1.358852e+01	3.152968e+02
1.970000e-06	2.008337e-06	4.819165e-09	1.341872e+01	3.130849e+02
1.980000e-06	1.982248e-06	4.796082e-09	1.324440e+01	3.108137e+02
1.990000e-06	1.955476e-06	4.736108e-09	1.306552e+01	3.084834e+02
2.000000e-06	1.928110e-06	4.693203e-09	1.288268e+01	3.060937e+02
2.010000e-06	1.900205e-06	4.657612e-09	1.269623e+01	3.036445e+02
2.020000e-06	1.871572e-06	4.633196e-09	1.250492e+01	3.011354e+02
2.030000e-06	1.841980e-06	4.595318e-09	1.230720e+01	2.985659e+02
2.040000e-06	1.811480e-06	4.523615e-09	1.210341e+01	2.959352e+02
2.050000e-06	1.780294e-06	4.483600e-09	1.189504e+01	2.932427e+02
2.060000e-06	1.748606e-06	4.475608e-09	1.168332e+01	2.904874e+02
2.070000e-06	1.716410e-06	4.427558e-09	1.146820e+01	2.876683e+02
2.080000e-06	1.683590e-06	4.338259e-09	1.124892e+01	2.847843e+02
2.090000e-06	1.650202e-06	4.305613e-09	1.102584e+01	2.818342e+02
2.100000e-06	1.616309e-06	4.265166e-09	1.079938e+01	2.788167e+02
2.110000e-06	1.581801e-06	4.211489e-09	1.056881e+01	2.757302e+02
2.120000e-06	1.546703e-06	4.173591e-09	1.033430e+01	2.725735e+02
2.130000e-06	1.511273e-06	4.105803e-09	1.009758e+01	2.693449e+02
2.140000e-06	1.475552e-06	4.042469e-09	9.858910e+00	2.660429e+02
2.150000e-06	1.439304e-06	4.001974e-09	9.616719e+00	2.626658e+02
2.160000e-06	1.402328e-06	3.949337e-09	9.369659e+00	2.592119e+02
2.170000e-06	1.364506e-06	3.870899e-09	9.116955e+00	2.556794e+02
2.180000e-06	1.325894e-06	3.806512e-09	8.858971e+00	2.520668e+02
2.190000e-06	1.286752e-06	3.753267e-09	8.597443e+00	2.483722e+02
2.200000e-06	1.247289e-06	3.713143e-09	8.333768e+00	2.445940e+02
2.210000e-06	1.207529e-06	3.649107e-09	8.068110e+00	2.407303e+02
2.220000e-06	1.167426e-06	3.567712e-09	7.800162e+00	2.367794e+02
2.230000e-06	1.126943e-06	3.510024e-09	7.529677e+00	2.327398e+02
2.240000e-06	1.086057e-06	3.451203e-09	7.256493e+00	2.286098e+02
2.250000e-06	1.044787e-06	3.387109e-09	6.980752e+00	2.243879e+02
2.260000e-06	1.003213e-06	3.311080e-09	6.702971e+00	2.200724e+02
2.270000e-06	9.613065e-07	3.235720e-09	6.422974e+00	2.156621e+02
2.280000e-06	9.190241e-07	3.168303e-09	6.140465e+00	2.111555e+02
2.290000e-06	8.763848e-07	3.111364e-09	5.855570e+00	2.065515e+02
2.300000e-06	8.334253e-07	3.040029e-09	5.568536e+00	2.018488e+02
2.310000e-06	7.902160e-07	2.954416e-09	5.279832e+00	1.970466e+02
2.320000e-06	7.468217e-07	2.876915e-09	4.989894e+00	1.921437e+02
2.330000e-06	7.032934e-07	2.811429e-09	4.699059e+00	1.871396e+02
2.340000e-06	6.596709e-07	2.742531e-09	4.407594e+00	1.820336e+02
2.350000e-06	6.159384e-07	2.653065e-09	4.115396e+00	1.768252e+02
2.360000e-06	5.720290e-07	2.569250e-09	3.822015e+00	1.715140e+02
2.370000e-06	5.279212e-07	2.494525e-09	3.527308e+00	1.661000e+02
2.380000e-06	4.836449e-07	2.420870e-09	3.231476e+00	1.605831e+02
2.390000e-06	4.391643e-07	2.335632e-09	2.934279e+00	1.549636e+02
2.400000e-06	3.944648e-07	2.241597e-09	2.635618e+00	1.492418e+02
2.410000e-06	3.496019e-07	2.152109e-09	2.335867e+00	1.434182e+02
2.420000e-06	3.045519e-07	2.069706e-09	2.034865e+00	1.374937e+02
2.430000e-06	2.593683e-07	1.989787e-09	1.732971e+00	1.314692e+02
2.440000e-06	2.140999e-07	1.898499e-09	1.430510e+00	1.253458e+02
2.450000e-06	1.687358e-07	1.802630e-09	1.127409e+00	1.191249e+02
2.460000e-06	1.232757e-07	1.711442e-09	8.236673e-01	1.128081e+02
2.470000e-06	7.778923e-08	1.627089e-09	5.197492e-01	1.063970e+02
2.480000e-06	3.229712e-08	1.532086e-09	2.157934e-01	9.989377e+01
2.490000e-06	-1.325530e-08	1.426349e-09	-8.856537e-02	9.330048e+01
2.500000e-06	-5.882982e-08	1.324467e-09	-3.930718e-01	8.661954e+01
2.510000e-06	-1.044032e-07	1.230593e-09	-6.975706e-01	7.985355e+01
2.520000e-06	-1.499066e-07	1.139459e-09	-1.001601e+00	7.300532e+01
2.530000e-06	-1.952756e-07	1.037587e-09	-1.304735e+00	6.607783e+01
2.540000e-06	-2.405377e-07	9.309176e-10	-1.607154e+00	5.907430e+01
2.550000e-06	-2.856979e-07	8.253955e-10	-1.908892e+00	5.199812e+01
2.560000e-06	-3.307466e-07	7.246345e-10	-2.209885e+00	4.485288e+01
2.570000e-06	-3.756396e-07	6.184509e-10	-2.509838e+00	3.764237e+01
2.580000e-06	-4.203170e-07	5.033150e-10	-2.808350e+00	3.037054e+01
2.590000e-06	-4.648129e-07	3.894288e-10	-3.105650e+00	2.304153e+01
2.600000e-06	-5.090917e-07	2.831489e-10	-3.401499e+00	1.565965e+01
2.610000e-06	-5.531494e-07	1.784736e-10	-3.695871e+00	8.229374e+00
2.620000e-06	-5.970159e-07	6.357304e-11	-3.988965e+00	7.553252e-01
2.630000e-06	-6.407458e-07	-5.560640e-11	-4.281146e+00	-6.757721e+00
2.640000e-06	-6.843881e-07	-1.712574e-10	-4.572743e+00	-1.430485e+01
2.650000e-06	-7.279264e-07	-2.819679e-10	-4.863644e+00	-2.188102e+01
2.660000e-06	-7.713737e-07	-3.969102e-10	-5.153938e+00	-2.948106e+01
2.670000e-06	-8.146441e-07	-5.188304e-10	-5.443049e+00	-3.709970e+01
2.680000e-06	-8.576346e-07	-6.411490e-10	-5.730290e+00	-4.473156e+01
2.690000e-06	-9.003220e-07	-7.582229e-10	-6.015506e+00	-5.237117e+01
2.700000e-06	-9.426545e-07	-8.727710e-10	-6.298351e+00	-6.001298e+01
2.710000e-06	-9.845969e-07	-9.924507e-10	-6.578590e+00	-6.765139e+01
2.720000e-06	-1.026197e-06	-1.116288e-09	-6.856541e+00	-7.528070e+01
2.730000e-06	-1.067519e-06	-1.237480e-09	-7.132633e+00	-8.289521e+01
2.740000e-06	-1.108507e-06	-1.351442e-09	-7.406496e+00	-9.048916e+01
2.750000e-06	-1.149055e-06	-1.467411e-09	-7.677419e+00	-9.805676e+01
2.760000e-06	-1.189160e-06	-1.590254e-09	-7.945378e+00	-1.055922e+02
2.770000e-06	-1.228923e-06	-1.713631e-09	-8.211054e+00	-1.130898e+02
2.780000e-06	-1.268418e-06	-1.830991e-09	-8.474940e+00	-1.205437e+02
2.790000e-06	-1.307590e-06	-1.945351e-09	-8.736668e+00	-1.279481e+02
2.800000e-06	-1.346313e-06	-2.063118e-09	-8.995399e+00	-1.352975e+02
2.810000e-06	-1.384410e-06	-2.183538e-09	-9.249945e+00	-1.425860e+02
2.820000e-06	-1.421705e-06	-2.301610e-09	-9.499132e+00	-1.498081e+02
2.830000e-06	-1.458204e-06	-2.411533e-09	-9.742996e+00	-1.569582e+02
2.840000e-06	-1.494106e-06	-2.518213e-09	-9.982874e+00	-1.640310e+02
2.850000e-06	-1.529623e-06	-2.627375e-09	-1.022018e+01	-1.710211e+02
2.860000e-06	-1.564801e-06	-2.740339e-09	-1.045523e+01	-1.779233e+02
2.870000e-06	-1.599507e-06	-2.850715e-09	-1.068711e+01	-1.847323e+02
2.880000e-06	-1.633643e-06	-2.955438e-09	-1.091519e+01	-1.914433e+02
2.890000e-06	-1.667186e-06	-3.060327e-09	-1.113931e+01	-1.980513e+02
2.900000e-06	-1.700111e-06	-3.165134e-09	-1.135930e+01	-2.045517e+02
2.910000e-06	-1.732430e-06	-3.266613e-09	-1.157524e+01	-2.109399e+02
2.920000e-06	-1.764184e-06	-3.361201e-09	-1.178740e+01	-2.172115e+02
2.930000e-06	-1.795482e-06	-3.451949e-09	-1.199652e+01	-2.233623e+02
2.940000e-06	-1.826183e-06	-3.542905e-09	-1.220165e+01	-2.293882e+02
