# Temperatura_=_20.0
# Concentracion g/m^3_=_10000.0
# C_Vs_to_Am_M_A/Vsm_=_65563218390.804596
# pendiente_HvsI_1/m_=_3716.3
# ordenada_HvsI_A/m_=_1297.0
# frecuencia_Hz_=_301418.9952569204

Tiempo_(s)	Campo_(V.s)	Magnetizacion_(V.s)	Campo_(kA/m)	Magnetizacion_(A/m)
0.000000e+00	-2.413619e-06	-5.220622e-09	-1.613665e+01	-3.453285e+02
1.000000e-08	-2.412944e-06	-5.227754e-09	-1.613213e+01	-3.455433e+02
2.000000e-08	-2.411337e-06	-5.230413e-09	-1.612139e+01	-3.456393e+02
3.000000e-08	-2.408606e-06	-5.230148e-09	-1.610313e+01	-3.456195e+02
4.000000e-08	-2.404911e-06	-5.230230e-09	-1.607843e+01	-3.454870e+02
5.000000e-08	-2.400531e-06	-5.225480e-09	-1.604914e+01	-3.452446e+02
6.000000e-08	-2.395509e-06	-5.204110e-09	-1.601557e+01	-3.448955e+02
7.000000e-08	-2.389629e-06	-5.216881e-09	-1.597626e+01	-3.444425e+02
8.000000e-08	-2.382726e-06	-5.309699e-09	-1.593011e+01	-3.438887e+02
9.000000e-08	-2.374845e-06	-5.310549e-09	-1.587741e+01	-3.432369e+02
1.000000e-07	-2.366340e-06	-5.091193e-09	-1.582055e+01	-3.424901e+02
1.100000e-07	-2.357359e-06	-5.057911e-09	-1.576051e+01	-3.416509e+02
1.200000e-07	-2.347313e-06	-5.257862e-09	-1.569335e+01	-3.407222e+02
1.300000e-07	-2.335949e-06	-5.290484e-09	-1.561737e+01	-3.397067e+02
1.400000e-07	-2.323692e-06	-5.059095e-09	-1.553543e+01	-3.386069e+02
1.500000e-07	-2.310746e-06	-5.090136e-09	-1.544887e+01	-3.374253e+02
1.600000e-07	-2.296823e-06	-5.275194e-09	-1.535579e+01	-3.361643e+02
1.700000e-07	-2.281877e-06	-5.101522e-09	-1.525586e+01	-3.348262e+02
1.800000e-07	-2.266228e-06	-5.038418e-09	-1.515124e+01	-3.334132e+02
1.900000e-07	-2.249533e-06	-5.208503e-09	-1.503962e+01	-3.319273e+02
2.000000e-07	-2.231622e-06	-5.078697e-09	-1.491987e+01	-3.303705e+02
2.100000e-07	-2.213075e-06	-4.850006e-09	-1.479587e+01	-3.287445e+02
2.200000e-07	-2.194011e-06	-5.091260e-09	-1.466842e+01	-3.270511e+02
2.300000e-07	-2.174157e-06	-5.184128e-09	-1.453568e+01	-3.252917e+02
2.400000e-07	-2.153527e-06	-4.869071e-09	-1.439776e+01	-3.234678e+02
2.500000e-07	-2.132313e-06	-4.831650e-09	-1.425593e+01	-3.215806e+02
2.600000e-07	-2.110450e-06	-5.015194e-09	-1.410976e+01	-3.196311e+02
2.700000e-07	-2.087776e-06	-4.926609e-09	-1.395817e+01	-3.176203e+02
2.800000e-07	-2.064342e-06	-4.811997e-09	-1.380150e+01	-3.155491e+02
2.900000e-07	-2.040269e-06	-4.818110e-09	-1.364056e+01	-3.134180e+02
3.000000e-07	-2.015688e-06	-4.757624e-09	-1.347621e+01	-3.112275e+02
3.100000e-07	-1.990521e-06	-4.767772e-09	-1.330796e+01	-3.089780e+02
3.200000e-07	-1.964352e-06	-4.778291e-09	-1.313300e+01	-3.066697e+02
3.300000e-07	-1.936981e-06	-4.670691e-09	-1.295001e+01	-3.043025e+02
3.400000e-07	-1.908851e-06	-4.586404e-09	-1.276194e+01	-3.018765e+02
3.500000e-07	-1.880332e-06	-4.593148e-09	-1.257127e+01	-2.993914e+02
3.600000e-07	-1.851283e-06	-4.591963e-09	-1.237705e+01	-2.968467e+02
3.700000e-07	-1.821514e-06	-4.582401e-09	-1.217803e+01	-2.942419e+02
3.800000e-07	-1.791044e-06	-4.469261e-09	-1.197432e+01	-2.915765e+02
3.900000e-07	-1.759958e-06	-4.357912e-09	-1.176649e+01	-2.888497e+02
4.000000e-07	-1.728327e-06	-4.429965e-09	-1.155501e+01	-2.860605e+02
4.100000e-07	-1.696255e-06	-4.424949e-09	-1.134059e+01	-2.832079e+02
4.200000e-07	-1.663781e-06	-4.278488e-09	-1.112348e+01	-2.802910e+02
4.300000e-07	-1.630750e-06	-4.202995e-09	-1.090265e+01	-2.773084e+02
4.400000e-07	-1.596885e-06	-4.211088e-09	-1.067624e+01	-2.742589e+02
4.500000e-07	-1.562065e-06	-4.183709e-09	-1.044344e+01	-2.711411e+02
4.600000e-07	-1.526436e-06	-4.135940e-09	-1.020524e+01	-2.679536e+02
4.700000e-07	-1.490317e-06	-4.039162e-09	-9.963762e+00	-2.646948e+02
4.800000e-07	-1.453947e-06	-3.947535e-09	-9.720602e+00	-2.613633e+02
4.900000e-07	-1.417210e-06	-3.944977e-09	-9.474991e+00	-2.579574e+02
5.000000e-07	-1.379887e-06	-3.927633e-09	-9.225464e+00	-2.544754e+02
5.100000e-07	-1.341983e-06	-3.835646e-09	-8.972051e+00	-2.509157e+02
5.200000e-07	-1.303627e-06	-3.727471e-09	-8.715614e+00	-2.472766e+02
5.300000e-07	-1.264906e-06	-3.682151e-09	-8.456738e+00	-2.435564e+02
5.400000e-07	-1.225719e-06	-3.664496e-09	-8.194746e+00	-2.397535e+02
5.500000e-07	-1.186002e-06	-3.610109e-09	-7.929212e+00	-2.358660e+02
5.600000e-07	-1.145949e-06	-3.497646e-09	-7.661427e+00	-2.318925e+02
5.700000e-07	-1.105728e-06	-3.409430e-09	-7.392525e+00	-2.278313e+02
5.800000e-07	-1.065333e-06	-3.384872e-09	-7.122457e+00	-2.236808e+02
5.900000e-07	-1.024571e-06	-3.350200e-09	-6.849939e+00	-2.194395e+02
6.000000e-07	-9.833238e-07	-3.262872e-09	-6.574173e+00	-2.151060e+02
6.100000e-07	-9.415030e-07	-3.152549e-09	-6.294573e+00	-2.106789e+02
6.200000e-07	-8.990844e-07	-3.085752e-09	-6.010977e+00	-2.061569e+02
6.300000e-07	-8.561869e-07	-3.051760e-09	-5.724179e+00	-2.015388e+02
6.400000e-07	-8.127568e-07	-2.995867e-09	-5.433819e+00	-1.968236e+02
6.500000e-07	-7.688948e-07	-2.889459e-09	-5.140572e+00	-1.920102e+02
6.600000e-07	-7.248447e-07	-2.791011e-09	-4.846069e+00	-1.870979e+02
6.700000e-07	-6.806645e-07	-2.741569e-09	-4.550694e+00	-1.820859e+02
6.800000e-07	-6.363761e-07	-2.692814e-09	-4.254597e+00	-1.769737e+02
6.900000e-07	-5.919836e-07	-2.599170e-09	-3.957804e+00	-1.717608e+02
7.000000e-07	-5.474224e-07	-2.481599e-09	-3.659882e+00	-1.664470e+02
7.100000e-07	-5.027163e-07	-2.400079e-09	-3.360992e+00	-1.610322e+02
7.200000e-07	-4.579064e-07	-2.348777e-09	-3.061408e+00	-1.555164e+02
7.300000e-07	-4.129015e-07	-2.281092e-09	-2.760521e+00	-1.499000e+02
7.400000e-07	-3.676819e-07	-2.174802e-09	-2.458198e+00	-1.441832e+02
7.500000e-07	-3.223467e-07	-2.069799e-09	-2.155102e+00	-1.383667e+02
7.600000e-07	-2.769166e-07	-1.997701e-09	-1.851372e+00	-1.324513e+02
7.700000e-07	-2.313165e-07	-1.933965e-09	-1.546504e+00	-1.264381e+02
7.800000e-07	-1.855951e-07	-1.840469e-09	-1.240827e+00	-1.203281e+02
7.900000e-07	-1.397755e-07	-1.720665e-09	-9.344918e-01	-1.141228e+02
8.000000e-07	-9.389282e-08	-1.621281e-09	-6.277359e-01	-1.078239e+02
8.100000e-07	-4.803000e-08	-1.550945e-09	-3.211125e-01	-1.014330e+02
8.200000e-07	-2.114566e-09	-1.473705e-09	-1.413728e-02	-9.495213e+01
8.300000e-07	4.385390e-08	-1.360461e-09	2.931925e-01	-8.838359e+01
8.400000e-07	8.970961e-08	-1.241924e-09	5.997683e-01	-8.172975e+01
8.500000e-07	1.354295e-07	-1.152838e-09	9.054361e-01	-7.499321e+01
8.600000e-07	1.811763e-07	-1.077915e-09	1.211284e+00	-6.817680e+01
8.700000e-07	2.268894e-07	-9.791276e-10	1.516906e+00	-6.128353e+01
8.800000e-07	2.724909e-07	-8.534223e-10	1.821783e+00	-5.431661e+01
8.900000e-07	3.179768e-07	-7.396882e-10	2.125886e+00	-4.727944e+01
9.000000e-07	3.632630e-07	-6.506310e-10	2.428655e+00	-4.017562e+01
9.100000e-07	4.083814e-07	-5.604296e-10	2.730301e+00	-3.300893e+01
9.200000e-07	4.533631e-07	-4.419235e-10	3.031033e+00	-2.578331e+01
9.300000e-07	4.981416e-07	-3.139392e-10	3.330408e+00	-1.850290e+01
9.400000e-07	5.427480e-07	-2.084057e-10	3.628631e+00	-1.117199e+01
9.500000e-07	5.872416e-07	-1.190553e-10	3.926100e+00	-3.795033e+00
9.600000e-07	6.316196e-07	-1.268934e-11	4.222797e+00	3.623362e+00
9.700000e-07	6.758974e-07	1.191980e-10	4.518823e+00	1.107845e+01
9.800000e-07	7.200698e-07	2.459202e-10	4.814145e+00	1.856534e+01
9.900000e-07	7.641509e-07	3.506582e-10	5.108856e+00	2.607902e+01
1.000000e-06	8.080409e-07	4.509508e-10	5.402290e+00	3.361437e+01
1.010000e-06	8.515670e-07	5.724062e-10	5.693291e+00	4.116614e+01
1.020000e-06	8.945997e-07	7.051088e-10	5.980993e+00	4.872901e+01
1.030000e-06	9.369951e-07	8.221067e-10	6.264435e+00	5.629755e+01
1.040000e-06	9.786994e-07	9.221879e-10	6.543256e+00	6.386626e+01
1.050000e-06	1.019805e-06	1.032280e-09	6.818076e+00	7.142959e+01
1.060000e-06	1.060505e-06	1.164001e-09	7.090178e+00	7.898191e+01
1.070000e-06	1.100935e-06	1.295822e-09	7.360479e+00	8.651756e+01
1.080000e-06	1.141173e-06	1.409690e-09	7.629499e+00	9.403086e+01
1.090000e-06	1.181192e-06	1.516808e-09	7.897051e+00	1.015161e+02
1.100000e-06	1.220848e-06	1.638917e-09	8.162181e+00	1.089675e+02
1.110000e-06	1.260061e-06	1.771318e-09	8.424345e+00	1.163794e+02
1.120000e-06	1.298811e-06	1.891613e-09	8.683412e+00	1.237462e+02
1.130000e-06	1.337071e-06	1.996524e-09	8.939211e+00	1.310620e+02
1.140000e-06	1.374817e-06	2.103928e-09	9.191563e+00	1.383214e+02
1.150000e-06	1.412071e-06	2.224525e-09	9.440633e+00	1.455186e+02
1.160000e-06	1.448898e-06	2.347467e-09	9.686849e+00	1.526483e+02
1.170000e-06	1.485354e-06	2.457930e-09	9.930581e+00	1.597048e+02
1.180000e-06	1.521506e-06	2.560113e-09	1.017228e+01	1.666830e+02
1.190000e-06	1.557273e-06	2.670563e-09	1.041140e+01	1.735775e+02
1.200000e-06	1.592402e-06	2.790393e-09	1.064626e+01	1.803832e+02
1.210000e-06	1.626619e-06	2.902468e-09	1.087503e+01	1.870950e+02
1.220000e-06	1.659898e-06	2.999336e-09	1.109752e+01	1.937081e+02
1.230000e-06	1.692515e-06	3.094119e-09	1.131559e+01	2.002176e+02
1.240000e-06	1.724731e-06	3.198594e-09	1.153097e+01	2.066189e+02
1.250000e-06	1.756504e-06	3.305087e-09	1.174339e+01	2.129076e+02
1.260000e-06	1.787604e-06	3.401922e-09	1.195132e+01	2.190794e+02
1.270000e-06	1.818067e-06	3.488895e-09	1.215498e+01	2.251301e+02
1.280000e-06	1.847958e-06	3.579857e-09	1.235482e+01	2.310558e+02
1.290000e-06	1.877175e-06	3.677251e-09	1.255016e+01	2.368527e+02
1.300000e-06	1.905790e-06	3.769580e-09	1.274147e+01	2.425173e+02
1.310000e-06	1.933989e-06	3.849606e-09	1.293000e+01	2.480462e+02
1.320000e-06	1.961638e-06	3.923391e-09	1.311485e+01	2.534362e+02
1.330000e-06	1.988335e-06	4.000431e-09	1.329334e+01	2.586845e+02
1.340000e-06	2.013940e-06	4.079490e-09	1.346453e+01	2.637881e+02
1.350000e-06	2.038663e-06	4.153134e-09	1.362982e+01	2.687448e+02
1.360000e-06	2.062736e-06	4.217799e-09	1.379076e+01	2.735521e+02
1.370000e-06	2.086155e-06	4.282039e-09	1.394733e+01	2.782080e+02
1.380000e-06	2.108860e-06	4.350919e-09	1.409913e+01	2.827107e+02
1.390000e-06	2.130893e-06	4.418396e-09	1.424643e+01	2.870585e+02
1.400000e-06	2.152163e-06	4.477079e-09	1.438864e+01	2.912500e+02
1.410000e-06	2.172736e-06	4.529547e-09	1.452618e+01	2.952842e+02
1.420000e-06	2.192817e-06	4.583391e-09	1.466044e+01	2.991601e+02
1.430000e-06	2.212230e-06	4.640274e-09	1.479023e+01	3.028769e+02
1.440000e-06	2.230723e-06	4.692486e-09	1.491386e+01	3.064343e+02
1.450000e-06	2.248323e-06	4.734807e-09	1.503153e+01	3.098319e+02
1.460000e-06	2.265200e-06	4.774288e-09	1.514437e+01	3.130697e+02
1.470000e-06	2.281212e-06	4.817243e-09	1.525142e+01	3.161479e+02
1.480000e-06	2.296209e-06	4.861385e-09	1.535168e+01	3.190669e+02
1.490000e-06	2.310390e-06	4.899790e-09	1.544649e+01	3.218273e+02
1.500000e-06	2.323788e-06	4.932367e-09	1.553606e+01	3.244298e+02
1.510000e-06	2.336340e-06	4.965705e-09	1.561998e+01	3.268755e+02
1.520000e-06	2.348041e-06	5.001476e-09	1.569821e+01	3.291655e+02
1.530000e-06	2.358644e-06	5.033010e-09	1.576910e+01	3.313012e+02
1.540000e-06	2.368006e-06	5.055858e-09	1.583170e+01	3.332842e+02
1.550000e-06	2.376494e-06	5.076304e-09	1.588844e+01	3.351160e+02
1.560000e-06	2.384308e-06	5.100642e-09	1.594068e+01	3.367986e+02
1.570000e-06	2.391325e-06	5.126424e-09	1.598760e+01	3.383339e+02
1.580000e-06	2.397512e-06	5.146037e-09	1.602896e+01	3.397242e+02
1.590000e-06	2.402831e-06	5.160218e-09	1.606452e+01	3.409715e+02
1.600000e-06	2.407422e-06	5.176509e-09	1.609522e+01	3.420784e+02
1.610000e-06	2.411440e-06	5.196833e-09	1.612208e+01	3.430474e+02
1.620000e-06	2.414532e-06	5.214283e-09	1.614275e+01	3.438809e+02
1.630000e-06	2.416408e-06	5.221876e-09	1.615529e+01	3.445818e+02
1.640000e-06	2.417282e-06	5.225895e-09	1.616114e+01	3.451526e+02
1.650000e-06	2.417441e-06	5.234517e-09	1.616220e+01	3.455964e+02
1.660000e-06	2.416895e-06	5.243153e-09	1.615855e+01	3.459159e+02
1.670000e-06	2.415599e-06	5.244477e-09	1.614988e+01	3.461141e+02
1.680000e-06	2.413541e-06	5.243266e-09	1.613613e+01	3.461940e+02
1.690000e-06	2.410678e-06	5.242533e-09	1.611699e+01	3.461585e+02
1.700000e-06	2.407186e-06	5.245685e-09	1.609364e+01	3.460106e+02
1.710000e-06	2.403159e-06	5.263962e-09	1.606672e+01	3.457534e+02
1.720000e-06	2.398253e-06	5.286217e-09	1.603391e+01	3.453898e+02
1.730000e-06	2.392106e-06	5.202992e-09	1.599282e+01	3.449228e+02
1.740000e-06	2.384717e-06	5.093577e-09	1.594342e+01	3.443553e+02
1.750000e-06	2.376125e-06	5.246600e-09	1.588597e+01	3.436903e+02
1.760000e-06	2.366729e-06	5.354927e-09	1.582316e+01	3.429307e+02
1.770000e-06	2.357208e-06	5.222410e-09	1.575950e+01	3.420791e+02
1.780000e-06	2.347353e-06	5.050521e-09	1.569361e+01	3.411384e+02
1.790000e-06	2.336162e-06	5.178143e-09	1.561879e+01	3.401112e+02
1.800000e-06	2.323648e-06	5.258556e-09	1.553513e+01	3.390001e+02
1.810000e-06	2.310860e-06	5.075176e-09	1.544963e+01	3.378076e+02
1.820000e-06	2.297346e-06	5.091628e-09	1.535928e+01	3.365360e+02
1.830000e-06	2.282179e-06	5.234110e-09	1.525788e+01	3.351876e+02
1.840000e-06	2.266107e-06	5.062999e-09	1.515043e+01	3.337646e+02
1.850000e-06	2.249710e-06	4.950566e-09	1.504081e+01	3.322690e+02
1.860000e-06	2.232389e-06	5.258541e-09	1.492501e+01	3.307027e+02
1.870000e-06	2.213890e-06	5.147787e-09	1.480132e+01	3.290676e+02
1.880000e-06	2.194711e-06	4.777105e-09	1.467310e+01	3.273652e+02
1.890000e-06	2.175136e-06	4.986778e-09	1.454223e+01	3.255971e+02
1.900000e-06	2.154890e-06	5.202167e-09	1.440687e+01	3.237646e+02
1.910000e-06	2.133687e-06	4.890376e-09	1.426512e+01	3.218690e+02
1.920000e-06	2.111346e-06	4.804958e-09	1.411575e+01	3.199112e+02
1.930000e-06	2.088107e-06	4.956556e-09	1.396038e+01	3.178923e+02
1.940000e-06	2.064343e-06	4.870617e-09	1.380150e+01	3.158131e+02
1.950000e-06	2.039821e-06	4.817743e-09	1.363756e+01	3.136740e+02
1.960000e-06	2.014561e-06	4.820624e-09	1.346868e+01	3.114756e+02
1.970000e-06	1.988765e-06	4.682612e-09	1.329622e+01	3.092183e+02
1.980000e-06	1.962213e-06	4.706253e-09	1.311870e+01	3.069021e+02
1.990000e-06	1.934971e-06	4.758521e-09	1.293656e+01	3.045271e+02
2.000000e-06	1.907321e-06	4.642756e-09	1.275171e+01	3.020932e+02
2.010000e-06	1.879007e-06	4.606840e-09	1.256241e+01	2.996001e+02
2.020000e-06	1.849641e-06	4.537088e-09	1.236608e+01	2.970474e+02
2.030000e-06	1.819318e-06	4.469190e-09	1.216335e+01	2.944346e+02
2.040000e-06	1.788315e-06	4.565041e-09	1.195608e+01	2.917610e+02
2.050000e-06	1.756773e-06	4.480477e-09	1.174519e+01	2.890258e+02
2.060000e-06	1.724763e-06	4.281745e-09	1.153119e+01	2.862282e+02
2.070000e-06	1.692146e-06	4.354390e-09	1.131312e+01	2.833671e+02
2.080000e-06	1.658897e-06	4.382379e-09	1.109083e+01	2.804414e+02
2.090000e-06	1.625151e-06	4.245662e-09	1.086521e+01	2.774499e+02
2.100000e-06	1.590867e-06	4.187128e-09	1.063601e+01	2.743912e+02
2.110000e-06	1.556015e-06	4.116251e-09	1.040299e+01	2.712641e+02
2.120000e-06	1.520750e-06	4.083151e-09	1.016723e+01	2.680671e+02
2.130000e-06	1.485192e-06	4.092142e-09	9.929498e+00	2.647986e+02
2.140000e-06	1.449196e-06	3.995842e-09	9.688840e+00	2.614571e+02
2.150000e-06	1.412546e-06	3.888946e-09	9.443810e+00	2.580409e+02
2.160000e-06	1.374956e-06	3.856590e-09	9.192494e+00	2.545485e+02
2.170000e-06	1.336473e-06	3.829498e-09	8.935207e+00	2.509781e+02
2.180000e-06	1.297451e-06	3.780471e-09	8.674325e+00	2.473281e+02
2.190000e-06	1.258098e-06	3.682994e-09	8.411221e+00	2.435967e+02
2.200000e-06	1.218480e-06	3.585120e-09	8.146351e+00	2.397824e+02
2.210000e-06	1.178585e-06	3.564789e-09	7.879624e+00	2.358833e+02
2.220000e-06	1.138301e-06	3.537257e-09	7.610295e+00	2.318979e+02
2.230000e-06	1.097519e-06	3.456581e-09	7.337644e+00	2.278246e+02
2.240000e-06	1.056301e-06	3.353067e-09	7.062075e+00	2.236617e+02
2.250000e-06	1.014826e-06	3.286812e-09	6.784785e+00	2.194079e+02
2.260000e-06	9.731371e-07	3.258044e-09	6.506068e+00	2.150616e+02
2.270000e-06	9.310535e-07	3.197174e-09	6.224711e+00	2.106216e+02
2.280000e-06	8.885133e-07	3.097395e-09	5.940302e+00	2.060865e+02
2.290000e-06	8.455965e-07	3.001929e-09	5.653374e+00	2.014551e+02
2.300000e-06	8.024026e-07	2.947428e-09	5.364594e+00	1.967265e+02
2.310000e-06	7.590387e-07	2.909744e-09	5.074678e+00	1.918996e+02
2.320000e-06	7.155726e-07	2.827207e-09	4.784078e+00	1.869736e+02
2.330000e-06	6.720157e-07	2.713076e-09	4.492872e+00	1.819479e+02
2.340000e-06	6.283673e-07	2.637422e-09	4.201053e+00	1.768219e+02
2.350000e-06	5.846056e-07	2.587222e-09	3.908477e+00	1.715952e+02
2.360000e-06	5.406281e-07	2.518560e-09	3.614458e+00	1.662675e+02
2.370000e-06	4.963952e-07	2.417222e-09	3.318731e+00	1.608388e+02
2.380000e-06	4.519329e-07	2.311463e-09	3.021472e+00	1.553092e+02
2.390000e-06	4.072310e-07	2.241306e-09	2.722609e+00	1.496789e+02
2.400000e-06	3.623684e-07	2.179593e-09	2.422674e+00	1.439483e+02
2.410000e-06	3.173877e-07	2.092958e-09	2.121947e+00	1.381182e+02
2.420000e-06	2.722599e-07	1.984463e-09	1.820238e+00	1.321894e+02
2.430000e-06	2.269905e-07	1.887630e-09	1.517583e+00	1.261628e+02
2.440000e-06	1.816061e-07	1.817717e-09	1.214157e+00	1.200396e+02
2.450000e-06	1.361404e-07	1.741860e-09	9.101889e-01	1.138214e+02
2.460000e-06	9.061286e-08	1.633900e-09	6.058072e-01	1.075098e+02
2.470000e-06	4.504277e-08	1.517548e-09	3.011409e-01	1.011064e+02
2.480000e-06	-5.032824e-10	1.428482e-09	-3.364777e-03	9.461348e+01
2.490000e-06	-4.600186e-08	1.354146e-09	-3.075530e-01	8.803315e+01
2.500000e-06	-9.151807e-08	1.260471e-09	-6.118591e-01	8.136787e+01
2.510000e-06	-1.369459e-07	1.144197e-09	-9.155741e-01	7.462030e+01
2.520000e-06	-1.822168e-07	1.038169e-09	-1.218240e+00	6.779327e+01
2.530000e-06	-2.274418e-07	9.514778e-10	-1.520600e+00	6.088982e+01
2.540000e-06	-2.726538e-07	8.604665e-10	-1.822872e+00	5.391320e+01
2.550000e-06	-3.177699e-07	7.477278e-10	-2.124503e+00	4.686684e+01
2.560000e-06	-3.627181e-07	6.253219e-10	-2.425011e+00	3.975435e+01
2.570000e-06	-4.074204e-07	5.204794e-10	-2.723876e+00	3.257954e+01
2.580000e-06	-4.519158e-07	4.302328e-10	-3.021357e+00	2.534639e+01
2.590000e-06	-4.962128e-07	3.285666e-10	-3.317512e+00	1.805904e+01
2.600000e-06	-5.402331e-07	2.046806e-10	-3.611817e+00	1.072183e+01
2.610000e-06	-5.840418e-07	8.212481e-11	-3.904707e+00	3.339215e+00
2.620000e-06	-6.276944e-07	-2.052987e-11	-4.196554e+00	-4.084166e+00
2.630000e-06	-6.712639e-07	-1.194720e-10	-4.487845e+00	-1.154355e+01
2.640000e-06	-7.147962e-07	-2.385960e-10	-4.778887e+00	-1.903403e+01
2.650000e-06	-7.582231e-07	-3.688662e-10	-5.069225e+00	-2.655057e+01
2.660000e-06	-8.014801e-07	-4.856316e-10	-5.358427e+00	-3.408804e+01
2.670000e-06	-8.445233e-07	-5.890354e-10	-5.646199e+00	-4.164118e+01
2.680000e-06	-8.872741e-07	-7.004074e-10	-5.932017e+00	-4.920464e+01
2.690000e-06	-9.296828e-07	-8.305646e-10	-6.215547e+00	-5.677300e+01
2.700000e-06	-9.717187e-07	-9.589485e-10	-6.496585e+00	-6.434074e+01
2.710000e-06	-1.013393e-06	-1.069112e-09	-6.775207e+00	-7.190229e+01
2.720000e-06	-1.054773e-06	-1.171586e-09	-7.051861e+00	-7.945202e+01
2.730000e-06	-1.095839e-06	-1.286888e-09	-7.326413e+00	-8.698428e+01
2.740000e-06	-1.136506e-06	-1.415185e-09	-7.598298e+00	-9.449337e+01
2.750000e-06	-1.176704e-06	-1.537299e-09	-7.867046e+00	-1.019736e+02
2.760000e-06	-1.216496e-06	-1.647402e-09	-8.133085e+00	-1.094192e+02
2.770000e-06	-1.256021e-06	-1.760322e-09	-8.397337e+00	-1.168244e+02
2.780000e-06	-1.295317e-06	-1.885893e-09	-8.660056e+00	-1.241837e+02
2.790000e-06	-1.334249e-06	-2.010924e-09	-8.920338e+00	-1.314913e+02
2.800000e-06	-1.372587e-06	-2.121965e-09	-9.176656e+00	-1.387415e+02
2.810000e-06	-1.410122e-06	-2.224473e-09	-9.427605e+00	-1.459289e+02
2.820000e-06	-1.446798e-06	-2.333473e-09	-9.672806e+00	-1.530479e+02
2.830000e-06	-1.482797e-06	-2.451944e-09	-9.913482e+00	-1.600931e+02
2.840000e-06	-1.518383e-06	-2.567143e-09	-1.015140e+01	-1.670591e+02
2.850000e-06	-1.553642e-06	-2.672937e-09	-1.038713e+01	-1.739406e+02
2.860000e-06	-1.588452e-06	-2.778555e-09	-1.061986e+01	-1.807327e+02
2.870000e-06	-1.622702e-06	-2.891072e-09	-1.084884e+01	-1.874301e+02
2.880000e-06	-1.656379e-06	-3.002574e-09	-1.107400e+01	-1.940281e+02
2.890000e-06	-1.689491e-06	-3.101803e-09	-1.129537e+01	-2.005219e+02
2.900000e-06	-1.721963e-06	-3.190914e-09	-1.151247e+01	-2.069069e+02
2.910000e-06	-1.753859e-06	-3.283302e-09	-1.172572e+01	-2.131786e+02
2.920000e-06	-1.785356e-06	-3.382960e-09	-1.193629e+01	-2.193327e+02
2.930000e-06	-1.816334e-06	-3.479214e-09	-1.214340e+01	-2.253653e+02
2.940000e-06	-1.846469e-06	-3.566922e-09	-1.234487e+01	-2.312723e+02
