# Temperatura_=_20.0
# Concentracion g/m^3_=_10000.0
# C_Vs_to_Am_M_A/Vsm_=_65563218390.804596
# pendiente_HvsI_1/m_=_3716.3
# ordenada_HvsI_A/m_=_1297.0
# frecuencia_Hz_=_301042.1981852035

Tiempo_(s)	Campo_(V.s)	Magnetizacion_(V.s)	Campo_(kA/m)	Magnetizacion_(A/m)
0.000000e+00	-3.505749e-06	-7.623267e-09	-2.347491e+01	-4.994914e+02
1.000000e-08	-3.504951e-06	-7.623104e-09	-2.346956e+01	-4.994399e+02
2.000000e-08	-3.502949e-06	-7.621654e-09	-2.345616e+01	-4.992676e+02
3.000000e-08	-3.499517e-06	-7.619400e-09	-2.343317e+01	-4.990514e+02
4.000000e-08	-3.494963e-06	-7.616034e-09	-2.340268e+01	-4.988484e+02
5.000000e-08	-3.489439e-06	-7.613012e-09	-2.336569e+01	-4.986733e+02
6.000000e-08	-3.482836e-06	-7.611998e-09	-2.332148e+01	-4.984856e+02
7.000000e-08	-3.475114e-06	-7.605292e-09	-2.326977e+01	-4.981992e+02
8.000000e-08	-3.466228e-06	-7.593919e-09	-2.321027e+01	-4.977163e+02
9.000000e-08	-3.455772e-06	-7.608665e-09	-2.314025e+01	-4.969761e+02
1.000000e-07	-3.443394e-06	-7.605254e-09	-2.305737e+01	-4.959934e+02
1.100000e-07	-3.429434e-06	-7.571846e-09	-2.296389e+01	-4.948612e+02
1.200000e-07	-3.414345e-06	-7.483972e-09	-2.286286e+01	-4.937086e+02
1.300000e-07	-3.398190e-06	-7.481767e-09	-2.275467e+01	-4.926320e+02
1.400000e-07	-3.380692e-06	-7.571367e-09	-2.263751e+01	-4.916385e+02
1.500000e-07	-3.362035e-06	-7.506760e-09	-2.251258e+01	-4.906374e+02
1.600000e-07	-3.342553e-06	-7.408029e-09	-2.238213e+01	-4.894894e+02
1.700000e-07	-3.321975e-06	-7.476892e-09	-2.224433e+01	-4.880884e+02
1.800000e-07	-3.300150e-06	-7.446377e-09	-2.209819e+01	-4.864258e+02
1.900000e-07	-3.277485e-06	-7.315084e-09	-2.194642e+01	-4.845990e+02
2.000000e-07	-3.253981e-06	-7.412165e-09	-2.178904e+01	-4.827566e+02
2.100000e-07	-3.229083e-06	-7.373916e-09	-2.162232e+01	-4.810124e+02
2.200000e-07	-3.202666e-06	-7.203485e-09	-2.144543e+01	-4.793805e+02
2.300000e-07	-3.175058e-06	-7.285642e-09	-2.126056e+01	-4.777692e+02
2.400000e-07	-3.146455e-06	-7.320107e-09	-2.106903e+01	-4.760339e+02
2.500000e-07	-3.116822e-06	-7.180745e-09	-2.087060e+01	-4.740558e+02
2.600000e-07	-3.086025e-06	-7.156074e-09	-2.066438e+01	-4.717967e+02
2.700000e-07	-3.054162e-06	-7.138069e-09	-2.045102e+01	-4.693026e+02
2.800000e-07	-3.021558e-06	-7.092883e-09	-2.023270e+01	-4.666603e+02
2.900000e-07	-2.987980e-06	-7.096141e-09	-2.000786e+01	-4.639414e+02
3.000000e-07	-2.952951e-06	-7.020540e-09	-1.977330e+01	-4.611696e+02
3.100000e-07	-2.916666e-06	-6.952992e-09	-1.953033e+01	-4.583276e+02
3.200000e-07	-2.879396e-06	-6.938394e-09	-1.928077e+01	-4.553888e+02
3.300000e-07	-2.841127e-06	-6.898856e-09	-1.902451e+01	-4.523470e+02
3.400000e-07	-2.801939e-06	-6.844439e-09	-1.876211e+01	-4.492202e+02
3.500000e-07	-2.761880e-06	-6.784607e-09	-1.849387e+01	-4.460298e+02
3.600000e-07	-2.720963e-06	-6.709309e-09	-1.821989e+01	-4.427737e+02
3.700000e-07	-2.679010e-06	-6.694057e-09	-1.793896e+01	-4.394177e+02
3.800000e-07	-2.635751e-06	-6.672792e-09	-1.764929e+01	-4.359130e+02
3.900000e-07	-2.591363e-06	-6.584055e-09	-1.735207e+01	-4.322284e+02
4.000000e-07	-2.546097e-06	-6.500206e-09	-1.704896e+01	-4.283724e+02
4.100000e-07	-2.500004e-06	-6.454695e-09	-1.674032e+01	-4.243911e+02
4.200000e-07	-2.453084e-06	-6.425284e-09	-1.642613e+01	-4.203405e+02
4.300000e-07	-2.405272e-06	-6.347230e-09	-1.610598e+01	-4.162540e+02
4.400000e-07	-2.356572e-06	-6.258927e-09	-1.577988e+01	-4.121252e+02
4.500000e-07	-2.306892e-06	-6.185941e-09	-1.544722e+01	-4.079164e+02
4.600000e-07	-2.256067e-06	-6.141837e-09	-1.510689e+01	-4.035843e+02
4.700000e-07	-2.204146e-06	-6.095030e-09	-1.475922e+01	-3.991033e+02
4.800000e-07	-2.151358e-06	-6.011627e-09	-1.440575e+01	-3.944727e+02
4.900000e-07	-2.097731e-06	-5.917990e-09	-1.404665e+01	-3.897053e+02
5.000000e-07	-2.043301e-06	-5.846826e-09	-1.368218e+01	-3.848088e+02
5.100000e-07	-1.988250e-06	-5.793140e-09	-1.331356e+01	-3.797767e+02
5.200000e-07	-1.932606e-06	-5.713619e-09	-1.294095e+01	-3.745948e+02
5.300000e-07	-1.876381e-06	-5.608408e-09	-1.256447e+01	-3.692568e+02
5.400000e-07	-1.819561e-06	-5.509033e-09	-1.218399e+01	-3.637767e+02
5.500000e-07	-1.762034e-06	-5.449875e-09	-1.179878e+01	-3.581851e+02
5.600000e-07	-1.703594e-06	-5.381335e-09	-1.140746e+01	-3.525108e+02
5.700000e-07	-1.644236e-06	-5.280722e-09	-1.100999e+01	-3.467595e+02
5.800000e-07	-1.584209e-06	-5.173657e-09	-1.060805e+01	-3.409018e+02
5.900000e-07	-1.523780e-06	-5.085816e-09	-1.020341e+01	-3.348821e+02
6.000000e-07	-1.463045e-06	-5.009561e-09	-9.796719e+00	-3.286422e+02
6.100000e-07	-1.401854e-06	-4.910984e-09	-9.386975e+00	-3.221493e+02
6.200000e-07	-1.340096e-06	-4.793237e-09	-8.973437e+00	-3.154124e+02
6.300000e-07	-1.277821e-06	-4.675036e-09	-8.556440e+00	-3.084798e+02
6.400000e-07	-1.215154e-06	-4.583365e-09	-8.136810e+00	-3.014191e+02
6.500000e-07	-1.152097e-06	-4.490900e-09	-7.714578e+00	-2.942891e+02
6.600000e-07	-1.088598e-06	-4.374839e-09	-7.289380e+00	-2.871151e+02
6.700000e-07	-1.024713e-06	-4.247513e-09	-6.861599e+00	-2.798778e+02
6.800000e-07	-9.605131e-07	-4.135142e-09	-6.431708e+00	-2.725195e+02
6.900000e-07	-8.961089e-07	-4.036932e-09	-6.000450e+00	-2.649648e+02
7.000000e-07	-8.315956e-07	-3.921470e-09	-5.568461e+00	-2.571501e+02
7.100000e-07	-7.669122e-07	-3.784535e-09	-5.135333e+00	-2.490497e+02
7.200000e-07	-7.019567e-07	-3.646361e-09	-4.700384e+00	-2.406866e+02
7.300000e-07	-6.366890e-07	-3.526735e-09	-4.263344e+00	-2.321239e+02
7.400000e-07	-5.711253e-07	-3.407513e-09	-3.824322e+00	-2.234357e+02
7.500000e-07	-5.052459e-07	-3.271339e-09	-3.383186e+00	-2.146700e+02
7.600000e-07	-4.390611e-07	-3.122134e-09	-2.940004e+00	-2.058213e+02
7.700000e-07	-3.725298e-07	-2.983062e-09	-2.494503e+00	-1.968268e+02
7.800000e-07	-3.057630e-07	-2.856063e-09	-2.047424e+00	-1.875913e+02
7.900000e-07	-2.389360e-07	-2.715556e-09	-1.599943e+00	-1.780307e+02
8.000000e-07	-1.720174e-07	-2.555588e-09	-1.151848e+00	-1.681126e+02
8.100000e-07	-1.049977e-07	-2.391200e-09	-7.030767e-01	-1.578724e+02
8.200000e-07	-3.783109e-08	-2.241655e-09	-2.533214e-01	-1.473960e+02
8.300000e-07	2.935506e-08	-2.094832e-09	1.965649e-01	-1.367762e+02
8.400000e-07	9.644474e-08	-1.932598e-09	6.458052e-01	-1.260650e+02
8.500000e-07	1.635587e-07	-1.755743e-09	1.095208e+00	-1.152474e+02
8.600000e-07	2.306379e-07	-1.583036e-09	1.544378e+00	-1.042506e+02
8.700000e-07	2.975096e-07	-1.419031e-09	1.992159e+00	-9.298246e+01
8.800000e-07	3.641346e-07	-1.247162e-09	2.438287e+00	-8.137889e+01
8.900000e-07	4.305552e-07	-1.058923e-09	2.883048e+00	-6.943394e+01
9.000000e-07	4.967222e-07	-8.639117e-10	3.326110e+00	-5.719739e+01
9.100000e-07	5.625144e-07	-6.798037e-10	3.766662e+00	-4.474337e+01
9.200000e-07	6.279678e-07	-4.994554e-10	4.204945e+00	-3.212999e+01
9.300000e-07	6.931449e-07	-3.061274e-10	4.641379e+00	-1.937410e+01
9.400000e-07	7.580301e-07	-9.707674e-11	5.075858e+00	-6.454959e+00
9.500000e-07	8.226696e-07	1.096555e-10	5.508691e+00	6.657896e+00
9.600000e-07	8.871310e-07	3.069134e-10	5.940333e+00	1.997239e+01
9.700000e-07	9.514332e-07	5.067696e-10	6.370908e+00	3.345908e+01
9.800000e-07	1.015527e-06	7.192769e-10	6.800088e+00	4.706343e+01
9.900000e-07	1.079302e-06	9.370468e-10	7.227133e+00	6.073589e+01
1.000000e-06	1.142667e-06	1.143749e-09	7.651428e+00	7.445801e+01
1.010000e-06	1.205593e-06	1.344415e-09	8.072789e+00	8.824458e+01
1.020000e-06	1.268176e-06	1.554020e-09	8.491852e+00	1.021180e+02
1.030000e-06	1.330425e-06	1.776974e-09	8.908683e+00	1.160709e+02
1.040000e-06	1.392221e-06	1.997687e-09	9.322473e+00	1.300434e+02
1.050000e-06	1.453520e-06	2.205245e-09	9.732942e+00	1.439331e+02
1.060000e-06	1.514296e-06	2.406192e-09	1.013990e+01	1.576352e+02
1.070000e-06	1.574700e-06	2.612306e-09	1.054437e+01	1.710901e+02
1.080000e-06	1.634785e-06	2.822542e-09	1.094671e+01	1.843059e+02
1.090000e-06	1.694331e-06	3.022182e-09	1.134544e+01	1.973416e+02
1.100000e-06	1.752983e-06	3.212206e-09	1.173818e+01	2.102572e+02
1.110000e-06	1.810552e-06	3.404564e-09	1.212367e+01	2.230614e+02
1.120000e-06	1.867328e-06	3.604797e-09	1.250384e+01	2.356900e+02
1.130000e-06	1.923669e-06	3.799358e-09	1.288111e+01	2.480283e+02
1.140000e-06	1.979542e-06	3.977959e-09	1.325524e+01	2.599646e+02
1.150000e-06	2.034674e-06	4.144739e-09	1.362442e+01	2.714419e+02
1.160000e-06	2.089054e-06	4.311692e-09	1.398855e+01	2.824773e+02
1.170000e-06	2.142715e-06	4.481833e-09	1.434787e+01	2.931390e+02
1.180000e-06	2.195617e-06	4.643719e-09	1.470211e+01	3.034992e+02
1.190000e-06	2.247727e-06	4.794526e-09	1.505104e+01	3.135920e+02
1.200000e-06	2.298779e-06	4.941103e-09	1.539289e+01	3.234027e+02
1.210000e-06	2.348538e-06	5.089617e-09	1.572609e+01	3.328880e+02
1.220000e-06	2.397252e-06	5.232686e-09	1.605228e+01	3.420101e+02
1.230000e-06	2.445207e-06	5.364131e-09	1.637339e+01	3.507587e+02
1.240000e-06	2.492378e-06	5.485597e-09	1.668926e+01	3.591487e+02
1.250000e-06	2.538733e-06	5.606667e-09	1.699965e+01	3.672011e+02
1.260000e-06	2.584230e-06	5.730340e-09	1.730431e+01	3.749251e+02
1.270000e-06	2.628911e-06	5.848406e-09	1.760349e+01	3.823180e+02
1.280000e-06	2.672902e-06	5.954538e-09	1.789806e+01	3.893812e+02
1.290000e-06	2.715883e-06	6.053581e-09	1.818587e+01	3.961369e+02
1.300000e-06	2.757501e-06	6.153146e-09	1.846455e+01	4.026278e+02
1.310000e-06	2.798024e-06	6.250891e-09	1.873589e+01	4.088957e+02
1.320000e-06	2.837705e-06	6.342466e-09	1.900160e+01	4.149529e+02
1.330000e-06	2.876449e-06	6.426647e-09	1.926104e+01	4.207683e+02
1.340000e-06	2.914193e-06	6.510041e-09	1.951378e+01	4.262824e+02
1.350000e-06	2.951037e-06	6.593160e-09	1.976048e+01	4.314450e+02
1.360000e-06	2.987020e-06	6.670232e-09	2.000143e+01	4.362515e+02
1.370000e-06	3.021880e-06	6.738899e-09	2.023486e+01	4.407553e+02
1.380000e-06	3.055393e-06	6.802021e-09	2.045927e+01	4.450451e+02
1.390000e-06	3.087784e-06	6.863967e-09	2.067616e+01	4.492014e+02
1.400000e-06	3.119177e-06	6.924604e-09	2.088637e+01	4.532598e+02
1.410000e-06	3.149572e-06	6.982844e-09	2.108990e+01	4.572000e+02
1.420000e-06	3.178977e-06	7.037090e-09	2.128680e+01	4.609664e+02
1.430000e-06	3.207376e-06	7.089448e-09	2.147696e+01	4.645030e+02
1.440000e-06	3.234662e-06	7.141733e-09	2.165967e+01	4.677802e+02
1.450000e-06	3.260520e-06	7.191152e-09	2.183282e+01	4.708022e+02
1.460000e-06	3.285028e-06	7.233926e-09	2.199693e+01	4.735952e+02
1.470000e-06	3.308436e-06	7.270305e-09	2.215367e+01	4.761931e+02
1.480000e-06	3.330780e-06	7.305068e-09	2.230329e+01	4.786298e+02
1.490000e-06	3.352032e-06	7.339659e-09	2.244559e+01	4.809407e+02
1.500000e-06	3.372244e-06	7.372199e-09	2.258094e+01	4.831630e+02
1.510000e-06	3.391336e-06	7.402855e-09	2.270878e+01	4.853258e+02
1.520000e-06	3.409145e-06	7.432332e-09	2.282804e+01	4.874324e+02
1.530000e-06	3.425753e-06	7.461017e-09	2.293924e+01	4.894468e+02
1.540000e-06	3.441078e-06	7.489487e-09	2.304186e+01	4.912997e+02
1.550000e-06	3.455074e-06	7.515549e-09	2.313558e+01	4.929173e+02
1.560000e-06	3.467836e-06	7.535877e-09	2.322103e+01	4.942609e+02
1.570000e-06	3.479226e-06	7.551958e-09	2.329731e+01	4.953536e+02
1.580000e-06	3.489062e-06	7.566084e-09	2.336317e+01	4.962767e+02
1.590000e-06	3.497570e-06	7.578360e-09	2.342014e+01	4.971348e+02
1.600000e-06	3.504935e-06	7.591215e-09	2.346946e+01	4.980082e+02
1.610000e-06	3.511079e-06	7.604005e-09	2.351059e+01	4.989179e+02
1.620000e-06	3.516098e-06	7.615779e-09	2.354420e+01	4.998200e+02
1.630000e-06	3.520021e-06	7.627699e-09	2.357047e+01	5.006305e+02
1.640000e-06	3.522563e-06	7.639285e-09	2.358750e+01	5.012636e+02
1.650000e-06	3.523654e-06	7.647659e-09	2.359480e+01	5.016654e+02
1.660000e-06	3.523609e-06	7.651054e-09	2.359450e+01	5.018298e+02
1.670000e-06	3.522458e-06	7.649099e-09	2.358679e+01	5.017960e+02
1.680000e-06	3.520222e-06	7.645276e-09	2.357182e+01	5.016332e+02
1.690000e-06	3.517053e-06	7.642820e-09	2.355060e+01	5.014186e+02
1.700000e-06	3.512820e-06	7.640899e-09	2.352225e+01	5.012128e+02
1.710000e-06	3.507171e-06	7.636615e-09	2.348442e+01	5.010358e+02
1.720000e-06	3.500186e-06	7.632974e-09	2.343765e+01	5.008533e+02
1.730000e-06	3.492240e-06	7.637706e-09	2.338444e+01	5.005826e+02
1.740000e-06	3.483386e-06	7.626323e-09	2.332516e+01	5.001249e+02
1.750000e-06	3.473133e-06	7.576981e-09	2.325650e+01	4.994133e+02
1.760000e-06	3.460639e-06	7.561257e-09	2.317284e+01	4.984535e+02
1.770000e-06	3.446001e-06	7.589882e-09	2.307482e+01	4.973315e+02
1.780000e-06	3.430455e-06	7.628508e-09	2.297073e+01	4.961756e+02
1.790000e-06	3.414744e-06	7.546304e-09	2.286552e+01	4.950889e+02
1.800000e-06	3.398178e-06	7.461071e-09	2.275459e+01	4.940896e+02
1.810000e-06	3.379982e-06	7.575814e-09	2.263275e+01	4.930959e+02
1.820000e-06	3.360744e-06	7.511288e-09	2.250393e+01	4.919703e+02
1.830000e-06	3.340845e-06	7.406211e-09	2.237068e+01	4.905990e+02
1.840000e-06	3.319340e-06	7.512230e-09	2.222668e+01	4.889616e+02
1.850000e-06	3.296222e-06	7.447100e-09	2.207188e+01	4.871458e+02
1.860000e-06	3.272250e-06	7.311546e-09	2.191137e+01	4.852985e+02
1.870000e-06	3.247164e-06	7.427318e-09	2.174339e+01	4.835413e+02
1.880000e-06	3.220807e-06	7.417363e-09	2.156690e+01	4.819004e+02
1.890000e-06	3.193433e-06	7.224656e-09	2.138360e+01	4.802937e+02
1.900000e-06	3.164802e-06	7.280877e-09	2.119188e+01	4.785787e+02
1.910000e-06	3.134813e-06	7.318462e-09	2.099107e+01	4.766303e+02
1.920000e-06	3.103686e-06	7.210060e-09	2.078265e+01	4.744006e+02
1.930000e-06	3.071392e-06	7.214072e-09	2.056640e+01	4.719280e+02
1.940000e-06	3.038201e-06	7.146527e-09	2.034415e+01	4.692977e+02
1.950000e-06	3.004214e-06	7.072546e-09	2.011657e+01	4.665852e+02
1.960000e-06	2.969236e-06	7.116654e-09	1.988235e+01	4.638197e+02
1.970000e-06	2.933393e-06	7.020398e-09	1.964234e+01	4.609868e+02
1.980000e-06	2.896351e-06	6.952164e-09	1.939430e+01	4.580594e+02
1.990000e-06	2.857796e-06	6.943898e-09	1.913613e+01	4.550283e+02
2.000000e-06	2.818219e-06	6.866426e-09	1.887112e+01	4.519097e+02
2.010000e-06	2.777827e-06	6.861556e-09	1.860065e+01	4.487259e+02
2.020000e-06	2.736449e-06	6.813792e-09	1.832358e+01	4.454782e+02
2.030000e-06	2.694153e-06	6.701442e-09	1.804036e+01	4.421354e+02
2.040000e-06	2.651041e-06	6.669234e-09	1.775168e+01	4.386490e+02
2.050000e-06	2.607201e-06	6.642182e-09	1.745812e+01	4.349842e+02
2.060000e-06	2.562410e-06	6.584496e-09	1.715820e+01	4.311451e+02
2.070000e-06	2.516479e-06	6.498116e-09	1.685063e+01	4.271747e+02
2.080000e-06	2.469743e-06	6.415229e-09	1.653769e+01	4.231295e+02
2.090000e-06	2.422156e-06	6.392931e-09	1.621904e+01	4.190467e+02
2.100000e-06	2.373495e-06	6.337324e-09	1.589320e+01	4.149240e+02
2.110000e-06	2.323913e-06	6.265991e-09	1.556119e+01	4.107263e+02
2.120000e-06	2.273562e-06	6.189730e-09	1.522403e+01	4.064093e+02
2.130000e-06	2.222494e-06	6.098257e-09	1.488208e+01	4.019449e+02
2.140000e-06	2.170442e-06	6.060411e-09	1.453353e+01	3.973300e+02
2.150000e-06	2.117231e-06	5.989668e-09	1.417722e+01	3.925769e+02
2.160000e-06	2.062920e-06	5.895937e-09	1.381355e+01	3.876945e+02
2.170000e-06	2.007812e-06	5.816315e-09	1.344454e+01	3.826779e+02
2.180000e-06	1.952226e-06	5.744828e-09	1.307233e+01	3.775128e+02
2.190000e-06	1.896077e-06	5.694612e-09	1.269635e+01	3.721916e+02
2.200000e-06	1.839240e-06	5.599614e-09	1.231576e+01	3.667256e+02
2.210000e-06	1.781728e-06	5.486935e-09	1.193066e+01	3.611445e+02
2.220000e-06	1.723535e-06	5.402053e-09	1.154099e+01	3.554786e+02
2.230000e-06	1.664774e-06	5.329590e-09	1.114752e+01	3.497365e+02
2.240000e-06	1.605610e-06	5.250915e-09	1.075135e+01	3.438928e+02
2.250000e-06	1.546077e-06	5.144868e-09	1.035271e+01	3.378936e+02
2.260000e-06	1.486034e-06	5.040517e-09	9.950654e+00	3.316798e+02
2.270000e-06	1.425245e-06	4.953526e-09	9.543604e+00	3.252146e+02
2.280000e-06	1.363633e-06	4.860191e-09	9.131046e+00	3.185023e+02
2.290000e-06	1.301272e-06	4.756947e-09	8.713470e+00	3.115878e+02
2.300000e-06	1.238420e-06	4.630467e-09	8.292602e+00	3.045379e+02
2.310000e-06	1.175298e-06	4.513664e-09	7.869935e+00	2.974136e+02
2.320000e-06	1.111924e-06	4.419967e-09	7.445572e+00	2.902446e+02
2.330000e-06	1.048257e-06	4.317286e-09	7.019252e+00	2.830166e+02
2.340000e-06	9.842268e-07	4.200611e-09	6.590497e+00	2.756750e+02
2.350000e-06	9.197932e-07	4.071609e-09	6.159043e+00	2.681450e+02
2.360000e-06	8.550226e-07	3.959493e-09	5.725331e+00	2.603606e+02
2.370000e-06	7.899658e-07	3.851634e-09	5.289703e+00	2.522907e+02
2.380000e-06	7.246747e-07	3.721731e-09	4.852506e+00	2.439535e+02
2.390000e-06	6.591823e-07	3.579039e-09	4.413962e+00	2.354088e+02
2.400000e-06	5.934344e-07	3.439736e-09	3.973706e+00	2.267312e+02
2.410000e-06	5.274232e-07	3.316664e-09	3.531687e+00	2.179732e+02
2.420000e-06	4.612102e-07	3.190973e-09	3.088318e+00	2.091358e+02
2.430000e-06	3.948917e-07	3.049249e-09	2.644241e+00	2.001614e+02
2.440000e-06	3.284266e-07	2.898441e-09	2.199183e+00	1.909566e+02
2.450000e-06	2.618078e-07	2.753594e-09	1.753096e+00	1.814338e+02
2.460000e-06	1.951222e-07	2.612795e-09	1.306561e+00	1.715537e+02
2.470000e-06	1.284040e-07	2.458381e-09	8.598085e-01	1.613447e+02
2.480000e-06	6.167243e-08	2.288288e-09	4.129657e-01	1.508891e+02
2.490000e-06	-5.039539e-09	2.118420e-09	-3.374534e-02	1.402814e+02
2.500000e-06	-7.174234e-08	1.959098e-09	-4.803950e-01	1.295796e+02
2.510000e-06	-1.384907e-07	1.800885e-09	-9.273502e-01	1.187764e+02
2.520000e-06	-2.051866e-07	1.632903e-09	-1.373953e+00	1.078035e+02
2.530000e-06	-2.718271e-07	1.454928e-09	-1.820186e+00	9.656860e+01
2.540000e-06	-3.384466e-07	1.278905e-09	-2.266278e+00	8.500262e+01
2.550000e-06	-4.048935e-07	1.104819e-09	-2.711214e+00	7.309289e+01
2.560000e-06	-4.710708e-07	9.218736e-10	-3.154345e+00	6.088435e+01
2.570000e-06	-5.369971e-07	7.260991e-10	-3.595795e+00	4.845050e+01
2.580000e-06	-6.027452e-07	5.268281e-10	-4.036052e+00	3.585282e+01
2.590000e-06	-6.683096e-07	3.359365e-10	-4.475079e+00	2.311293e+01
2.600000e-06	-7.336492e-07	1.458316e-10	-4.912601e+00	1.021310e+01
2.610000e-06	-7.987630e-07	-5.456392e-11	-5.348610e+00	-2.877774e+00
2.620000e-06	-8.636503e-07	-2.630272e-10	-5.783103e+00	-1.617119e+01
2.630000e-06	-9.281946e-07	-4.682987e-10	-6.215299e+00	-2.964158e+01
2.640000e-06	-9.923165e-07	-6.684875e-10	-6.644667e+00	-4.323582e+01
2.650000e-06	-1.056114e-06	-8.723799e-10	-7.071865e+00	-5.690230e+01
2.660000e-06	-1.119616e-06	-1.085297e-09	-7.497080e+00	-7.061863e+01
2.670000e-06	-1.182902e-06	-1.299048e-09	-7.920846e+00	-8.439681e+01
2.680000e-06	-1.245941e-06	-1.506271e-09	-8.342967e+00	-9.826020e+01
2.690000e-06	-1.308533e-06	-1.712921e-09	-8.762090e+00	-1.122062e+02
2.700000e-06	-1.370512e-06	-1.927249e-09	-9.177110e+00	-1.261808e+02
2.710000e-06	-1.431733e-06	-2.145891e-09	-9.587049e+00	-1.400845e+02
2.720000e-06	-1.492164e-06	-2.356150e-09	-9.991706e+00	-1.538105e+02
2.730000e-06	-1.551944e-06	-2.556475e-09	-1.039200e+01	-1.672925e+02
2.740000e-06	-1.611304e-06	-2.754695e-09	-1.078948e+01	-1.805314e+02
2.750000e-06	-1.670302e-06	-2.957174e-09	-1.118454e+01	-1.935828e+02
2.760000e-06	-1.728728e-06	-3.158650e-09	-1.157577e+01	-2.065094e+02
2.770000e-06	-1.786468e-06	-3.350956e-09	-1.196240e+01	-2.193271e+02
2.780000e-06	-1.843625e-06	-3.537296e-09	-1.234513e+01	-2.319793e+02
2.790000e-06	-1.900142e-06	-3.725825e-09	-1.272357e+01	-2.443544e+02
2.800000e-06	-1.955973e-06	-3.915112e-09	-1.309743e+01	-2.563375e+02
2.810000e-06	-2.011291e-06	-4.094394e-09	-1.346784e+01	-2.678642e+02
2.820000e-06	-2.065994e-06	-4.260166e-09	-1.383413e+01	-2.789439e+02
2.830000e-06	-2.119687e-06	-4.417885e-09	-1.419367e+01	-2.896417e+02
2.840000e-06	-2.172184e-06	-4.575673e-09	-1.454520e+01	-3.000314e+02
2.850000e-06	-2.223741e-06	-4.732398e-09	-1.489043e+01	-3.101526e+02
2.860000e-06	-2.274496e-06	-4.881712e-09	-1.523029e+01	-3.199951e+02
2.870000e-06	-2.324401e-06	-5.022701e-09	-1.556446e+01	-3.295172e+02
2.880000e-06	-2.373475e-06	-5.160576e-09	-1.589306e+01	-3.386790e+02
2.890000e-06	-2.421433e-06	-5.299999e-09	-1.621420e+01	-3.474670e+02
2.900000e-06	-2.468156e-06	-5.433544e-09	-1.652706e+01	-3.558941e+02
2.910000e-06	-2.514049e-06	-5.555404e-09	-1.683436e+01	-3.639817e+02
2.920000e-06	-2.559194e-06	-5.669777e-09	-1.713666e+01	-3.717407e+02
2.930000e-06	-2.603446e-06	-5.782084e-09	-1.743298e+01	-3.791690e+02
2.940000e-06	-2.646977e-06	-5.891768e-09	-1.772447e+01	-3.862667e+02
