# Temperatura_=_20.0
# Concentracion g/m^3_=_10000.0
# C_Vs_to_Am_M_A/Vsm_=_65563218390.804596
# pendiente_HvsI_1/m_=_3716.3
# ordenada_HvsI_A/m_=_1297.0
# frecuencia_Hz_=_301058.7897805275

Tiempo_(s)	Campo_(V.s)	Magnetizacion_(V.s)	Campo_(kA/m)	Magnetizacion_(A/m)
0.000000e+00	-3.508721e-06	-1.484318e-11	-2.346410e+01	-3.242028e+00
1.000000e-08	-3.508258e-06	-1.214055e-11	-2.346101e+01	-3.063464e+00
2.000000e-08	-3.506692e-06	-1.066966e-11	-2.345053e+01	-2.911166e+00
3.000000e-08	-3.503630e-06	-1.307202e-11	-2.343006e+01	-2.835008e+00
4.000000e-08	-3.499301e-06	-1.928927e-11	-2.340111e+01	-2.862350e+00
5.000000e-08	-3.494011e-06	-2.348741e-11	-2.336573e+01	-2.989984e+00
6.000000e-08	-3.487633e-06	-2.425696e-11	-2.332308e+01	-3.178616e+00
7.000000e-08	-3.480140e-06	-1.229230e-11	-2.327298e+01	-3.358367e+00
8.000000e-08	-3.471623e-06	8.848839e-12	-2.321601e+01	-3.452274e+00
9.000000e-08	-3.461680e-06	-5.110624e-11	-2.314952e+01	-3.412917e+00
1.000000e-07	-3.449770e-06	-9.785826e-11	-2.306988e+01	-3.253438e+00
1.100000e-07	-3.436144e-06	-7.265298e-11	-2.297876e+01	-3.050935e+00
1.200000e-07	-3.421356e-06	1.024374e-10	-2.287987e+01	-2.913258e+00
1.300000e-07	-3.405576e-06	1.164097e-10	-2.277433e+01	-2.923046e+00
1.400000e-07	-3.388521e-06	-1.596741e-10	-2.266028e+01	-3.089763e+00
1.500000e-07	-3.370186e-06	-1.218668e-10	-2.253767e+01	-3.338653e+00
1.600000e-07	-3.350967e-06	1.548077e-10	-2.240915e+01	-3.544471e+00
1.700000e-07	-3.330802e-06	-4.644302e-11	-2.227430e+01	-3.590953e+00
1.800000e-07	-3.309304e-06	-1.627562e-10	-2.213053e+01	-3.422260e+00
1.900000e-07	-3.286853e-06	1.380978e-10	-2.198039e+01	-3.059588e+00
2.000000e-07	-3.263681e-06	-8.346767e-11	-2.182543e+01	-2.579281e+00
2.100000e-07	-3.239204e-06	-1.784350e-10	-2.166174e+01	-2.071708e+00
2.200000e-07	-3.213230e-06	1.775385e-10	-2.148805e+01	-1.607555e+00
2.300000e-07	-3.186052e-06	3.665618e-11	-2.130630e+01	-1.227012e+00
2.400000e-07	-3.157808e-06	-1.851267e-10	-2.111742e+01	-9.478995e-01
2.500000e-07	-3.128440e-06	1.042428e-11	-2.092103e+01	-7.765594e-01
2.600000e-07	-3.097899e-06	2.133859e-11	-2.071679e+01	-7.085211e-01
2.700000e-07	-3.066261e-06	-5.223112e-12	-2.050521e+01	-7.201640e-01
2.800000e-07	-3.033859e-06	2.556363e-12	-2.028853e+01	-7.645884e-01
2.900000e-07	-3.000581e-06	-1.101310e-10	-2.006598e+01	-7.839429e-01
3.000000e-07	-2.965895e-06	-3.627768e-12	-1.983403e+01	-7.368365e-01
3.100000e-07	-2.929883e-06	6.155943e-11	-1.959320e+01	-6.243384e-01
3.200000e-07	-2.892788e-06	-5.073230e-11	-1.934514e+01	-4.944672e-01
3.300000e-07	-2.854733e-06	-3.811308e-11	-1.909065e+01	-4.173814e-01
3.400000e-07	-2.815782e-06	-3.193993e-11	-1.883017e+01	-4.435789e-01
3.500000e-07	-2.775901e-06	-6.702467e-11	-1.856347e+01	-5.706275e-01
3.600000e-07	-2.735227e-06	5.261846e-11	-1.829146e+01	-7.401017e-01
3.700000e-07	-2.693623e-06	1.567470e-12	-1.801324e+01	-8.675841e-01
3.800000e-07	-2.650739e-06	-1.186781e-10	-1.772647e+01	-8.876674e-01
3.900000e-07	-2.606640e-06	-4.172962e-11	-1.743156e+01	-7.871242e-01
4.000000e-07	-2.561604e-06	3.258507e-11	-1.713039e+01	-6.081490e-01
4.100000e-07	-2.515726e-06	-1.348976e-12	-1.682358e+01	-4.229443e-01
4.200000e-07	-2.469036e-06	-6.430897e-11	-1.651135e+01	-2.973378e-01
4.300000e-07	-2.421475e-06	-4.833461e-11	-1.619329e+01	-2.643451e-01
4.400000e-07	-2.373059e-06	-1.395842e-11	-1.586952e+01	-3.185596e-01
4.500000e-07	-2.323732e-06	2.372743e-11	-1.553965e+01	-4.278813e-01
4.600000e-07	-2.273235e-06	-1.376064e-11	-1.520196e+01	-5.507886e-01
4.700000e-07	-2.221575e-06	-6.892518e-11	-1.485649e+01	-6.492354e-01
4.800000e-07	-2.168974e-06	-4.932217e-11	-1.450472e+01	-6.951283e-01
4.900000e-07	-2.115491e-06	1.623191e-12	-1.414706e+01	-6.742524e-01
5.000000e-07	-2.061247e-06	6.733083e-12	-1.378432e+01	-5.907887e-01
5.100000e-07	-2.006383e-06	-3.721005e-11	-1.341742e+01	-4.702468e-01
5.200000e-07	-1.950865e-06	-5.890234e-11	-1.304615e+01	-3.550804e-01
5.300000e-07	-1.894766e-06	-3.018674e-11	-1.267099e+01	-2.900358e-01
5.400000e-07	-1.838180e-06	2.243882e-11	-1.229259e+01	-3.019642e-01
5.500000e-07	-1.780952e-06	-1.393102e-11	-1.190988e+01	-3.850391e-01
5.600000e-07	-1.722820e-06	-5.844544e-11	-1.152113e+01	-5.011812e-01
5.700000e-07	-1.663737e-06	-4.598575e-11	-1.112602e+01	-5.968450e-01
5.800000e-07	-1.603888e-06	-4.774273e-12	-1.072579e+01	-6.271024e-01
5.900000e-07	-1.543599e-06	1.621129e-12	-1.032261e+01	-5.736907e-01
6.000000e-07	-1.483035e-06	-3.659888e-11	-9.917602e+00	-4.483803e-01
6.100000e-07	-1.422050e-06	-5.445506e-11	-9.509771e+00	-2.828854e-01
6.200000e-07	-1.360446e-06	-3.384490e-11	-9.097798e+00	-1.140656e-01
6.300000e-07	-1.298302e-06	1.077143e-11	-8.682223e+00	2.680838e-02
6.400000e-07	-1.235808e-06	3.313051e-12	-8.264299e+00	1.182311e-01
6.500000e-07	-1.172946e-06	-3.219913e-11	-7.843921e+00	1.499550e-01
6.600000e-07	-1.109610e-06	-3.796504e-11	-7.420367e+00	1.263429e-01
6.700000e-07	-1.045810e-06	-3.768509e-12	-6.993717e+00	7.080984e-02
6.800000e-07	-9.816684e-07	1.038390e-11	-6.564777e+00	2.478133e-02
6.900000e-07	-9.172815e-07	-2.039638e-11	-6.134198e+00	3.485721e-02
7.000000e-07	-8.527677e-07	-4.385203e-11	-5.702770e+00	1.297872e-01
7.100000e-07	-7.880781e-07	-2.438769e-11	-5.270167e+00	2.990404e-01
7.200000e-07	-7.231347e-07	1.375734e-11	-4.835867e+00	4.885308e-01
7.300000e-07	-6.579764e-07	9.346120e-12	-4.400130e+00	6.215311e-01
7.400000e-07	-5.924660e-07	-1.770471e-11	-3.962038e+00	6.373729e-01
7.500000e-07	-5.266582e-07	-2.839987e-11	-3.521957e+00	5.272943e-01
7.600000e-07	-4.604685e-07	-7.455154e-12	-3.079322e+00	3.455433e-01
7.700000e-07	-3.938626e-07	3.925385e-12	-2.633903e+00	1.867586e-01
7.800000e-07	-3.271017e-07	-1.441421e-11	-2.187449e+00	1.402373e-01
7.900000e-07	-2.601770e-07	-3.393024e-11	-1.739899e+00	2.456214e-01
8.000000e-07	-1.930547e-07	-2.357082e-11	-1.291028e+00	4.739406e-01
8.100000e-07	-1.257404e-07	9.942743e-12	-8.408724e-01	7.433831e-01
8.200000e-07	-5.831528e-08	1.575156e-11	-3.899757e-01	9.598917e-01
8.300000e-07	9.033412e-09	-5.044359e-12	6.040974e-02	1.060330e+00
8.400000e-07	7.626209e-08	-2.037591e-11	5.099926e-01	1.036922e+00
8.500000e-07	1.435698e-07	-5.271072e-12	9.601041e-01	9.337964e-01
8.600000e-07	2.109005e-07	9.492039e-12	1.410369e+00	8.213946e-01
8.700000e-07	2.780505e-07	-7.599525e-13	1.859426e+00	7.638844e-01
8.800000e-07	3.450027e-07	-1.750480e-11	2.307160e+00	7.948345e-01
8.900000e-07	4.117124e-07	-1.256762e-11	2.753272e+00	9.095597e-01
9.000000e-07	4.782268e-07	1.306182e-11	3.198078e+00	1.073809e+00
9.100000e-07	5.445002e-07	2.196081e-11	3.641273e+00	1.242192e+00
9.200000e-07	6.103371e-07	6.411431e-12	4.081548e+00	1.377497e+00
9.300000e-07	6.756942e-07	-8.373343e-12	4.518615e+00	1.463317e+00
9.400000e-07	7.407446e-07	3.761595e-12	4.953631e+00	1.505846e+00
9.500000e-07	8.056072e-07	2.133567e-11	5.387391e+00	1.525469e+00
9.600000e-07	8.702435e-07	1.845976e-11	5.819638e+00	1.543320e+00
9.700000e-07	9.346429e-07	3.513643e-12	6.250300e+00	1.570450e+00
9.800000e-07	9.988544e-07	3.290417e-12	6.679706e+00	1.605595e+00
9.900000e-07	1.062901e-06	2.265708e-11	7.108012e+00	1.642029e+00
1.000000e-06	1.126670e-06	3.105629e-11	7.534455e+00	1.677502e+00
1.010000e-06	1.189995e-06	1.879430e-11	7.957933e+00	1.718635e+00
1.020000e-06	1.252778e-06	6.951680e-12	8.377786e+00	1.775041e+00
1.030000e-06	1.315194e-06	1.710637e-11	8.795188e+00	1.846878e+00
1.040000e-06	1.377351e-06	3.375452e-11	9.210852e+00	1.916451e+00
1.050000e-06	1.439052e-06	3.314463e-11	9.623467e+00	1.953594e+00
1.060000e-06	1.500138e-06	1.782935e-11	1.003197e+01	1.935113e+00
1.070000e-06	1.560704e-06	1.235431e-11	1.043700e+01	1.866582e+00
1.080000e-06	1.620983e-06	2.456730e-11	1.084011e+01	1.789652e+00
1.090000e-06	1.680940e-06	3.440860e-11	1.124106e+01	1.765242e+00
1.100000e-06	1.740173e-06	2.802314e-11	1.163718e+01	1.839164e+00
1.110000e-06	1.798236e-06	1.953858e-11	1.202546e+01	2.010886e+00
1.120000e-06	1.855230e-06	2.940878e-11	1.240661e+01	2.227224e+00
1.130000e-06	1.911674e-06	4.626791e-11	1.278407e+01	2.408247e+00
1.140000e-06	1.967797e-06	4.573875e-11	1.315938e+01	2.491467e+00
1.150000e-06	2.023301e-06	2.981385e-11	1.353056e+01	2.467078e+00
1.160000e-06	2.077966e-06	2.383585e-11	1.389612e+01	2.381734e+00
1.170000e-06	2.131963e-06	3.474324e-11	1.425722e+01	2.308645e+00
1.180000e-06	2.185268e-06	4.432023e-11	1.461369e+01	2.303847e+00
1.190000e-06	2.237735e-06	3.961389e-11	1.496456e+01	2.376981e+00
1.200000e-06	2.289151e-06	3.202781e-11	1.530839e+01	2.493753e+00
1.210000e-06	2.339268e-06	3.835016e-11	1.564355e+01	2.604758e+00
1.220000e-06	2.388223e-06	5.168129e-11	1.597092e+01	2.677860e+00
1.230000e-06	2.436352e-06	5.307418e-11	1.629278e+01	2.711326e+00
1.240000e-06	2.483792e-06	4.115554e-11	1.661003e+01	2.721662e+00
1.250000e-06	2.530455e-06	3.407926e-11	1.692208e+01	2.720245e+00
1.260000e-06	2.576224e-06	4.150853e-11	1.722816e+01	2.700729e+00
1.270000e-06	2.621086e-06	4.907173e-11	1.752816e+01	2.648883e+00
1.280000e-06	2.665303e-06	4.470046e-11	1.782386e+01	2.566351e+00
1.290000e-06	2.708671e-06	3.598633e-11	1.811388e+01	2.486245e+00
1.300000e-06	2.750700e-06	3.842767e-11	1.839494e+01	2.462907e+00
1.310000e-06	2.791509e-06	4.822209e-11	1.866785e+01	2.538068e+00
1.320000e-06	2.831442e-06	5.310586e-11	1.893489e+01	2.705934e+00
1.330000e-06	2.870516e-06	4.843464e-11	1.919619e+01	2.904276e+00
1.340000e-06	2.908606e-06	4.438650e-11	1.945092e+01	3.042599e+00
1.350000e-06	2.945746e-06	4.973633e-11	1.969929e+01	3.052702e+00
1.360000e-06	2.982000e-06	5.464711e-11	1.994173e+01	2.930089e+00
1.370000e-06	3.017173e-06	5.021752e-11	2.017694e+01	2.739243e+00
1.380000e-06	3.050956e-06	3.987116e-11	2.040286e+01	2.579050e+00
1.390000e-06	3.083582e-06	3.838211e-11	2.062104e+01	2.530225e+00
1.400000e-06	3.115232e-06	4.674447e-11	2.083270e+01	2.616728e+00
1.410000e-06	3.145829e-06	5.244497e-11	2.103731e+01	2.801734e+00
1.420000e-06	3.175419e-06	5.014637e-11	2.123519e+01	3.014941e+00
1.430000e-06	3.204088e-06	4.852861e-11	2.142691e+01	3.189469e+00
1.440000e-06	3.231797e-06	5.317591e-11	2.161221e+01	3.285525e+00
1.450000e-06	3.258055e-06	5.701984e-11	2.178781e+01	3.292684e+00
1.460000e-06	3.282872e-06	5.382682e-11	2.195377e+01	3.219862e+00
1.470000e-06	3.306614e-06	4.692191e-11	2.211254e+01	3.088017e+00
1.480000e-06	3.329270e-06	4.487411e-11	2.226405e+01	2.931913e+00
1.490000e-06	3.350801e-06	4.951382e-11	2.240803e+01	2.803177e+00
1.500000e-06	3.371371e-06	5.208794e-11	2.254560e+01	2.761103e+00
1.510000e-06	3.390914e-06	4.896957e-11	2.267629e+01	2.846570e+00
1.520000e-06	3.409111e-06	4.727361e-11	2.279797e+01	3.051488e+00
1.530000e-06	3.426053e-06	5.092482e-11	2.291128e+01	3.306697e+00
1.540000e-06	3.441776e-06	5.658345e-11	2.301642e+01	3.504367e+00
1.550000e-06	3.456154e-06	5.685236e-11	2.311257e+01	3.549273e+00
1.560000e-06	3.469273e-06	5.151558e-11	2.320030e+01	3.411582e+00
1.570000e-06	3.481111e-06	4.836318e-11	2.327947e+01	3.148583e+00
1.580000e-06	3.491328e-06	4.936159e-11	2.334779e+01	2.879495e+00
1.590000e-06	3.500082e-06	4.936888e-11	2.340633e+01	2.725949e+00
1.600000e-06	3.507687e-06	4.583612e-11	2.345719e+01	2.751859e+00
1.610000e-06	3.514103e-06	4.329514e-11	2.350009e+01	2.936071e+00
1.620000e-06	3.519391e-06	4.726947e-11	2.353546e+01	3.190198e+00
1.630000e-06	3.523677e-06	5.403783e-11	2.356412e+01	3.407076e+00
1.640000e-06	3.526627e-06	5.887873e-11	2.358385e+01	3.510129e+00
1.650000e-06	3.528021e-06	5.773532e-11	2.359317e+01	3.478821e+00
1.660000e-06	3.528265e-06	5.562839e-11	2.359480e+01	3.344111e+00
1.670000e-06	3.527426e-06	5.281302e-11	2.358919e+01	3.165533e+00
1.680000e-06	3.525414e-06	4.850541e-11	2.357574e+01	3.006891e+00
1.690000e-06	3.522398e-06	4.390390e-11	2.355556e+01	2.919981e+00
1.700000e-06	3.518474e-06	4.011360e-11	2.352932e+01	2.934960e+00
1.710000e-06	3.513208e-06	4.230687e-11	2.349411e+01	3.052259e+00
1.720000e-06	3.506474e-06	5.001375e-11	2.344908e+01	3.236466e+00
1.730000e-06	3.498733e-06	7.651333e-11	2.339731e+01	3.420187e+00
1.740000e-06	3.490068e-06	8.891796e-11	2.333936e+01	3.525579e+00
1.750000e-06	3.480162e-06	-1.538128e-11	2.327312e+01	3.500275e+00
1.760000e-06	3.468177e-06	-4.182078e-11	2.319297e+01	3.350133e+00
1.770000e-06	3.453826e-06	4.133803e-11	2.309700e+01	3.146370e+00
1.780000e-06	3.438277e-06	2.122487e-10	2.299302e+01	2.996040e+00
1.790000e-06	3.422625e-06	7.531331e-11	2.288835e+01	2.987206e+00
1.800000e-06	3.406415e-06	-1.913808e-10	2.277995e+01	3.138514e+00
1.810000e-06	3.388510e-06	1.593082e-10	2.266021e+01	3.383338e+00
1.820000e-06	3.369320e-06	1.611977e-10	2.253188e+01	3.599186e+00
1.830000e-06	3.349646e-06	-1.198476e-10	2.240031e+01	3.665943e+00
1.840000e-06	3.328505e-06	1.552839e-10	2.225894e+01	3.519763e+00
1.850000e-06	3.305550e-06	1.798301e-10	2.210543e+01	3.174052e+00
1.860000e-06	3.281787e-06	-1.682103e-10	2.194651e+01	2.701104e+00
1.870000e-06	3.257062e-06	8.456344e-11	2.178117e+01	2.191724e+00
1.880000e-06	3.230916e-06	2.757860e-10	2.160632e+01	1.719662e+00
1.890000e-06	3.203734e-06	-1.230548e-10	2.142455e+01	1.328203e+00
1.900000e-06	3.175377e-06	-8.062257e-11	2.123491e+01	1.036948e+00
1.910000e-06	3.145652e-06	9.477723e-11	2.103613e+01	8.532071e-01
1.920000e-06	3.114818e-06	-2.236147e-11	2.082993e+01	7.739944e-01
1.930000e-06	3.082740e-06	6.486371e-11	2.061541e+01	7.781451e-01
1.940000e-06	3.049662e-06	-4.079118e-11	2.039421e+01	8.210045e-01
1.950000e-06	3.015826e-06	-1.171078e-10	2.016794e+01	8.447536e-01
1.960000e-06	2.981000e-06	1.575906e-10	1.993504e+01	8.047858e-01
1.970000e-06	2.945370e-06	2.694708e-12	1.969677e+01	6.968946e-01
1.980000e-06	2.908668e-06	-7.751309e-11	1.945133e+01	5.647702e-01
1.990000e-06	2.870367e-06	5.485210e-11	1.919520e+01	4.780903e-01
2.000000e-06	2.830979e-06	-9.242937e-11	1.893179e+01	4.914279e-01
2.010000e-06	2.790791e-06	1.815636e-11	1.866305e+01	6.088073e-01
2.020000e-06	2.749610e-06	1.165606e-10	1.838765e+01	7.768622e-01
2.030000e-06	2.707518e-06	-8.366748e-11	1.810617e+01	9.118483e-01
2.040000e-06	2.664571e-06	-4.256941e-11	1.781897e+01	9.443171e-01
2.050000e-06	2.620946e-06	3.878839e-11	1.752723e+01	8.547040e-01
2.060000e-06	2.576422e-06	3.128635e-11	1.722948e+01	6.800827e-01
2.070000e-06	2.530653e-06	1.306469e-11	1.692340e+01	4.911774e-01
2.080000e-06	2.484080e-06	-8.604726e-11	1.661195e+01	3.560812e-01
2.090000e-06	2.436730e-06	-1.121732e-11	1.629531e+01	3.119790e-01
2.100000e-06	2.388375e-06	3.443927e-11	1.597194e+01	3.572391e-01
2.110000e-06	2.339106e-06	5.141504e-12	1.564246e+01	4.617879e-01
2.120000e-06	2.288905e-06	2.411613e-12	1.530675e+01	5.843717e-01
2.130000e-06	2.237960e-06	-5.627500e-11	1.496606e+01	6.861705e-01
2.140000e-06	2.186181e-06	1.139268e-11	1.461979e+01	7.378325e-01
2.150000e-06	2.133291e-06	3.698699e-11	1.426610e+01	7.234528e-01
2.160000e-06	2.079246e-06	4.300757e-13	1.390468e+01	6.450287e-01
2.170000e-06	2.024279e-06	-2.022032e-11	1.353710e+01	5.258187e-01
2.180000e-06	1.968788e-06	-5.094448e-11	1.316601e+01	4.069900e-01
2.190000e-06	1.912786e-06	2.325861e-11	1.279150e+01	3.339901e-01
2.200000e-06	1.856075e-06	3.188478e-11	1.241225e+01	3.364915e-01
2.210000e-06	1.798708e-06	-2.947446e-11	1.202862e+01	4.124655e-01
2.220000e-06	1.740696e-06	-2.459831e-11	1.164067e+01	5.267297e-01
2.230000e-06	1.682033e-06	-4.733357e-12	1.124837e+01	6.262605e-01
2.240000e-06	1.622918e-06	3.245244e-11	1.085305e+01	6.641341e-01
2.250000e-06	1.563460e-06	1.679123e-11	1.045543e+01	6.187843e-01
2.260000e-06	1.503511e-06	-3.305084e-11	1.005453e+01	4.990660e-01
2.270000e-06	1.442864e-06	-2.292755e-11	9.648960e+00	3.352686e-01
2.280000e-06	1.381435e-06	-5.445057e-12	9.238160e+00	1.643344e-01
2.290000e-06	1.319208e-06	2.043110e-11	8.822029e+00	1.843183e-02
2.300000e-06	1.256398e-06	-8.987823e-12	8.401993e+00	-7.981689e-02
2.310000e-06	1.193233e-06	-4.294943e-11	7.979588e+00	-1.188491e-01
2.320000e-06	1.129819e-06	-1.044559e-11	7.555511e+00	-1.012284e-01
2.330000e-06	1.066153e-06	1.416961e-11	7.129754e+00	-4.821312e-02
2.340000e-06	1.002090e-06	1.445294e-11	6.701341e+00	3.196216e-04
2.350000e-06	9.375942e-07	-2.820494e-11	6.270036e+00	-2.664173e-03
2.360000e-06	8.727396e-07	-3.651944e-11	5.836330e+00	-8.901480e-02
2.370000e-06	8.075907e-07	-4.047944e-12	5.400655e+00	-2.530302e-01
2.380000e-06	7.421969e-07	3.139101e-12	4.963343e+00	-4.447330e-01
2.390000e-06	6.765984e-07	-1.467661e-11	4.524662e+00	-5.881440e-01
2.400000e-06	6.108463e-07	-3.896999e-11	4.084954e+00	-6.189045e-01
2.410000e-06	5.448791e-07	-2.538441e-11	3.643806e+00	-5.215828e-01
2.420000e-06	4.786852e-07	1.677149e-12	3.201144e+00	-3.441825e-01
2.430000e-06	4.122799e-07	2.796273e-12	2.757067e+00	-1.789707e-01
2.440000e-06	3.457869e-07	-2.185349e-11	2.312404e+00	-1.181917e-01
2.450000e-06	2.792412e-07	-3.621481e-11	1.867388e+00	-2.083087e-01
2.460000e-06	2.125550e-07	-1.565114e-11	1.421434e+00	-4.275430e-01
2.470000e-06	1.457392e-07	2.647223e-12	9.746113e-01	-6.980771e-01
2.480000e-06	7.891633e-08	-1.332535e-11	5.277425e-01	-9.249418e-01
2.490000e-06	1.213600e-08	-3.931534e-11	8.115790e-02	-1.040056e+00
2.500000e-06	-5.466284e-08	-3.835171e-11	-3.655505e-01	-1.029387e+00
2.510000e-06	-1.214147e-07	-1.453062e-11	-8.119449e-01	-9.324427e-01
2.520000e-06	-1.881392e-07	-6.685106e-12	-1.258156e+00	-8.184228e-01
2.530000e-06	-2.548149e-07	-2.501993e-11	-1.704041e+00	-7.535788e-01
2.540000e-06	-3.214430e-07	-3.414199e-11	-2.149607e+00	-7.754442e-01
2.550000e-06	-3.879533e-07	-2.250794e-11	-2.594386e+00	-8.832658e-01
2.560000e-06	-4.542502e-07	-7.440146e-12	-3.037738e+00	-1.045178e+00
2.570000e-06	-5.202731e-07	-1.495527e-11	-3.479257e+00	-1.216003e+00
2.580000e-06	-5.860444e-07	-3.724867e-11	-3.919094e+00	-1.356881e+00
2.590000e-06	-6.516416e-07	-4.022489e-11	-4.357767e+00	-1.448887e+00
2.600000e-06	-7.170303e-07	-2.359451e-11	-4.795045e+00	-1.496045e+00
2.610000e-06	-7.822388e-07	-1.549480e-11	-5.231118e+00	-1.517833e+00
2.620000e-06	-8.471943e-07	-2.946445e-11	-5.665499e+00	-1.535934e+00
2.630000e-06	-9.118223e-07	-4.041417e-11	-6.097691e+00	-1.562765e+00
2.640000e-06	-9.761205e-07	-3.049276e-11	-6.527676e+00	-1.598185e+00
2.650000e-06	-1.040039e-06	-1.334810e-11	-6.955123e+00	-1.635559e+00
2.660000e-06	-1.103613e-06	-1.565330e-11	-7.380267e+00	-1.671784e+00
2.670000e-06	-1.166944e-06	-3.081914e-11	-7.803784e+00	-1.712630e+00
2.680000e-06	-1.230074e-06	-3.407549e-11	-8.225958e+00	-1.767941e+00
2.690000e-06	-1.292798e-06	-2.317255e-11	-8.645415e+00	-1.839464e+00
2.700000e-06	-1.354892e-06	-1.485774e-11	-9.060660e+00	-1.911448e+00
2.710000e-06	-1.416225e-06	-2.279502e-11	-9.470814e+00	-1.954322e+00
2.720000e-06	-1.476774e-06	-3.276570e-11	-9.875731e+00	-1.943002e+00
2.730000e-06	-1.536712e-06	-2.834286e-11	-1.027656e+01	-1.879247e+00
2.740000e-06	-1.596196e-06	-1.346004e-11	-1.067435e+01	-1.801212e+00
2.750000e-06	-1.655295e-06	-1.170941e-11	-1.106956e+01	-1.769223e+00
2.760000e-06	-1.713903e-06	-2.478138e-11	-1.146150e+01	-1.832470e+00
2.770000e-06	-1.771880e-06	-3.141586e-11	-1.184921e+01	-1.996261e+00
2.780000e-06	-1.829244e-06	-2.399895e-11	-1.223282e+01	-2.212338e+00
2.790000e-06	-1.886031e-06	-1.704378e-11	-1.261258e+01	-2.401638e+00
2.800000e-06	-1.942108e-06	-2.407032e-11	-1.298759e+01	-2.497722e+00
2.810000e-06	-1.997579e-06	-3.363952e-11	-1.335855e+01	-2.484297e+00
2.820000e-06	-2.052607e-06	-3.408063e-11	-1.372654e+01	-2.402908e+00
2.830000e-06	-2.106753e-06	-2.365730e-11	-1.408863e+01	-2.326004e+00
2.840000e-06	-2.159647e-06	-1.695978e-11	-1.444235e+01	-2.313330e+00
2.850000e-06	-2.211482e-06	-2.308452e-11	-1.478899e+01	-2.379979e+00
2.860000e-06	-2.262533e-06	-3.045849e-11	-1.513039e+01	-2.495298e+00
2.870000e-06	-2.312756e-06	-2.754294e-11	-1.546625e+01	-2.609789e+00
2.880000e-06	-2.362091e-06	-1.877319e-11	-1.579617e+01	-2.688369e+00
2.890000e-06	-2.410381e-06	-2.035358e-11	-1.611910e+01	-2.726242e+00
2.900000e-06	-2.457391e-06	-3.001640e-11	-1.643348e+01	-2.739067e+00
2.910000e-06	-2.503426e-06	-3.270969e-11	-1.674133e+01	-2.739722e+00
2.920000e-06	-2.548737e-06	-2.441773e-11	-1.704434e+01	-2.723691e+00
2.930000e-06	-2.593159e-06	-1.907404e-11	-1.734141e+01	-2.676532e+00
2.940000e-06	-2.636813e-06	-2.280226e-11	-1.763333e+01	-2.597101e+00
