# Temperatura_=_20.0
# Concentracion g/m^3_=_10000.0
# C_Vs_to_Am_M_A/Vsm_=_65563218390.804596
# pendiente_HvsI_1/m_=_3716.3
# ordenada_HvsI_A/m_=_1297.0
# frecuencia_Hz_=_301040.21400962677

Tiempo_(s)	Campo_(V.s)	Magnetizacion_(V.s)	Campo_(kA/m)	Magnetizacion_(A/m)
0.000000e+00	-3.512592e-06	-7.572310e-09	-2.347111e+01	-4.963302e+02
1.000000e-08	-3.511918e-06	-7.573420e-09	-2.346661e+01	-4.963974e+02
2.000000e-08	-3.510097e-06	-7.574487e-09	-2.345444e+01	-4.963062e+02
3.000000e-08	-3.506783e-06	-7.574720e-09	-2.343230e+01	-4.960822e+02
4.000000e-08	-3.502295e-06	-7.571293e-09	-2.340231e+01	-4.957701e+02
5.000000e-08	-3.496836e-06	-7.564428e-09	-2.336584e+01	-4.954201e+02
6.000000e-08	-3.490231e-06	-7.556274e-09	-2.332170e+01	-4.950621e+02
7.000000e-08	-3.482519e-06	-7.540613e-09	-2.327017e+01	-4.946822e+02
8.000000e-08	-3.473749e-06	-7.530951e-09	-2.321157e+01	-4.942224e+02
9.000000e-08	-3.463468e-06	-7.562444e-09	-2.314287e+01	-4.936102e+02
1.000000e-07	-3.451249e-06	-7.571515e-09	-2.306122e+01	-4.928014e+02
1.100000e-07	-3.437423e-06	-7.531404e-09	-2.296884e+01	-4.918124e+02
1.200000e-07	-3.422483e-06	-7.410287e-09	-2.286900e+01	-4.907157e+02
1.300000e-07	-3.406420e-06	-7.419995e-09	-2.276167e+01	-4.896030e+02
1.400000e-07	-3.389079e-06	-7.559509e-09	-2.264580e+01	-4.885340e+02
1.500000e-07	-3.370594e-06	-7.439411e-09	-2.252228e+01	-4.875064e+02
1.600000e-07	-3.351222e-06	-7.330922e-09	-2.239284e+01	-4.864629e+02
1.700000e-07	-3.330773e-06	-7.439948e-09	-2.225620e+01	-4.853308e+02
1.800000e-07	-3.309019e-06	-7.402723e-09	-2.211084e+01	-4.840653e+02
1.900000e-07	-3.286408e-06	-7.289263e-09	-2.195975e+01	-4.826689e+02
2.000000e-07	-3.262991e-06	-7.399837e-09	-2.180328e+01	-4.811758e+02
2.100000e-07	-3.238222e-06	-7.350791e-09	-2.163778e+01	-4.796145e+02
2.200000e-07	-3.211969e-06	-7.165366e-09	-2.146235e+01	-4.779770e+02
2.300000e-07	-3.184474e-06	-7.258280e-09	-2.127863e+01	-4.762175e+02
2.400000e-07	-3.155908e-06	-7.296749e-09	-2.108775e+01	-4.742812e+02
2.500000e-07	-3.126303e-06	-7.169155e-09	-2.088994e+01	-4.721430e+02
2.600000e-07	-3.095567e-06	-7.134730e-09	-2.068456e+01	-4.698288e+02
2.700000e-07	-3.063755e-06	-7.095251e-09	-2.047199e+01	-4.674039e+02
2.800000e-07	-3.031164e-06	-7.080440e-09	-2.025421e+01	-4.649342e+02
2.900000e-07	-2.997574e-06	-7.107212e-09	-2.002977e+01	-4.624459e+02
3.000000e-07	-2.962574e-06	-6.984542e-09	-1.979590e+01	-4.599086e+02
3.100000e-07	-2.926344e-06	-6.923938e-09	-1.955381e+01	-4.572531e+02
3.200000e-07	-2.889124e-06	-6.946847e-09	-1.930510e+01	-4.544138e+02
3.300000e-07	-2.850961e-06	-6.882484e-09	-1.905010e+01	-4.513698e+02
3.400000e-07	-2.811796e-06	-6.832452e-09	-1.878840e+01	-4.481594e+02
3.500000e-07	-2.771681e-06	-6.784305e-09	-1.852035e+01	-4.448615e+02
3.600000e-07	-2.730802e-06	-6.687866e-09	-1.824720e+01	-4.415517e+02
3.700000e-07	-2.688958e-06	-6.677051e-09	-1.796760e+01	-4.382595e+02
3.800000e-07	-2.645786e-06	-6.692898e-09	-1.767912e+01	-4.349499e+02
3.900000e-07	-2.601399e-06	-6.583796e-09	-1.738253e+01	-4.315384e+02
4.000000e-07	-2.556106e-06	-6.481109e-09	-1.707988e+01	-4.279337e+02
4.100000e-07	-2.510051e-06	-6.449376e-09	-1.677214e+01	-4.240829e+02
4.200000e-07	-2.463206e-06	-6.424257e-09	-1.645912e+01	-4.199985e+02
4.300000e-07	-2.415476e-06	-6.351491e-09	-1.614019e+01	-4.157519e+02
4.400000e-07	-2.366852e-06	-6.261376e-09	-1.581529e+01	-4.114378e+02
4.500000e-07	-2.317181e-06	-6.186897e-09	-1.548338e+01	-4.071278e+02
4.600000e-07	-2.266277e-06	-6.151004e-09	-1.514324e+01	-4.028368e+02
4.700000e-07	-2.214316e-06	-6.113609e-09	-1.479604e+01	-3.985188e+02
4.800000e-07	-2.161490e-06	-6.013116e-09	-1.444306e+01	-3.940921e+02
4.900000e-07	-2.107788e-06	-5.911727e-09	-1.408422e+01	-3.894790e+02
5.000000e-07	-2.053396e-06	-5.843459e-09	-1.372078e+01	-3.846395e+02
5.100000e-07	-1.998414e-06	-5.799561e-09	-1.335339e+01	-3.795813e+02
5.200000e-07	-1.942764e-06	-5.730560e-09	-1.298153e+01	-3.743467e+02
5.300000e-07	-1.886528e-06	-5.620740e-09	-1.260577e+01	-3.689860e+02
5.400000e-07	-1.829718e-06	-5.517015e-09	-1.222616e+01	-3.635354e+02
5.500000e-07	-1.772138e-06	-5.460583e-09	-1.184141e+01	-3.580082e+02
5.600000e-07	-1.713663e-06	-5.400412e-09	-1.145069e+01	-3.524007e+02
5.700000e-07	-1.654334e-06	-5.291627e-09	-1.105425e+01	-3.466997e+02
5.800000e-07	-1.594353e-06	-5.176619e-09	-1.065346e+01	-3.408856e+02
5.900000e-07	-1.533948e-06	-5.088617e-09	-1.024983e+01	-3.349283e+02
6.000000e-07	-1.473152e-06	-5.021860e-09	-9.843589e+00	-3.287854e+02
6.100000e-07	-1.411887e-06	-4.931678e-09	-9.434219e+00	-3.224111e+02
6.200000e-07	-1.350039e-06	-4.810911e-09	-9.020952e+00	-3.157776e+02
6.300000e-07	-1.287682e-06	-4.686871e-09	-8.604280e+00	-3.088971e+02
6.400000e-07	-1.224938e-06	-4.595977e-09	-8.185030e+00	-3.018281e+02
6.500000e-07	-1.161828e-06	-4.513765e-09	-7.763324e+00	-2.946547e+02
6.600000e-07	-1.098304e-06	-4.395443e-09	-7.338858e+00	-2.874465e+02
6.700000e-07	-1.034317e-06	-4.259595e-09	-6.911297e+00	-2.802187e+02
6.800000e-07	-9.700096e-07	-4.143749e-09	-6.481597e+00	-2.729193e+02
6.900000e-07	-9.055252e-07	-4.053231e-09	-6.050713e+00	-2.654515e+02
7.000000e-07	-8.408884e-07	-3.943716e-09	-5.618811e+00	-2.577228e+02
7.100000e-07	-7.761329e-07	-3.802049e-09	-5.186114e+00	-2.496923e+02
7.200000e-07	-7.111504e-07	-3.659029e-09	-4.751902e+00	-2.413890e+02
7.300000e-07	-6.457429e-07	-3.542727e-09	-4.314849e+00	-2.328913e+02
7.400000e-07	-5.799840e-07	-3.430747e-09	-3.875449e+00	-2.242801e+02
7.500000e-07	-5.139474e-07	-3.293993e-09	-3.434193e+00	-2.155937e+02
7.600000e-07	-4.475055e-07	-3.142678e-09	-2.990229e+00	-2.068091e+02
7.700000e-07	-3.806111e-07	-3.002733e-09	-2.543240e+00	-1.978578e+02
7.800000e-07	-3.135020e-07	-2.880643e-09	-2.094818e+00	-1.886630e+02
7.900000e-07	-2.463768e-07	-2.744545e-09	-1.646288e+00	-1.791766e+02
8.000000e-07	-1.791618e-07	-2.581965e-09	-1.197158e+00	-1.693945e+02
8.100000e-07	-1.118306e-07	-2.412956e-09	-7.472512e-01	-1.593484e+02
8.200000e-07	-4.439892e-08	-2.263483e-09	-2.966733e-01	-1.490819e+02
8.300000e-07	2.305941e-08	-2.122210e-09	1.540828e-01	-1.386274e+02
8.400000e-07	9.045543e-08	-1.963064e-09	6.044225e-01	-1.279955e+02
8.500000e-07	1.578321e-07	-1.785726e-09	1.054633e+00	-1.171765e+02
8.600000e-07	2.251653e-07	-1.612124e-09	1.504553e+00	-1.061509e+02
8.700000e-07	2.923442e-07	-1.452952e-09	1.953442e+00	-9.489951e+01
8.800000e-07	3.593116e-07	-1.284224e-09	2.400918e+00	-8.340936e+01
8.900000e-07	4.260821e-07	-1.092918e-09	2.847078e+00	-7.167475e+01
9.000000e-07	4.926149e-07	-8.940008e-10	3.291649e+00	-5.969546e+01
9.100000e-07	5.587447e-07	-7.112789e-10	3.733528e+00	-4.747381e+01
9.200000e-07	6.244669e-07	-5.386592e-10	4.172683e+00	-3.501282e+01
9.300000e-07	6.898437e-07	-3.509571e-10	4.609531e+00	-2.231693e+01
9.400000e-07	7.549188e-07	-1.431167e-10	5.044362e+00	-9.396426e+00
9.500000e-07	8.197467e-07	6.480425e-11	5.477542e+00	3.726107e+00
9.600000e-07	8.843393e-07	2.606321e-10	5.909149e+00	1.701181e+01
9.700000e-07	9.487445e-07	4.590410e-10	6.339504e+00	3.040987e+01
9.800000e-07	1.012967e-06	6.733289e-10	6.768639e+00	4.387212e+01
9.900000e-07	1.076947e-06	8.936069e-10	7.196152e+00	5.737228e+01
1.000000e-06	1.140545e-06	1.098175e-09	7.621115e+00	7.091772e+01
1.010000e-06	1.203678e-06	1.291019e-09	8.042970e+00	8.454263e+01
1.020000e-06	1.266372e-06	1.493632e-09	8.461890e+00	9.828102e+01
1.030000e-06	1.328744e-06	1.713923e-09	8.878655e+00	1.121325e+02
1.040000e-06	1.390766e-06	1.935125e-09	9.293090e+00	1.260413e+02
1.050000e-06	1.452257e-06	2.141165e-09	9.703969e+00	1.399051e+02
1.060000e-06	1.513160e-06	2.341254e-09	1.011093e+01	1.536120e+02
1.070000e-06	1.573650e-06	2.548793e-09	1.051512e+01	1.670859e+02
1.080000e-06	1.633859e-06	2.761806e-09	1.091743e+01	1.803122e+02
1.090000e-06	1.693601e-06	2.963094e-09	1.131663e+01	1.933286e+02
1.100000e-06	1.752512e-06	3.149138e-09	1.171027e+01	2.061849e+02
1.110000e-06	1.810308e-06	3.334994e-09	1.209646e+01	2.188975e+02
1.120000e-06	1.867191e-06	3.532551e-09	1.247656e+01	2.314282e+02
1.130000e-06	1.923593e-06	3.728156e-09	1.285344e+01	2.436990e+02
1.140000e-06	1.979535e-06	3.907229e-09	1.322724e+01	2.556303e+02
1.150000e-06	2.034778e-06	4.074203e-09	1.359637e+01	2.671773e+02
1.160000e-06	2.089329e-06	4.242833e-09	1.396088e+01	2.783395e+02
1.170000e-06	2.143191e-06	4.415317e-09	1.432078e+01	2.891417e+02
1.180000e-06	2.196240e-06	4.576993e-09	1.467526e+01	2.996036e+02
1.190000e-06	2.248451e-06	4.724415e-09	1.502413e+01	3.097235e+02
1.200000e-06	2.299658e-06	4.867654e-09	1.536630e+01	3.194861e+02
1.210000e-06	2.349621e-06	5.017084e-09	1.570015e+01	3.288867e+02
1.220000e-06	2.398517e-06	5.164077e-09	1.602687e+01	3.379474e+02
1.230000e-06	2.446631e-06	5.295819e-09	1.634837e+01	3.467100e+02
1.240000e-06	2.493957e-06	5.414137e-09	1.666460e+01	3.552062e+02
1.250000e-06	2.540508e-06	5.535935e-09	1.697566e+01	3.634289e+02
1.260000e-06	2.586188e-06	5.665633e-09	1.728089e+01	3.713289e+02
1.270000e-06	2.631017e-06	5.787298e-09	1.758044e+01	3.788436e+02
1.280000e-06	2.675148e-06	5.891237e-09	1.787532e+01	3.859422e+02
1.290000e-06	2.718281e-06	5.988341e-09	1.816354e+01	3.926548e+02
1.300000e-06	2.760108e-06	6.090521e-09	1.844302e+01	3.990639e+02
1.310000e-06	2.800857e-06	6.192673e-09	1.871530e+01	4.052616e+02
1.320000e-06	2.840693e-06	6.283451e-09	1.898149e+01	4.112982e+02
1.330000e-06	2.879585e-06	6.363605e-09	1.924137e+01	4.171572e+02
1.340000e-06	2.917513e-06	6.444934e-09	1.949480e+01	4.227709e+02
1.350000e-06	2.954504e-06	6.530331e-09	1.974197e+01	4.280672e+02
1.360000e-06	2.990662e-06	6.610483e-09	1.998358e+01	4.330142e+02
1.370000e-06	3.025698e-06	6.677570e-09	2.021769e+01	4.376378e+02
1.380000e-06	3.059360e-06	6.737973e-09	2.044262e+01	4.420025e+02
1.390000e-06	3.091902e-06	6.802979e-09	2.066006e+01	4.461752e+02
1.400000e-06	3.123427e-06	6.870221e-09	2.087072e+01	4.501953e+02
1.410000e-06	3.153906e-06	6.930139e-09	2.107438e+01	4.540695e+02
1.420000e-06	3.183356e-06	6.981047e-09	2.127116e+01	4.577859e+02
1.430000e-06	3.211868e-06	7.031122e-09	2.146168e+01	4.613307e+02
1.440000e-06	3.239354e-06	7.085771e-09	2.164534e+01	4.646935e+02
1.450000e-06	3.265426e-06	7.138096e-09	2.181955e+01	4.678600e+02
1.460000e-06	3.290147e-06	7.180238e-09	2.198474e+01	4.708058e+02
1.470000e-06	3.313746e-06	7.214703e-09	2.214242e+01	4.735055e+02
1.480000e-06	3.336194e-06	7.251181e-09	2.229242e+01	4.759547e+02
1.490000e-06	3.357535e-06	7.291298e-09	2.243502e+01	4.781908e+02
1.500000e-06	3.377898e-06	7.325747e-09	2.257109e+01	4.802898e+02
1.510000e-06	3.397159e-06	7.351215e-09	2.269979e+01	4.823357e+02
1.520000e-06	3.415145e-06	7.375730e-09	2.281998e+01	4.843742e+02
1.530000e-06	3.431815e-06	7.406263e-09	2.293136e+01	4.863822e+02
1.540000e-06	3.447225e-06	7.438508e-09	2.303433e+01	4.882749e+02
1.550000e-06	3.461393e-06	7.464150e-09	2.312901e+01	4.899497e+02
1.560000e-06	3.474290e-06	7.482627e-09	2.321518e+01	4.913430e+02
1.570000e-06	3.485747e-06	7.500418e-09	2.329173e+01	4.924647e+02
1.580000e-06	3.495597e-06	7.519028e-09	2.335755e+01	4.933913e+02
1.590000e-06	3.504155e-06	7.533347e-09	2.341474e+01	4.942240e+02
1.600000e-06	3.511595e-06	7.542356e-09	2.346445e+01	4.950380e+02
1.610000e-06	3.517819e-06	7.550316e-09	2.350604e+01	4.958535e+02
1.620000e-06	3.522937e-06	7.562850e-09	2.354024e+01	4.966403e+02
1.630000e-06	3.526991e-06	7.577792e-09	2.356733e+01	4.973451e+02
1.640000e-06	3.529721e-06	7.587999e-09	2.358557e+01	4.979210e+02
1.650000e-06	3.531029e-06	7.591398e-09	2.359431e+01	4.983409e+02
1.660000e-06	3.531102e-06	7.593875e-09	2.359480e+01	4.985943e+02
1.670000e-06	3.530029e-06	7.595735e-09	2.358763e+01	4.986801e+02
1.680000e-06	3.527805e-06	7.594229e-09	2.357277e+01	4.986058e+02
1.690000e-06	3.524607e-06	7.587349e-09	2.355140e+01	4.983950e+02
1.700000e-06	3.520436e-06	7.579759e-09	2.352353e+01	4.980905e+02
1.710000e-06	3.514909e-06	7.576680e-09	2.348660e+01	4.977434e+02
1.720000e-06	3.507999e-06	7.577453e-09	2.344043e+01	4.973869e+02
1.730000e-06	3.500075e-06	7.590212e-09	2.338748e+01	4.970122e+02
1.740000e-06	3.491179e-06	7.566207e-09	2.332804e+01	4.965654e+02
1.750000e-06	3.480929e-06	7.505559e-09	2.325954e+01	4.959732e+02
1.760000e-06	3.468563e-06	7.480889e-09	2.317691e+01	4.951867e+02
1.770000e-06	3.454017e-06	7.551558e-09	2.307972e+01	4.942151e+02
1.780000e-06	3.438484e-06	7.593641e-09	2.297593e+01	4.931263e+02
1.790000e-06	3.422786e-06	7.467712e-09	2.287103e+01	4.920123e+02
1.800000e-06	3.406251e-06	7.389458e-09	2.276054e+01	4.909384e+02
1.810000e-06	3.388107e-06	7.532320e-09	2.263931e+01	4.899091e+02
1.820000e-06	3.368923e-06	7.472992e-09	2.251112e+01	4.888717e+02
1.830000e-06	3.349097e-06	7.340594e-09	2.237864e+01	4.877529e+02
1.840000e-06	3.327690e-06	7.487451e-09	2.223560e+01	4.865031e+02
1.850000e-06	3.304626e-06	7.405358e-09	2.208149e+01	4.851202e+02
1.860000e-06	3.280700e-06	7.238297e-09	2.192161e+01	4.836365e+02
1.870000e-06	3.255664e-06	7.424317e-09	2.175432e+01	4.820829e+02
1.880000e-06	3.229332e-06	7.427024e-09	2.157837e+01	4.804560e+02
1.890000e-06	3.201999e-06	7.206545e-09	2.139573e+01	4.787131e+02
1.900000e-06	3.173383e-06	7.270118e-09	2.120452e+01	4.767986e+02
1.910000e-06	3.143406e-06	7.285123e-09	2.100421e+01	4.746825e+02
1.920000e-06	3.112347e-06	7.203126e-09	2.079668e+01	4.723853e+02
1.930000e-06	3.080075e-06	7.216791e-09	2.058104e+01	4.699695e+02
1.940000e-06	3.046839e-06	7.087552e-09	2.035896e+01	4.675032e+02
1.950000e-06	3.012808e-06	7.052677e-09	2.013156e+01	4.650182e+02
1.960000e-06	2.977809e-06	7.140935e-09	1.989770e+01	4.624898e+02
1.970000e-06	2.941918e-06	6.990645e-09	1.965788e+01	4.598514e+02
1.980000e-06	2.904759e-06	6.932682e-09	1.940958e+01	4.570347e+02
1.990000e-06	2.866129e-06	6.958068e-09	1.915145e+01	4.540125e+02
2.000000e-06	2.826520e-06	6.846752e-09	1.888679e+01	4.508174e+02
2.010000e-06	2.786086e-06	6.861549e-09	1.861661e+01	4.475256e+02
2.020000e-06	2.744751e-06	6.820065e-09	1.834041e+01	4.442153e+02
2.030000e-06	2.702507e-06	6.674516e-09	1.805813e+01	4.409226e+02
2.040000e-06	2.659419e-06	6.643140e-09	1.777022e+01	4.376191e+02
2.050000e-06	2.615651e-06	6.636623e-09	1.747776e+01	4.342240e+02
2.060000e-06	2.570928e-06	6.600224e-09	1.717892e+01	4.306444e+02
2.070000e-06	2.525061e-06	6.508377e-09	1.687244e+01	4.268213e+02
2.080000e-06	2.478319e-06	6.418055e-09	1.656011e+01	4.227601e+02
2.090000e-06	2.430691e-06	6.396696e-09	1.624186e+01	4.185272e+02
2.100000e-06	2.382051e-06	6.340684e-09	1.591685e+01	4.142169e+02
2.110000e-06	2.332494e-06	6.255589e-09	1.558571e+01	4.099054e+02
2.120000e-06	2.282149e-06	6.162954e-09	1.524930e+01	4.056145e+02
2.130000e-06	2.231075e-06	6.085571e-09	1.490803e+01	4.013038e+02
2.140000e-06	2.179053e-06	6.069918e-09	1.456041e+01	3.968936e+02
2.150000e-06	2.125858e-06	6.001413e-09	1.420497e+01	3.923041e+02
2.160000e-06	2.071560e-06	5.903787e-09	1.384215e+01	3.874900e+02
2.170000e-06	2.016463e-06	5.815193e-09	1.347399e+01	3.824544e+02
2.180000e-06	1.960837e-06	5.737131e-09	1.310230e+01	3.772370e+02
2.190000e-06	1.904564e-06	5.696789e-09	1.272629e+01	3.718885e+02
2.200000e-06	1.847614e-06	5.596545e-09	1.234574e+01	3.664473e+02
2.210000e-06	1.790072e-06	5.483646e-09	1.196125e+01	3.609291e+02
2.220000e-06	1.731893e-06	5.406082e-09	1.157250e+01	3.553315e+02
2.230000e-06	1.673120e-06	5.337303e-09	1.117978e+01	3.496421e+02
2.240000e-06	1.613910e-06	5.265709e-09	1.078414e+01	3.438421e+02
2.250000e-06	1.554334e-06	5.153883e-09	1.038605e+01	3.379028e+02
2.260000e-06	1.494261e-06	5.043819e-09	9.984638e+00	3.317829e+02
2.270000e-06	1.433487e-06	4.958504e-09	9.578550e+00	3.254360e+02
2.280000e-06	1.371879e-06	4.874120e-09	9.166888e+00	3.188313e+02
2.290000e-06	1.309478e-06	4.772043e-09	8.749925e+00	3.119761e+02
2.300000e-06	1.246548e-06	4.638565e-09	8.329427e+00	3.049242e+02
2.310000e-06	1.183337e-06	4.521116e-09	7.907051e+00	2.977589e+02
2.320000e-06	1.119930e-06	4.435568e-09	7.483367e+00	2.905532e+02
2.330000e-06	1.056210e-06	4.338270e-09	7.057585e+00	2.833297e+02
2.340000e-06	9.920603e-07	4.214646e-09	6.628940e+00	2.760429e+02
2.350000e-06	9.275451e-07	4.080037e-09	6.197850e+00	2.685989e+02
2.360000e-06	8.626995e-07	3.973036e-09	5.764552e+00	2.609021e+02
2.370000e-06	7.975457e-07	3.873381e-09	5.329194e+00	2.529045e+02
2.380000e-06	7.321806e-07	3.743681e-09	4.892425e+00	2.446280e+02
2.390000e-06	6.666051e-07	3.597876e-09	4.454250e+00	2.361477e+02
2.400000e-06	6.007085e-07	3.459113e-09	4.013930e+00	2.275466e+02
2.410000e-06	5.345218e-07	3.342798e-09	3.571671e+00	2.188691e+02
2.420000e-06	4.682185e-07	3.219702e-09	3.128632e+00	2.100986e+02
2.430000e-06	4.017780e-07	3.071189e-09	2.684678e+00	2.011698e+02
2.440000e-06	3.351838e-07	2.914744e-09	2.239695e+00	1.920049e+02
2.450000e-06	2.685485e-07	2.772243e-09	1.794439e+00	1.825516e+02
2.460000e-06	2.018144e-07	2.641236e-09	1.348522e+00	1.728009e+02
2.470000e-06	1.349613e-07	2.493000e-09	9.018103e-01	1.627818e+02
2.480000e-06	6.808594e-08	2.324070e-09	4.549498e-01	1.525377e+02
2.490000e-06	1.194005e-09	2.155470e-09	7.978332e-03	1.421033e+02
2.500000e-06	-6.569321e-08	2.001797e-09	-4.389616e-01	1.314914e+02
2.510000e-06	-1.325228e-07	1.848686e-09	-8.855166e-01	1.206940e+02
2.520000e-06	-1.993406e-07	1.676351e-09	-1.331993e+00	1.096924e+02
2.530000e-06	-2.661307e-07	1.492378e-09	-1.778283e+00	9.846676e+01
2.540000e-06	-3.328175e-07	1.318433e-09	-2.223884e+00	8.700337e+01
2.550000e-06	-3.993722e-07	1.154652e-09	-2.668602e+00	7.529584e+01
2.560000e-06	-4.657356e-07	9.794529e-10	-3.112042e+00	6.334347e+01
2.570000e-06	-5.318426e-07	7.836435e-10	-3.553768e+00	5.114844e+01
2.580000e-06	-5.976930e-07	5.821756e-10	-3.993780e+00	3.871373e+01
2.590000e-06	-6.633247e-07	3.932670e-10	-4.432331e+00	2.604347e+01
2.600000e-06	-7.287725e-07	2.067953e-10	-4.869653e+00	1.314702e+01
2.610000e-06	-7.940419e-07	5.921724e-12	-5.305783e+00	4.535562e-02
2.620000e-06	-8.591157e-07	-2.061135e-10	-5.740605e+00	-1.322437e+01
2.630000e-06	-9.238973e-07	-4.117010e-10	-6.173475e+00	-2.661211e+01
2.640000e-06	-9.882405e-07	-6.039184e-10	-6.603416e+00	-4.006849e+01
2.650000e-06	-1.052152e-06	-8.008526e-10	-7.030474e+00	-5.356405e+01
2.660000e-06	-1.115758e-06	-1.014083e-09	-7.455487e+00	-6.710252e+01
2.670000e-06	-1.179117e-06	-1.231612e-09	-7.878853e+00	-8.071618e+01
2.680000e-06	-1.242210e-06	-1.438885e-09	-8.300441e+00	-9.444078e+01
2.690000e-06	-1.304949e-06	-1.641177e-09	-8.719658e+00	-1.082810e+02
2.700000e-06	-1.367148e-06	-1.852024e-09	-9.135272e+00	-1.221871e+02
2.710000e-06	-1.428681e-06	-2.071287e-09	-9.546437e+00	-1.360606e+02
2.720000e-06	-1.489395e-06	-2.283306e-09	-9.952126e+00	-1.497881e+02
2.730000e-06	-1.549308e-06	-2.481606e-09	-1.035246e+01	-1.632879e+02
2.740000e-06	-1.608743e-06	-2.678683e-09	-1.074961e+01	-1.765388e+02
2.750000e-06	-1.667825e-06	-2.884558e-09	-1.114440e+01	-1.895744e+02
2.760000e-06	-1.726401e-06	-3.092077e-09	-1.153580e+01	-2.024454e+02
2.770000e-06	-1.784313e-06	-3.285562e-09	-1.192277e+01	-2.151734e+02
2.780000e-06	-1.841597e-06	-3.465774e-09	-1.230554e+01	-2.277261e+02
2.790000e-06	-1.898308e-06	-3.648484e-09	-1.268448e+01	-2.400281e+02
2.800000e-06	-1.954345e-06	-3.838332e-09	-1.305892e+01	-2.519980e+02
2.810000e-06	-2.009788e-06	-4.021773e-09	-1.342939e+01	-2.635861e+02
2.820000e-06	-2.064641e-06	-4.190018e-09	-1.379592e+01	-2.747877e+02
2.830000e-06	-2.118505e-06	-4.348363e-09	-1.415584e+01	-2.856264e+02
2.840000e-06	-2.171262e-06	-4.509518e-09	-1.450836e+01	-2.961237e+02
2.850000e-06	-2.223101e-06	-4.673591e-09	-1.485475e+01	-3.062801e+02
2.860000e-06	-2.274111e-06	-4.825992e-09	-1.519559e+01	-3.160808e+02
2.870000e-06	-2.324276e-06	-4.962650e-09	-1.553079e+01	-3.255188e+02
2.880000e-06	-2.373593e-06	-5.095144e-09	-1.586033e+01	-3.346133e+02
2.890000e-06	-2.421904e-06	-5.234062e-09	-1.618315e+01	-3.434051e+02
2.900000e-06	-2.468964e-06	-5.371588e-09	-1.649760e+01	-3.519285e+02
2.910000e-06	-2.514986e-06	-5.496007e-09	-1.680512e+01	-3.601815e+02
2.920000e-06	-2.560236e-06	-5.609569e-09	-1.710748e+01	-3.681184e+02
2.930000e-06	-2.604674e-06	-5.723453e-09	-1.740441e+01	-3.756760e+02
2.940000e-06	-2.648352e-06	-5.838327e-09	-1.769627e+01	-3.828181e+02
