# Temperatura_=_20.0
# Concentracion g/m^3_=_10000.0
# C_Vs_to_Am_M_A/Vsm_=_65563218390.804596
# pendiente_HvsI_1/m_=_3716.3
# ordenada_HvsI_A/m_=_1297.0
# frecuencia_Hz_=_269407.24384515005

Tiempo_(s)	Campo_(V.s)	Magnetizacion_(V.s)	Campo_(kA/m)	Magnetizacion_(A/m)
0.000000e+00	-5.394480e-06	-9.836061e-09	-3.829354e+01	-6.417598e+02
1.000000e-08	-5.393587e-06	-9.835622e-09	-3.828720e+01	-6.417416e+02
2.000000e-08	-5.390991e-06	-9.829265e-09	-3.826877e+01	-6.415525e+02
3.000000e-08	-5.386934e-06	-9.822175e-09	-3.823997e+01	-6.412166e+02
4.000000e-08	-5.381619e-06	-9.818216e-09	-3.820225e+01	-6.407925e+02
5.000000e-08	-5.374917e-06	-9.814087e-09	-3.815467e+01	-6.403427e+02
6.000000e-08	-5.366946e-06	-9.806473e-09	-3.809808e+01	-6.399004e+02
7.000000e-08	-5.357388e-06	-9.790617e-09	-3.803023e+01	-6.394519e+02
8.000000e-08	-5.345979e-06	-9.770651e-09	-3.794925e+01	-6.389443e+02
9.000000e-08	-5.332811e-06	-9.796728e-09	-3.785577e+01	-6.383159e+02
1.000000e-07	-5.317520e-06	-9.806046e-09	-3.774722e+01	-6.375326e+02
1.100000e-07	-5.300175e-06	-9.770128e-09	-3.762410e+01	-6.366101e+02
1.200000e-07	-5.281281e-06	-9.739585e-09	-3.748998e+01	-6.356094e+02
1.300000e-07	-5.261341e-06	-9.644275e-09	-3.734843e+01	-6.346075e+02
1.400000e-07	-5.240561e-06	-9.713482e-09	-3.720092e+01	-6.336581e+02
1.500000e-07	-5.218496e-06	-9.778730e-09	-3.704429e+01	-6.327649e+02
1.600000e-07	-5.195081e-06	-9.567993e-09	-3.687807e+01	-6.318813e+02
1.700000e-07	-5.170450e-06	-9.632737e-09	-3.670323e+01	-6.309368e+02
1.800000e-07	-5.144160e-06	-9.707853e-09	-3.651661e+01	-6.298749e+02
1.900000e-07	-5.116391e-06	-9.504052e-09	-3.631948e+01	-6.286797e+02
2.000000e-07	-5.087549e-06	-9.554684e-09	-3.611474e+01	-6.273776e+02
2.100000e-07	-5.057270e-06	-9.590694e-09	-3.589980e+01	-6.260113e+02
2.200000e-07	-5.025608e-06	-9.436799e-09	-3.567504e+01	-6.246045e+02
2.300000e-07	-4.992655e-06	-9.509591e-09	-3.544112e+01	-6.231360e+02
2.400000e-07	-4.958054e-06	-9.518244e-09	-3.519550e+01	-6.215435e+02
2.500000e-07	-4.921941e-06	-9.394988e-09	-3.493915e+01	-6.197532e+02
2.600000e-07	-4.884502e-06	-9.421825e-09	-3.467338e+01	-6.177224e+02
2.700000e-07	-4.845611e-06	-9.357623e-09	-3.439731e+01	-6.154686e+02
2.800000e-07	-4.805428e-06	-9.305697e-09	-3.411207e+01	-6.130680e+02
2.900000e-07	-4.763812e-06	-9.331411e-09	-3.381665e+01	-6.106226e+02
3.000000e-07	-4.720604e-06	-9.259717e-09	-3.350993e+01	-6.082111e+02
3.100000e-07	-4.675943e-06	-9.208867e-09	-3.319290e+01	-6.058497e+02
3.200000e-07	-4.629831e-06	-9.216077e-09	-3.286556e+01	-6.034839e+02
3.300000e-07	-4.582381e-06	-9.170806e-09	-3.252873e+01	-6.010161e+02
3.400000e-07	-4.533554e-06	-9.095937e-09	-3.218212e+01	-5.983534e+02
3.500000e-07	-4.482966e-06	-9.062777e-09	-3.182302e+01	-5.954523e+02
3.600000e-07	-4.430625e-06	-9.030677e-09	-3.145146e+01	-5.923369e+02
3.700000e-07	-4.376984e-06	-8.975492e-09	-3.107069e+01	-5.890819e+02
3.800000e-07	-4.322175e-06	-8.943801e-09	-3.068162e+01	-5.857721e+02
3.900000e-07	-4.266131e-06	-8.885047e-09	-3.028378e+01	-5.824590e+02
4.000000e-07	-4.208764e-06	-8.810531e-09	-2.987655e+01	-5.791377e+02
4.100000e-07	-4.149960e-06	-8.787971e-09	-2.945912e+01	-5.757532e+02
4.200000e-07	-4.089937e-06	-8.733479e-09	-2.903304e+01	-5.722312e+02
4.300000e-07	-4.028880e-06	-8.668810e-09	-2.859962e+01	-5.685148e+02
4.400000e-07	-3.966734e-06	-8.614779e-09	-2.815847e+01	-5.645876e+02
4.500000e-07	-3.903522e-06	-8.542211e-09	-2.770975e+01	-5.604740e+02
4.600000e-07	-3.839364e-06	-8.484612e-09	-2.725431e+01	-5.562195e+02
4.700000e-07	-3.774221e-06	-8.413834e-09	-2.679188e+01	-5.518643e+02
4.800000e-07	-3.707840e-06	-8.339691e-09	-2.632067e+01	-5.474245e+02
4.900000e-07	-3.640214e-06	-8.270039e-09	-2.584062e+01	-5.428904e+02
5.000000e-07	-3.571681e-06	-8.210677e-09	-2.535412e+01	-5.382380e+02
5.100000e-07	-3.502311e-06	-8.146172e-09	-2.486169e+01	-5.334445e+02
5.200000e-07	-3.432062e-06	-8.059668e-09	-2.436302e+01	-5.284975e+02
5.300000e-07	-3.360955e-06	-7.976052e-09	-2.385825e+01	-5.233939e+02
5.400000e-07	-3.288932e-06	-7.894565e-09	-2.334698e+01	-5.181310e+02
5.500000e-07	-3.215981e-06	-7.818810e-09	-2.282913e+01	-5.126999e+02
5.600000e-07	-3.142001e-06	-7.733754e-09	-2.230398e+01	-5.070875e+02
5.700000e-07	-3.066881e-06	-7.637235e-09	-2.177073e+01	-5.012860e+02
5.800000e-07	-2.990760e-06	-7.545675e-09	-2.123036e+01	-4.953050e+02
5.900000e-07	-2.913795e-06	-7.457773e-09	-2.068402e+01	-4.891745e+02
6.000000e-07	-2.835970e-06	-7.361992e-09	-2.013157e+01	-4.829341e+02
6.100000e-07	-2.757220e-06	-7.259532e-09	-1.957255e+01	-4.766116e+02
6.200000e-07	-2.677533e-06	-7.160528e-09	-1.900687e+01	-4.702013e+02
6.300000e-07	-2.596961e-06	-7.065131e-09	-1.843493e+01	-4.636562e+02
6.400000e-07	-2.515545e-06	-6.964324e-09	-1.785698e+01	-4.569012e+02
6.500000e-07	-2.433392e-06	-6.852192e-09	-1.727380e+01	-4.498632e+02
6.600000e-07	-2.350515e-06	-6.732314e-09	-1.668549e+01	-4.425058e+02
6.700000e-07	-2.266958e-06	-6.613403e-09	-1.609235e+01	-4.348481e+02
6.800000e-07	-2.182887e-06	-6.497992e-09	-1.549555e+01	-4.269587e+02
6.900000e-07	-2.098365e-06	-6.376670e-09	-1.489556e+01	-4.189229e+02
7.000000e-07	-2.013258e-06	-6.250482e-09	-1.429142e+01	-4.107997e+02
7.100000e-07	-1.927489e-06	-6.121848e-09	-1.368257e+01	-4.025888e+02
7.200000e-07	-1.841215e-06	-5.994264e-09	-1.307014e+01	-3.942254e+02
7.300000e-07	-1.754529e-06	-5.861789e-09	-1.245479e+01	-3.856059e+02
7.400000e-07	-1.667354e-06	-5.717099e-09	-1.183597e+01	-3.766356e+02
7.500000e-07	-1.579683e-06	-5.568117e-09	-1.121362e+01	-3.672714e+02
7.600000e-07	-1.491616e-06	-5.420722e-09	-1.058846e+01	-3.575424e+02
7.700000e-07	-1.403203e-06	-5.274666e-09	-9.960849e+00	-3.475336e+02
7.800000e-07	-1.314401e-06	-5.120718e-09	-9.330473e+00	-3.373419e+02
7.900000e-07	-1.225246e-06	-4.960205e-09	-8.697593e+00	-3.270253e+02
8.000000e-07	-1.135783e-06	-4.799321e-09	-8.062531e+00	-3.165700e+02
8.100000e-07	-1.045962e-06	-4.638149e-09	-7.424920e+00	-3.058930e+02
8.200000e-07	-9.557497e-07	-4.469942e-09	-6.784535e+00	-2.948791e+02
8.300000e-07	-8.651757e-07	-4.290232e-09	-6.141582e+00	-2.834340e+02
8.400000e-07	-7.743538e-07	-4.105572e-09	-5.496869e+00	-2.715287e+02
8.500000e-07	-6.833159e-07	-3.918779e-09	-4.850622e+00	-2.592107e+02
8.600000e-07	-5.920377e-07	-3.731209e-09	-4.202670e+00	-2.465781e+02
8.700000e-07	-5.005573e-07	-3.536969e-09	-3.553283e+00	-2.337273e+02
8.800000e-07	-4.089832e-07	-3.334867e-09	-2.903229e+00	-2.207016e+02
8.900000e-07	-3.173337e-07	-3.130919e-09	-2.252641e+00	-2.074648e+02
9.000000e-07	-2.256005e-07	-2.926960e-09	-1.601460e+00	-1.939134e+02
9.100000e-07	-1.338483e-07	-2.717606e-09	-9.501422e-01	-1.799206e+02
9.200000e-07	-4.209010e-08	-2.496411e-09	-2.987830e-01	-1.653908e+02
9.300000e-07	4.971892e-08	-2.266227e-09	3.529374e-01	-1.502967e+02
9.400000e-07	1.415784e-07	-2.032394e-09	1.005016e+00	-1.346830e+02
9.500000e-07	2.334035e-07	-1.791856e-09	1.656850e+00	-1.186354e+02
9.600000e-07	3.251118e-07	-1.538815e-09	2.307856e+00	-1.022318e+02
9.700000e-07	4.167268e-07	-1.280421e-09	2.958199e+00	-8.550242e+01
9.800000e-07	5.082967e-07	-1.022213e-09	3.608221e+00	-6.841612e+01
9.900000e-07	5.998403e-07	-7.606369e-10	4.258058e+00	-5.090043e+01
1.000000e-06	6.912566e-07	-4.865259e-10	4.906991e+00	-3.288210e+01
1.010000e-06	7.824818e-07	-2.005027e-10	5.554566e+00	-1.432731e+01
1.020000e-06	8.734935e-07	8.920414e-11	6.200627e+00	4.738027e+00
1.030000e-06	9.641807e-07	3.833317e-10	6.844384e+00	2.423561e+01
1.040000e-06	1.054514e-06	6.860777e-10	7.485626e+00	4.406232e+01
1.050000e-06	1.144467e-06	9.958181e-10	8.124173e+00	6.412092e+01
1.060000e-06	1.233996e-06	1.305846e-09	8.759711e+00	8.433733e+01
1.070000e-06	1.323077e-06	1.613725e-09	9.392062e+00	1.046571e+02
1.080000e-06	1.411723e-06	1.922975e-09	1.002133e+01	1.250265e+02
1.090000e-06	1.499958e-06	2.235950e-09	1.064768e+01	1.453730e+02
1.100000e-06	1.587807e-06	2.548016e-09	1.127129e+01	1.655976e+02
1.110000e-06	1.675229e-06	2.853728e-09	1.189187e+01	1.855849e+02
1.120000e-06	1.762236e-06	3.152510e-09	1.250950e+01	2.052254e+02
1.130000e-06	1.848828e-06	3.447463e-09	1.312419e+01	2.244353e+02
1.140000e-06	1.934909e-06	3.737935e-09	1.373524e+01	2.431637e+02
1.150000e-06	2.020412e-06	4.014870e-09	1.434220e+01	2.613827e+02
1.160000e-06	2.105331e-06	4.280806e-09	1.494502e+01	2.790677e+02
1.170000e-06	2.189720e-06	4.540595e-09	1.554406e+01	2.961818e+02
1.180000e-06	2.273606e-06	4.793775e-09	1.613954e+01	3.126738e+02
1.190000e-06	2.356940e-06	5.035032e-09	1.673109e+01	3.284933e+02
1.200000e-06	2.439522e-06	5.261976e-09	1.731732e+01	3.436129e+02
1.210000e-06	2.521286e-06	5.478420e-09	1.789773e+01	3.580448e+02
1.220000e-06	2.602265e-06	5.688231e-09	1.847258e+01	3.718392e+02
1.230000e-06	2.682455e-06	5.890425e-09	1.904182e+01	3.850646e+02
1.240000e-06	2.761835e-06	6.081516e-09	1.960530e+01	3.977780e+02
1.250000e-06	2.840390e-06	6.265440e-09	2.016294e+01	4.100020e+02
1.260000e-06	2.918132e-06	6.445534e-09	2.071481e+01	4.217205e+02
1.270000e-06	2.995100e-06	6.619457e-09	2.126117e+01	4.328963e+02
1.280000e-06	3.071271e-06	6.780098e-09	2.180188e+01	4.435015e+02
1.290000e-06	3.146527e-06	6.930615e-09	2.233610e+01	4.535444e+02
1.300000e-06	3.220672e-06	7.075753e-09	2.286243e+01	4.630789e+02
1.310000e-06	3.293613e-06	7.217328e-09	2.338021e+01	4.721904e+02
1.320000e-06	3.365554e-06	7.352305e-09	2.389090e+01	4.809656e+02
1.330000e-06	3.436647e-06	7.480608e-09	2.439556e+01	4.894606e+02
1.340000e-06	3.506884e-06	7.606625e-09	2.489415e+01	4.976823e+02
1.350000e-06	3.576152e-06	7.732384e-09	2.538586e+01	5.055916e+02
1.360000e-06	3.644511e-06	7.852285e-09	2.587112e+01	5.131261e+02
1.370000e-06	3.712091e-06	7.959048e-09	2.635084e+01	5.202319e+02
1.380000e-06	3.778624e-06	8.055670e-09	2.682314e+01	5.268887e+02
1.390000e-06	3.843829e-06	8.146708e-09	2.728601e+01	5.331211e+02
1.400000e-06	3.907861e-06	8.234085e-09	2.774055e+01	5.389905e+02
1.410000e-06	3.970941e-06	8.317593e-09	2.818833e+01	5.445746e+02
1.420000e-06	4.032977e-06	8.398139e-09	2.862870e+01	5.499435e+02
1.430000e-06	4.093863e-06	8.477966e-09	2.906091e+01	5.551413e+02
1.440000e-06	4.153796e-06	8.557086e-09	2.948635e+01	5.601791e+02
1.450000e-06	4.212707e-06	8.632861e-09	2.990454e+01	5.650401e+02
1.460000e-06	4.270190e-06	8.703096e-09	3.031259e+01	5.696936e+02
1.470000e-06	4.326280e-06	8.767862e-09	3.071076e+01	5.741126e+02
1.480000e-06	4.381189e-06	8.828635e-09	3.110054e+01	5.782893e+02
1.490000e-06	4.434859e-06	8.885752e-09	3.148153e+01	5.822424e+02
1.500000e-06	4.487149e-06	8.941489e-09	3.185271e+01	5.860145e+02
1.510000e-06	4.537820e-06	8.997561e-09	3.221240e+01	5.896598e+02
1.520000e-06	4.586815e-06	9.052812e-09	3.256020e+01	5.932255e+02
1.530000e-06	4.634404e-06	9.106463e-09	3.289802e+01	5.967337e+02
1.540000e-06	4.680743e-06	9.157788e-09	3.322697e+01	6.001721e+02
1.550000e-06	4.725823e-06	9.206496e-09	3.354698e+01	6.034975e+02
1.560000e-06	4.769704e-06	9.252167e-09	3.385847e+01	6.066524e+02
1.570000e-06	4.812126e-06	9.295224e-09	3.415961e+01	6.095886e+02
1.580000e-06	4.852935e-06	9.336357e-09	3.444930e+01	6.122886e+02
1.590000e-06	4.892446e-06	9.374565e-09	3.472977e+01	6.147740e+02
1.600000e-06	4.930699e-06	9.407831e-09	3.500132e+01	6.170991e+02
1.610000e-06	4.967608e-06	9.439268e-09	3.526332e+01	6.193292e+02
1.620000e-06	5.003306e-06	9.471790e-09	3.551673e+01	6.215158e+02
1.630000e-06	5.037470e-06	9.503217e-09	3.575925e+01	6.236766e+02
1.640000e-06	5.069994e-06	9.532680e-09	3.599012e+01	6.257907e+02
1.650000e-06	5.101172e-06	9.559449e-09	3.621145e+01	6.278082e+02
1.660000e-06	5.131032e-06	9.585428e-09	3.642341e+01	6.296721e+02
1.670000e-06	5.159661e-06	9.609473e-09	3.662664e+01	6.313401e+02
1.680000e-06	5.186979e-06	9.629899e-09	3.682056e+01	6.328008e+02
1.690000e-06	5.212627e-06	9.647288e-09	3.700263e+01	6.340765e+02
1.700000e-06	5.236599e-06	9.662172e-09	3.717279e+01	6.352154e+02
1.710000e-06	5.259154e-06	9.677640e-09	3.733290e+01	6.362747e+02
1.720000e-06	5.280349e-06	9.694008e-09	3.748337e+01	6.373030e+02
1.730000e-06	5.300328e-06	9.709183e-09	3.762518e+01	6.383253e+02
1.740000e-06	5.318929e-06	9.722772e-09	3.775723e+01	6.393362e+02
1.750000e-06	5.335916e-06	9.735703e-09	3.787781e+01	6.403023e+02
1.760000e-06	5.351298e-06	9.748768e-09	3.798700e+01	6.411742e+02
1.770000e-06	5.365112e-06	9.760214e-09	3.808506e+01	6.419043e+02
1.780000e-06	5.377405e-06	9.768756e-09	3.817233e+01	6.424659e+02
1.790000e-06	5.387933e-06	9.775537e-09	3.824706e+01	6.428660e+02
1.800000e-06	5.396677e-06	9.780800e-09	3.830914e+01	6.431452e+02
1.810000e-06	5.403914e-06	9.784543e-09	3.836051e+01	6.433644e+02
1.820000e-06	5.409658e-06	9.786870e-09	3.840128e+01	6.435792e+02
1.830000e-06	5.413984e-06	9.789324e-09	3.843199e+01	6.438161e+02
1.840000e-06	5.416833e-06	9.793675e-09	3.845221e+01	6.440584e+02
1.850000e-06	5.417930e-06	9.798036e-09	3.846000e+01	6.442528e+02
1.860000e-06	5.417427e-06	9.799753e-09	3.845643e+01	6.443328e+02
1.870000e-06	5.415563e-06	9.797186e-09	3.844320e+01	6.442510e+02
1.880000e-06	5.412399e-06	9.796214e-09	3.842074e+01	6.440021e+02
1.890000e-06	5.407993e-06	9.792578e-09	3.838946e+01	6.436256e+02
1.900000e-06	5.401962e-06	9.785474e-09	3.834665e+01	6.431859e+02
1.910000e-06	5.394273e-06	9.779190e-09	3.829207e+01	6.427377e+02
1.920000e-06	5.385316e-06	9.778489e-09	3.822849e+01	6.422976e+02
1.930000e-06	5.375017e-06	9.791318e-09	3.815538e+01	6.418347e+02
1.940000e-06	5.363234e-06	9.749184e-09	3.807173e+01	6.412886e+02
1.950000e-06	5.349400e-06	9.708759e-09	3.797353e+01	6.406041e+02
1.960000e-06	5.333064e-06	9.710380e-09	3.785757e+01	6.397643e+02
1.970000e-06	5.314656e-06	9.716980e-09	3.772689e+01	6.388040e+02
1.980000e-06	5.295102e-06	9.783081e-09	3.758809e+01	6.377946e+02
1.990000e-06	5.275177e-06	9.659997e-09	3.744665e+01	6.368087e+02
2.000000e-06	5.254277e-06	9.593649e-09	3.729829e+01	6.358833e+02
2.010000e-06	5.231475e-06	9.771693e-09	3.713642e+01	6.350016e+02
2.020000e-06	5.207386e-06	9.633807e-09	3.696542e+01	6.341039e+02
2.030000e-06	5.182218e-06	9.551633e-09	3.678676e+01	6.331205e+02
2.040000e-06	5.155290e-06	9.736484e-09	3.659561e+01	6.320083e+02
2.050000e-06	5.127105e-06	9.604908e-09	3.639553e+01	6.307686e+02
2.060000e-06	5.097677e-06	9.545445e-09	3.618664e+01	6.294380e+02
2.070000e-06	5.066388e-06	9.681571e-09	3.596453e+01	6.280562e+02
2.080000e-06	5.033726e-06	9.518505e-09	3.573267e+01	6.266317e+02
2.090000e-06	4.999738e-06	9.512899e-09	3.549140e+01	6.251259e+02
2.100000e-06	4.964290e-06	9.565457e-09	3.523977e+01	6.234674e+02
2.110000e-06	4.927768e-06	9.428656e-09	3.498051e+01	6.215895e+02
2.120000e-06	4.889625e-06	9.514099e-09	3.470975e+01	6.194698e+02
2.130000e-06	4.849730e-06	9.446519e-09	3.442655e+01	6.171499e+02
2.140000e-06	4.808556e-06	9.320847e-09	3.413427e+01	6.147211e+02
2.150000e-06	4.765966e-06	9.396164e-09	3.383193e+01	6.122823e+02
2.160000e-06	4.722144e-06	9.300599e-09	3.352086e+01	6.098921e+02
2.170000e-06	4.677015e-06	9.241918e-09	3.320051e+01	6.075390e+02
2.180000e-06	4.630242e-06	9.247469e-09	3.286848e+01	6.051477e+02
2.190000e-06	4.582133e-06	9.190048e-09	3.252697e+01	6.026161e+02
2.200000e-06	4.532767e-06	9.188492e-09	3.217654e+01	5.998658e+02
2.210000e-06	4.482012e-06	9.095519e-09	3.181624e+01	5.968785e+02
2.220000e-06	4.429781e-06	9.046423e-09	3.144547e+01	5.937008e+02
2.230000e-06	4.375921e-06	9.004792e-09	3.106314e+01	5.904166e+02
2.240000e-06	4.320562e-06	8.931769e-09	3.067017e+01	5.871027e+02
2.250000e-06	4.263872e-06	8.933568e-09	3.026775e+01	5.837906e+02
2.260000e-06	4.206056e-06	8.830670e-09	2.985733e+01	5.804542e+02
2.270000e-06	4.147269e-06	8.794196e-09	2.944002e+01	5.770270e+02
2.280000e-06	4.087471e-06	8.747126e-09	2.901554e+01	5.734373e+02
2.290000e-06	4.026466e-06	8.656808e-09	2.858248e+01	5.696417e+02
2.300000e-06	3.964001e-06	8.640723e-09	2.813906e+01	5.656404e+02
2.310000e-06	3.900296e-06	8.541913e-09	2.768685e+01	5.614687e+02
2.320000e-06	3.835641e-06	8.494397e-09	2.722788e+01	5.571731e+02
2.330000e-06	3.769985e-06	8.436786e-09	2.676181e+01	5.527861e+02
2.340000e-06	3.703303e-06	8.351630e-09	2.628846e+01	5.483136e+02
2.350000e-06	3.635626e-06	8.293058e-09	2.580805e+01	5.437385e+02
2.360000e-06	3.566939e-06	8.193177e-09	2.532046e+01	5.390358e+02
2.370000e-06	3.497116e-06	8.143161e-09	2.482481e+01	5.341859e+02
2.380000e-06	3.426201e-06	8.068732e-09	2.432141e+01	5.291807e+02
2.390000e-06	3.354372e-06	7.990667e-09	2.381152e+01	5.240182e+02
2.400000e-06	3.281719e-06	7.909331e-09	2.329578e+01	5.186940e+02
2.410000e-06	3.208220e-06	7.809942e-09	2.277404e+01	5.131968e+02
2.420000e-06	3.133783e-06	7.744107e-09	2.224564e+01	5.075140e+02
2.430000e-06	3.058449e-06	7.643213e-09	2.171086e+01	5.016433e+02
2.440000e-06	2.982103e-06	7.551229e-09	2.116891e+01	4.956022e+02
2.450000e-06	2.904705e-06	7.460521e-09	2.061949e+01	4.894263e+02
2.460000e-06	2.826298e-06	7.366266e-09	2.006291e+01	4.831536e+02
2.470000e-06	2.746887e-06	7.277311e-09	1.949920e+01	4.768015e+02
2.480000e-06	2.666724e-06	7.168632e-09	1.893015e+01	4.703485e+02
2.490000e-06	2.585890e-06	7.069267e-09	1.835633e+01	4.637345e+02
2.500000e-06	2.504292e-06	6.963546e-09	1.777710e+01	4.568810e+02
2.510000e-06	2.421999e-06	6.863968e-09	1.719293e+01	4.497250e+02
2.520000e-06	2.339125e-06	6.754224e-09	1.660464e+01	4.422500e+02
2.530000e-06	2.255651e-06	6.632159e-09	1.601208e+01	4.344960e+02
2.540000e-06	2.171533e-06	6.512907e-09	1.541496e+01	4.265425e+02
2.550000e-06	2.086808e-06	6.388440e-09	1.481353e+01	4.184700e+02
2.560000e-06	2.001457e-06	6.270070e-09	1.420765e+01	4.103180e+02
2.570000e-06	1.915419e-06	6.139533e-09	1.359690e+01	4.020609e+02
2.580000e-06	1.828605e-06	6.012982e-09	1.298063e+01	3.936145e+02
2.590000e-06	1.741129e-06	5.888594e-09	1.235967e+01	3.848730e+02
2.600000e-06	1.653230e-06	5.755565e-09	1.173571e+01	3.757565e+02
2.610000e-06	1.564982e-06	5.611900e-09	1.110927e+01	3.662488e+02
2.620000e-06	1.476402e-06	5.455371e-09	1.048047e+01	3.564035e+02
2.630000e-06	1.387494e-06	5.302549e-09	9.849341e+00	3.463162e+02
2.640000e-06	1.298282e-06	5.146029e-09	9.216053e+00	3.360746e+02
2.650000e-06	1.208683e-06	4.986310e-09	8.580019e+00	3.257121e+02
2.660000e-06	1.118721e-06	4.824347e-09	7.941409e+00	3.151866e+02
2.670000e-06	1.028512e-06	4.664412e-09	7.301047e+00	3.043972e+02
2.680000e-06	9.380502e-07	4.502790e-09	6.658893e+00	2.932301e+02
2.690000e-06	8.474217e-07	4.328515e-09	6.015552e+00	2.816120e+02
2.700000e-06	7.566887e-07	4.143897e-09	5.371470e+00	2.695430e+02
2.710000e-06	6.657835e-07	3.949219e-09	4.726166e+00	2.570948e+02
2.720000e-06	5.747341e-07	3.752048e-09	4.079838e+00	2.443713e+02
2.730000e-06	4.836171e-07	3.555685e-09	3.433030e+00	2.314542e+02
2.740000e-06	3.924344e-07	3.357902e-09	2.785755e+00	2.183582e+02
2.750000e-06	3.011551e-07	3.155318e-09	2.137795e+00	2.050184e+02
2.760000e-06	2.098165e-07	2.946538e-09	1.489414e+00	1.913162e+02
2.770000e-06	1.184894e-07	2.730869e-09	8.411151e-01	1.771304e+02
2.780000e-06	2.714809e-08	2.503689e-09	1.927149e-01	1.623883e+02
2.790000e-06	-6.423874e-08	2.264934e-09	-4.560085e-01	1.470913e+02
2.800000e-06	-1.556448e-07	2.020055e-09	-1.104868e+00	1.313046e+02
2.810000e-06	-2.470425e-07	1.774734e-09	-1.753669e+00	1.151166e+02
2.820000e-06	-3.383678e-07	1.525337e-09	-2.401955e+00	9.859100e+01
2.830000e-06	-4.296232e-07	1.266484e-09	-3.049746e+00	8.173471e+01
2.840000e-06	-5.208074e-07	9.999321e-10	-3.697030e+00	6.449726e+01
2.850000e-06	-6.118328e-07	7.273327e-10	-4.343189e+00	4.680063e+01
2.860000e-06	-7.026715e-07	4.476297e-10	-4.988021e+00	2.858240e+01
2.870000e-06	-7.933754e-07	1.630162e-10	-5.631896e+00	9.830224e+00
2.880000e-06	-8.839533e-07	-1.266339e-10	-6.274877e+00	-9.408087e+00
2.890000e-06	-9.743396e-07	-4.244463e-10	-6.916498e+00	-2.904110e+01
2.900000e-06	-1.064461e-06	-7.284209e-10	-7.556239e+00	-4.896473e+01
2.910000e-06	-1.154289e-06	-1.036595e-09	-8.193895e+00	-6.908950e+01
2.920000e-06	-1.243823e-06	-1.349169e-09	-8.829465e+00	-8.935015e+01
2.930000e-06	-1.332930e-06	-1.662742e-09	-9.462006e+00	-1.096951e+02
2.940000e-06	-1.421640e-06	-1.973476e-09	-1.009173e+01	-1.300656e+02
2.950000e-06	-1.510087e-06	-2.279567e-09	-1.071958e+01	-1.503789e+02
