# Temperatura_=_20.0
# Concentracion g/m^3_=_10000.0
# C_Vs_to_Am_M_A/Vsm_=_65563218390.804596
# pendiente_HvsI_1/m_=_3716.3
# ordenada_HvsI_A/m_=_1297.0
# frecuencia_Hz_=_269413.2377164247

Tiempo_(s)	Campo_(V.s)	Magnetizacion_(V.s)	Campo_(kA/m)	Magnetizacion_(A/m)
0.000000e+00	-5.393555e-06	-9.801508e-09	-3.829302e+01	-6.405486e+02
1.000000e-08	-5.392836e-06	-9.795033e-09	-3.828792e+01	-6.403969e+02
2.000000e-08	-5.390495e-06	-9.789073e-09	-3.827129e+01	-6.401129e+02
3.000000e-08	-5.386537e-06	-9.784389e-09	-3.824319e+01	-6.397638e+02
4.000000e-08	-5.381214e-06	-9.781413e-09	-3.820540e+01	-6.394100e+02
5.000000e-08	-5.374585e-06	-9.778896e-09	-3.815834e+01	-6.390781e+02
6.000000e-08	-5.366622e-06	-9.774170e-09	-3.810180e+01	-6.387481e+02
7.000000e-08	-5.357133e-06	-9.763786e-09	-3.803443e+01	-6.383619e+02
8.000000e-08	-5.345896e-06	-9.754817e-09	-3.795465e+01	-6.378503e+02
9.000000e-08	-5.332837e-06	-9.758910e-09	-3.786194e+01	-6.371665e+02
1.000000e-07	-5.317751e-06	-9.759022e-09	-3.775483e+01	-6.363117e+02
1.100000e-07	-5.300540e-06	-9.735256e-09	-3.763264e+01	-6.353395e+02
1.200000e-07	-5.281651e-06	-9.692179e-09	-3.749853e+01	-6.343347e+02
1.300000e-07	-5.261748e-06	-9.650790e-09	-3.735722e+01	-6.333762e+02
1.400000e-07	-5.241022e-06	-9.680048e-09	-3.721007e+01	-6.324980e+02
1.500000e-07	-5.219073e-06	-9.687466e-09	-3.705423e+01	-6.316709e+02
1.600000e-07	-5.195769e-06	-9.609925e-09	-3.688879e+01	-6.308130e+02
1.700000e-07	-5.171220e-06	-9.623690e-09	-3.671450e+01	-6.298270e+02
1.800000e-07	-5.144997e-06	-9.638869e-09	-3.652832e+01	-6.286463e+02
1.900000e-07	-5.117179e-06	-9.550954e-09	-3.633081e+01	-6.272663e+02
2.000000e-07	-5.088267e-06	-9.535712e-09	-3.612554e+01	-6.257455e+02
2.100000e-07	-5.058022e-06	-9.535281e-09	-3.591082e+01	-6.241726e+02
2.200000e-07	-5.026404e-06	-9.463017e-09	-3.568633e+01	-6.226181e+02
2.300000e-07	-4.993440e-06	-9.474289e-09	-3.545230e+01	-6.210937e+02
2.400000e-07	-4.958843e-06	-9.477750e-09	-3.520667e+01	-6.195430e+02
2.500000e-07	-4.922797e-06	-9.400947e-09	-3.495074e+01	-6.178679e+02
2.600000e-07	-4.885454e-06	-9.383174e-09	-3.468562e+01	-6.159782e+02
2.700000e-07	-4.846673e-06	-9.357521e-09	-3.441028e+01	-6.138375e+02
2.800000e-07	-4.806622e-06	-9.298625e-09	-3.412593e+01	-6.114813e+02
2.900000e-07	-4.765134e-06	-9.283084e-09	-3.383137e+01	-6.089975e+02
3.000000e-07	-4.721930e-06	-9.251910e-09	-3.352463e+01	-6.064808e+02
3.100000e-07	-4.677212e-06	-9.193037e-09	-3.320715e+01	-6.039846e+02
3.200000e-07	-4.631124e-06	-9.162703e-09	-3.287993e+01	-6.014970e+02
3.300000e-07	-4.583759e-06	-9.132526e-09	-3.254365e+01	-5.989516e+02
3.400000e-07	-4.534964e-06	-9.072245e-09	-3.219722e+01	-5.962666e+02
3.500000e-07	-4.484394e-06	-9.024304e-09	-3.183818e+01	-5.933885e+02
3.600000e-07	-4.432133e-06	-9.001953e-09	-3.146714e+01	-5.903174e+02
3.700000e-07	-4.378517e-06	-8.956692e-09	-3.108648e+01	-5.871005e+02
3.800000e-07	-4.323717e-06	-8.902774e-09	-3.069741e+01	-5.838005e+02
3.900000e-07	-4.267739e-06	-8.849139e-09	-3.029998e+01	-5.804586e+02
4.000000e-07	-4.210457e-06	-8.786177e-09	-2.989330e+01	-5.770731e+02
4.100000e-07	-4.151776e-06	-8.740563e-09	-2.947667e+01	-5.736050e+02
4.200000e-07	-4.091840e-06	-8.692459e-09	-2.905114e+01	-5.700049e+02
4.300000e-07	-4.030864e-06	-8.633559e-09	-2.861823e+01	-5.662428e+02
4.400000e-07	-3.968787e-06	-8.576089e-09	-2.817749e+01	-5.623239e+02
4.500000e-07	-3.905606e-06	-8.514331e-09	-2.772892e+01	-5.582803e+02
4.600000e-07	-3.841534e-06	-8.449309e-09	-2.727402e+01	-5.541458e+02
4.700000e-07	-3.776497e-06	-8.383538e-09	-2.681228e+01	-5.499312e+02
4.800000e-07	-3.710162e-06	-8.314134e-09	-2.634131e+01	-5.456146e+02
4.900000e-07	-3.642563e-06	-8.244492e-09	-2.586137e+01	-5.411542e+02
5.000000e-07	-3.574043e-06	-8.180552e-09	-2.537490e+01	-5.365136e+02
5.100000e-07	-3.504739e-06	-8.111672e-09	-2.488286e+01	-5.316849e+02
5.200000e-07	-3.434569e-06	-8.028454e-09	-2.438467e+01	-5.266935e+02
5.300000e-07	-3.363471e-06	-7.946086e-09	-2.387988e+01	-5.215821e+02
5.400000e-07	-3.291563e-06	-7.870934e-09	-2.336935e+01	-5.163833e+02
5.500000e-07	-3.218755e-06	-7.794664e-09	-2.285243e+01	-5.110971e+02
5.600000e-07	-3.144813e-06	-7.715528e-09	-2.232746e+01	-5.056880e+02
5.700000e-07	-3.069707e-06	-7.628624e-09	-2.179423e+01	-5.001032e+02
5.800000e-07	-2.993586e-06	-7.538367e-09	-2.125378e+01	-4.943009e+02
5.900000e-07	-2.916665e-06	-7.446527e-09	-2.070766e+01	-4.882736e+02
6.000000e-07	-2.838960e-06	-7.348999e-09	-2.015597e+01	-4.820502e+02
6.100000e-07	-2.760323e-06	-7.247498e-09	-1.959767e+01	-4.756778e+02
6.200000e-07	-2.680602e-06	-7.147881e-09	-1.903167e+01	-4.691921e+02
6.300000e-07	-2.599927e-06	-7.052606e-09	-1.845889e+01	-4.625941e+02
6.400000e-07	-2.518520e-06	-6.953831e-09	-1.788092e+01	-4.558462e+02
6.500000e-07	-2.436358e-06	-6.847414e-09	-1.729759e+01	-4.488900e+02
6.600000e-07	-2.353471e-06	-6.733099e-09	-1.670911e+01	-4.416746e+02
6.700000e-07	-2.269987e-06	-6.616175e-09	-1.611640e+01	-4.341815e+02
6.800000e-07	-2.186007e-06	-6.497986e-09	-1.552016e+01	-4.264311e+02
6.900000e-07	-2.101544e-06	-6.376449e-09	-1.492049e+01	-4.184692e+02
7.000000e-07	-2.016509e-06	-6.251399e-09	-1.431676e+01	-4.103401e+02
7.100000e-07	-1.930884e-06	-6.123715e-09	-1.370884e+01	-4.020630e+02
7.200000e-07	-1.844697e-06	-5.995015e-09	-1.309693e+01	-3.936212e+02
7.300000e-07	-1.758018e-06	-5.862049e-09	-1.248153e+01	-3.849713e+02
7.400000e-07	-1.670899e-06	-5.721731e-09	-1.186301e+01	-3.760637e+02
7.500000e-07	-1.583292e-06	-5.575981e-09	-1.124102e+01	-3.668650e+02
7.600000e-07	-1.495305e-06	-5.431532e-09	-1.061633e+01	-3.573696e+02
7.700000e-07	-1.406973e-06	-5.286166e-09	-9.989188e+00	-3.475974e+02
7.800000e-07	-1.318303e-06	-5.132313e-09	-9.359655e+00	-3.375781e+02
7.900000e-07	-1.229309e-06	-4.972712e-09	-8.727812e+00	-3.273334e+02
8.000000e-07	-1.139850e-06	-4.812568e-09	-8.092680e+00	-3.168643e+02
8.100000e-07	-1.049900e-06	-4.650404e-09	-7.454054e+00	-3.061496e+02
8.200000e-07	-9.596018e-07	-4.482821e-09	-6.812956e+00	-2.951548e+02
8.300000e-07	-8.690575e-07	-4.308538e-09	-6.170111e+00	-2.838463e+02
8.400000e-07	-7.782227e-07	-4.128616e-09	-5.525205e+00	-2.722025e+02
8.500000e-07	-6.870965e-07	-3.944506e-09	-4.878230e+00	-2.602192e+02
8.600000e-07	-5.957597e-07	-3.756078e-09	-4.229759e+00	-2.479050e+02
8.700000e-07	-5.042631e-07	-3.563311e-09	-3.580154e+00	-2.352715e+02
8.800000e-07	-4.126872e-07	-3.365260e-09	-2.929986e+00	-2.223222e+02
8.900000e-07	-3.211078e-07	-3.163252e-09	-2.279792e+00	-2.090463e+02
9.000000e-07	-2.294722e-07	-2.958496e-09	-1.629201e+00	-1.954188e+02
9.100000e-07	-1.377614e-07	-2.747718e-09	-9.780751e-01	-1.814083e+02
9.200000e-07	-4.600696e-08	-2.527671e-09	-3.266390e-01	-1.669876e+02
9.300000e-07	4.578788e-08	-2.299455e-09	3.250836e-01	-1.521421e+02
9.400000e-07	1.375917e-07	-2.066455e-09	9.768702e-01	-1.368716e+02
9.500000e-07	2.293074e-07	-1.827531e-09	1.628031e+00	-1.211850e+02
9.600000e-07	3.209649e-07	-1.579618e-09	2.278778e+00	-1.050889e+02
9.700000e-07	4.126166e-07	-1.325511e-09	2.929484e+00	-8.857843e+01
9.800000e-07	5.041987e-07	-1.070316e-09	3.579697e+00	-7.163438e+01
9.900000e-07	5.956998e-07	-8.103413e-10	4.229334e+00	-5.423054e+01
1.000000e-06	6.870959e-07	-5.385859e-10	4.878225e+00	-3.634856e+01
1.010000e-06	7.782961e-07	-2.569979e-10	5.525726e+00	-1.799296e+01
1.020000e-06	8.692785e-07	2.942635e-11	6.171681e+00	8.017084e-01
1.030000e-06	9.600061e-07	3.207212e-10	6.815826e+00	1.997591e+01
1.040000e-06	1.050398e-06	6.194962e-10	7.457586e+00	3.946021e+01
1.050000e-06	1.140367e-06	9.237484e-10	8.096347e+00	5.919199e+01
1.060000e-06	1.229852e-06	1.229122e-09	8.731674e+00	7.912374e+01
1.070000e-06	1.318871e-06	1.534884e-09	9.363688e+00	9.921731e+01
1.080000e-06	1.407477e-06	1.842515e-09	9.992767e+00	1.194265e+02
1.090000e-06	1.495747e-06	2.152332e-09	1.061947e+01	1.396780e+02
1.100000e-06	1.583690e-06	2.461548e-09	1.124384e+01	1.598632e+02
1.110000e-06	1.671198e-06	2.766894e-09	1.186513e+01	1.798475e+02
1.120000e-06	1.758205e-06	3.067739e-09	1.248286e+01	1.994957e+02
1.130000e-06	1.844758e-06	3.363102e-09	1.309737e+01	2.187006e+02
1.140000e-06	1.930857e-06	3.649445e-09	1.370865e+01	2.374006e+02
1.150000e-06	2.016424e-06	3.925212e-09	1.431615e+01	2.555768e+02
1.160000e-06	2.101421e-06	4.190581e-09	1.491962e+01	2.732318e+02
1.170000e-06	2.185845e-06	4.448745e-09	1.551901e+01	2.903619e+02
1.180000e-06	2.269758e-06	4.701354e-09	1.611477e+01	3.069392e+02
1.190000e-06	2.353164e-06	4.945005e-09	1.670694e+01	3.229140e+02
1.200000e-06	2.435811e-06	5.177353e-09	1.729371e+01	3.382359e+02
1.210000e-06	2.517584e-06	5.397975e-09	1.787428e+01	3.528812e+02
1.220000e-06	2.598562e-06	5.608273e-09	1.844921e+01	3.668687e+02
1.230000e-06	2.678828e-06	5.811383e-09	1.901908e+01	3.802542e+02
1.240000e-06	2.758298e-06	6.006051e-09	1.958329e+01	3.931052e+02
1.250000e-06	2.836905e-06	6.191656e-09	2.014138e+01	4.054685e+02
1.260000e-06	2.914718e-06	6.371861e-09	2.069384e+01	4.173511e+02
1.270000e-06	2.991747e-06	6.546562e-09	2.124072e+01	4.287234e+02
1.280000e-06	3.067926e-06	6.710442e-09	2.178158e+01	4.395455e+02
1.290000e-06	3.143153e-06	6.863329e-09	2.231567e+01	4.497996e+02
1.300000e-06	3.217267e-06	7.011022e-09	2.284187e+01	4.595125e+02
1.310000e-06	3.290186e-06	7.154532e-09	2.335958e+01	4.687536e+02
1.320000e-06	3.362137e-06	7.291592e-09	2.387041e+01	4.776096e+02
1.330000e-06	3.433269e-06	7.421389e-09	2.437543e+01	4.861500e+02
1.340000e-06	3.503473e-06	7.546831e-09	2.487387e+01	4.944015e+02
1.350000e-06	3.572698e-06	7.670060e-09	2.536535e+01	5.023438e+02
1.360000e-06	3.641062e-06	7.788032e-09	2.585071e+01	5.099293e+02
1.370000e-06	3.708602e-06	7.895918e-09	2.633024e+01	5.171123e+02
1.380000e-06	3.775071e-06	7.994785e-09	2.680215e+01	5.238752e+02
1.390000e-06	3.840236e-06	8.090117e-09	2.726480e+01	5.302370e+02
1.400000e-06	3.904276e-06	8.184271e-09	2.771948e+01	5.362442e+02
1.410000e-06	3.967382e-06	8.273704e-09	2.816751e+01	5.419516e+02
1.420000e-06	4.029492e-06	8.355189e-09	2.860848e+01	5.474057e+02
1.430000e-06	4.090545e-06	8.432233e-09	2.904195e+01	5.526378e+02
1.440000e-06	4.150608e-06	8.508488e-09	2.946838e+01	5.576670e+02
1.450000e-06	4.209571e-06	8.581849e-09	2.988700e+01	5.625068e+02
1.460000e-06	4.267132e-06	8.651403e-09	3.029567e+01	5.671691e+02
1.470000e-06	4.323273e-06	8.719679e-09	3.069426e+01	5.716615e+02
1.480000e-06	4.378191e-06	8.786144e-09	3.108417e+01	5.759832e+02
1.490000e-06	4.431919e-06	8.848907e-09	3.146563e+01	5.801251e+02
1.500000e-06	4.484282e-06	8.907711e-09	3.183739e+01	5.840772e+02
1.510000e-06	4.535039e-06	8.962919e-09	3.219775e+01	5.878412e+02
1.520000e-06	4.584119e-06	9.015726e-09	3.254621e+01	5.914393e+02
1.530000e-06	4.631786e-06	9.067860e-09	3.288463e+01	5.949102e+02
1.540000e-06	4.678208e-06	9.119714e-09	3.321422e+01	5.982924e+02
1.550000e-06	4.723348e-06	9.169474e-09	3.353470e+01	6.016008e+02
1.560000e-06	4.767227e-06	9.216152e-09	3.384623e+01	6.048124e+02
1.570000e-06	4.809712e-06	9.261862e-09	3.414787e+01	6.078708e+02
1.580000e-06	4.850623e-06	9.305701e-09	3.443833e+01	6.107121e+02
1.590000e-06	4.890128e-06	9.344037e-09	3.471881e+01	6.132996e+02
1.600000e-06	4.928337e-06	9.377074e-09	3.499008e+01	6.156494e+02
1.610000e-06	4.965252e-06	9.408875e-09	3.525217e+01	6.178304e+02
1.620000e-06	5.000923e-06	9.441688e-09	3.550542e+01	6.199361e+02
1.630000e-06	5.035124e-06	9.474526e-09	3.574824e+01	6.220402e+02
1.640000e-06	5.067749e-06	9.505448e-09	3.597988e+01	6.241595e+02
1.650000e-06	5.098981e-06	9.533648e-09	3.620161e+01	6.262432e+02
1.660000e-06	5.128925e-06	9.560493e-09	3.641421e+01	6.281973e+02
1.670000e-06	5.157607e-06	9.585532e-09	3.661785e+01	6.299312e+02
1.680000e-06	5.184932e-06	9.606890e-09	3.681184e+01	6.314040e+02
1.690000e-06	5.210580e-06	9.623107e-09	3.699394e+01	6.326471e+02
1.700000e-06	5.234616e-06	9.637169e-09	3.716459e+01	6.337502e+02
1.710000e-06	5.257241e-06	9.652433e-09	3.732522e+01	6.348192e+02
1.720000e-06	5.278526e-06	9.668688e-09	3.747634e+01	6.359255e+02
1.730000e-06	5.298585e-06	9.686163e-09	3.761876e+01	6.370748e+02
1.740000e-06	5.317288e-06	9.702685e-09	3.775154e+01	6.382066e+02
1.750000e-06	5.334367e-06	9.716825e-09	3.787280e+01	6.392271e+02
1.760000e-06	5.349818e-06	9.729428e-09	3.798250e+01	6.400553e+02
1.770000e-06	5.363720e-06	9.740082e-09	3.808120e+01	6.406615e+02
1.780000e-06	5.376042e-06	9.747038e-09	3.816868e+01	6.410797e+02
1.790000e-06	5.386669e-06	9.752147e-09	3.824413e+01	6.413899e+02
1.800000e-06	5.395472e-06	9.756793e-09	3.830663e+01	6.416804e+02
1.810000e-06	5.402685e-06	9.760518e-09	3.835784e+01	6.420086e+02
1.820000e-06	5.408509e-06	9.764209e-09	3.839919e+01	6.423786e+02
1.830000e-06	5.412921e-06	9.767438e-09	3.843051e+01	6.427427e+02
1.840000e-06	5.415832e-06	9.771272e-09	3.845118e+01	6.430263e+02
1.850000e-06	5.417074e-06	9.775852e-09	3.846000e+01	6.431614e+02
1.860000e-06	5.416717e-06	9.777392e-09	3.845746e+01	6.431166e+02
1.870000e-06	5.414951e-06	9.776007e-09	3.844493e+01	6.429081e+02
1.880000e-06	5.411847e-06	9.773293e-09	3.842289e+01	6.425913e+02
1.890000e-06	5.407364e-06	9.768482e-09	3.839106e+01	6.422345e+02
1.900000e-06	5.401259e-06	9.761020e-09	3.834772e+01	6.418881e+02
1.910000e-06	5.393615e-06	9.751769e-09	3.829345e+01	6.415615e+02
1.920000e-06	5.384705e-06	9.748133e-09	3.823019e+01	6.412184e+02
1.930000e-06	5.374516e-06	9.747609e-09	3.815785e+01	6.407926e+02
1.940000e-06	5.362807e-06	9.727280e-09	3.807472e+01	6.402195e+02
1.950000e-06	5.349043e-06	9.694527e-09	3.797700e+01	6.394683e+02
1.960000e-06	5.332812e-06	9.686904e-09	3.786176e+01	6.385606e+02
1.970000e-06	5.314463e-06	9.705871e-09	3.773149e+01	6.375654e+02
1.980000e-06	5.294961e-06	9.720392e-09	3.759303e+01	6.365703e+02
1.990000e-06	5.275062e-06	9.644117e-09	3.745175e+01	6.356410e+02
2.000000e-06	5.254299e-06	9.624094e-09	3.730434e+01	6.347885e+02
2.010000e-06	5.231666e-06	9.689924e-09	3.714364e+01	6.339611e+02
2.020000e-06	5.207564e-06	9.617561e-09	3.697252e+01	6.330657e+02
2.030000e-06	5.182420e-06	9.581458e-09	3.679401e+01	6.320114e+02
2.040000e-06	5.155673e-06	9.641932e-09	3.660411e+01	6.307525e+02
2.050000e-06	5.127578e-06	9.590003e-09	3.640464e+01	6.293101e+02
2.060000e-06	5.098237e-06	9.557434e-09	3.619633e+01	6.277591e+02
2.070000e-06	5.067082e-06	9.586223e-09	3.597514e+01	6.261872e+02
2.080000e-06	5.034419e-06	9.512939e-09	3.574324e+01	6.246463e+02
2.090000e-06	5.000502e-06	9.482449e-09	3.550243e+01	6.231215e+02
2.100000e-06	4.965219e-06	9.502208e-09	3.525193e+01	6.215362e+02
2.110000e-06	4.928726e-06	9.450246e-09	3.499284e+01	6.197889e+02
2.120000e-06	4.890694e-06	9.437719e-09	3.472282e+01	6.178053e+02
2.130000e-06	4.850919e-06	9.417878e-09	3.444043e+01	6.155759e+02
2.140000e-06	4.809760e-06	9.344630e-09	3.414821e+01	6.131598e+02
2.150000e-06	4.767282e-06	9.322017e-09	3.384663e+01	6.106537e+02
2.160000e-06	4.723561e-06	9.291873e-09	3.353621e+01	6.081416e+02
2.170000e-06	4.678486e-06	9.237307e-09	3.321619e+01	6.056534e+02
2.180000e-06	4.631802e-06	9.202103e-09	3.288474e+01	6.031535e+02
2.190000e-06	4.583788e-06	9.181973e-09	3.254386e+01	6.005645e+02
2.200000e-06	4.534481e-06	9.153053e-09	3.219379e+01	5.978105e+02
2.210000e-06	4.483789e-06	9.071623e-09	3.183389e+01	5.948569e+02
2.220000e-06	4.431673e-06	9.016621e-09	3.146387e+01	5.917237e+02
2.230000e-06	4.377935e-06	8.978765e-09	3.108235e+01	5.884685e+02
2.240000e-06	4.322636e-06	8.923733e-09	3.068974e+01	5.851498e+02
2.250000e-06	4.266026e-06	8.889222e-09	3.028782e+01	5.817940e+02
2.260000e-06	4.208266e-06	8.828783e-09	2.987774e+01	5.783832e+02
2.270000e-06	4.149468e-06	8.773250e-09	2.946029e+01	5.748707e+02
2.280000e-06	4.089611e-06	8.719062e-09	2.903531e+01	5.712114e+02
2.290000e-06	4.028517e-06	8.643436e-09	2.860156e+01	5.673879e+02
2.300000e-06	3.966052e-06	8.593087e-09	2.815807e+01	5.634175e+02
2.310000e-06	3.902387e-06	8.535696e-09	2.770606e+01	5.593365e+02
2.320000e-06	3.837739e-06	8.470681e-09	2.724708e+01	5.551723e+02
2.330000e-06	3.772060e-06	8.410650e-09	2.678077e+01	5.509233e+02
2.340000e-06	3.705451e-06	8.340521e-09	2.630787e+01	5.465579e+02
2.350000e-06	3.637939e-06	8.268507e-09	2.582854e+01	5.420328e+02
2.360000e-06	3.569392e-06	8.190068e-09	2.534188e+01	5.373205e+02
2.370000e-06	3.499690e-06	8.123058e-09	2.484701e+01	5.324261e+02
2.380000e-06	3.428860e-06	8.052913e-09	2.434413e+01	5.273844e+02
2.390000e-06	3.357084e-06	7.970819e-09	2.383454e+01	5.222376e+02
2.400000e-06	3.284481e-06	7.889403e-09	2.331907e+01	5.170079e+02
2.410000e-06	3.211057e-06	7.799749e-09	2.279778e+01	5.116812e+02
2.420000e-06	3.136738e-06	7.717584e-09	2.227013e+01	5.062122e+02
2.430000e-06	3.061511e-06	7.630570e-09	2.173604e+01	5.005490e+02
2.440000e-06	2.985303e-06	7.540884e-09	2.119498e+01	4.946609e+02
2.450000e-06	2.907977e-06	7.455861e-09	2.064598e+01	4.885549e+02
2.460000e-06	2.829558e-06	7.362747e-09	2.008922e+01	4.822699e+02
2.470000e-06	2.750212e-06	7.264227e-09	1.952588e+01	4.758522e+02
2.480000e-06	2.670085e-06	7.160149e-09	1.895700e+01	4.693262e+02
2.490000e-06	2.589210e-06	7.056689e-09	1.838280e+01	4.626779e+02
2.500000e-06	2.507608e-06	6.950777e-09	1.780345e+01	4.558589e+02
2.510000e-06	2.425386e-06	6.844469e-09	1.721969e+01	4.488098e+02
2.520000e-06	2.342550e-06	6.736817e-09	1.663158e+01	4.414901e+02
2.530000e-06	2.259127e-06	6.623643e-09	1.603929e+01	4.338961e+02
2.540000e-06	2.175142e-06	6.505067e-09	1.544301e+01	4.260603e+02
2.550000e-06	2.090553e-06	6.380934e-09	1.484245e+01	4.180313e+02
2.560000e-06	2.005259e-06	6.256444e-09	1.423689e+01	4.098461e+02
2.570000e-06	1.919157e-06	6.129745e-09	1.362558e+01	4.015108e+02
2.580000e-06	1.832318e-06	6.002042e-09	1.300905e+01	3.929968e+02
2.590000e-06	1.744927e-06	5.873252e-09	1.238859e+01	3.842554e+02
2.600000e-06	1.657098e-06	5.738853e-09	1.176502e+01	3.752409e+02
2.610000e-06	1.568878e-06	5.597921e-09	1.113868e+01	3.659298e+02
2.620000e-06	1.480286e-06	5.451458e-09	1.050970e+01	3.563272e+02
2.630000e-06	1.391317e-06	5.301857e-09	9.878033e+00	3.464587e+02
2.640000e-06	1.302006e-06	5.146596e-09	9.243946e+00	3.363531e+02
2.650000e-06	1.212330e-06	4.986792e-09	8.607267e+00	3.260252e+02
2.660000e-06	1.122355e-06	4.826733e-09	7.968465e+00	3.154673e+02
2.670000e-06	1.032151e-06	4.666129e-09	7.328042e+00	3.046517e+02
2.680000e-06	9.417550e-07	4.499340e-09	6.686247e+00	2.935426e+02
2.690000e-06	8.511995e-07	4.324127e-09	6.043324e+00	2.821097e+02
2.700000e-06	7.604755e-07	4.144955e-09	5.399204e+00	2.703381e+02
2.710000e-06	6.696598e-07	3.961510e-09	4.754433e+00	2.582291e+02
2.720000e-06	5.786605e-07	3.771559e-09	4.108359e+00	2.457938e+02
2.730000e-06	4.874372e-07	3.576963e-09	3.460694e+00	2.330420e+02
2.740000e-06	3.961584e-07	3.379522e-09	2.812635e+00	2.199721e+02
2.750000e-06	3.048570e-07	3.175904e-09	2.164416e+00	2.065676e+02
2.760000e-06	2.135003e-07	2.962882e-09	1.515804e+00	1.928000e+02
2.770000e-06	1.221211e-07	2.743224e-09	8.670321e-01	1.786382e+02
2.780000e-06	3.073446e-08	2.520010e-09	2.182077e-01	1.640589e+02
2.790000e-06	-6.065238e-08	2.291723e-09	-4.306182e-01	1.490531e+02
2.800000e-06	-1.520289e-07	2.057706e-09	-1.079371e+00	1.336252e+02
2.810000e-06	-2.433730e-07	1.818266e-09	-1.727894e+00	1.177845e+02
2.820000e-06	-3.346819e-07	1.571719e-09	-2.376166e+00	1.015343e+02
2.830000e-06	-4.259367e-07	1.317439e-09	-3.024054e+00	8.486391e+01
2.840000e-06	-5.171407e-07	1.054866e-09	-3.671582e+00	6.775025e+01
2.850000e-06	-6.082073e-07	7.824769e-10	-4.318135e+00	5.016812e+01
2.860000e-06	-6.990510e-07	5.021999e-10	-4.963104e+00	3.210624e+01
2.870000e-06	-7.897532e-07	2.192209e-10	-5.607069e+00	1.358016e+01
2.880000e-06	-8.803139e-07	-6.592324e-11	-6.250029e+00	-5.364922e+00
2.890000e-06	-9.706419e-07	-3.568978e-10	-6.891338e+00	-2.466369e+01
2.900000e-06	-1.060707e-06	-6.551980e-10	-7.530778e+00	-4.424756e+01
2.910000e-06	-1.150494e-06	-9.581121e-10	-8.168246e+00	-6.405931e+01
2.920000e-06	-1.240006e-06	-1.262852e-09	-8.803759e+00	-8.405638e+01
2.930000e-06	-1.329174e-06	-1.569983e-09	-9.436836e+00	-1.042000e+02
2.940000e-06	-1.417926e-06	-1.879352e-09	-1.006695e+01	-1.244357e+02
2.950000e-06	-1.506339e-06	-2.188270e-09	-1.069466e+01	-1.446771e+02
