# Temperatura_=_20.0
# Concentracion g/m^3_=_10000.0
# C_Vs_to_Am_M_A/Vsm_=_65563218390.804596
# pendiente_HvsI_1/m_=_3716.3
# ordenada_HvsI_A/m_=_1297.0
# frecuencia_Hz_=_269413.214944389

Tiempo_(s)	Campo_(V.s)	Magnetizacion_(V.s)	Campo_(kA/m)	Magnetizacion_(A/m)
0.000000e+00	-5.392897e-06	-9.799281e-09	-3.828965e+01	-6.405708e+02
1.000000e-08	-5.392075e-06	-9.800116e-09	-3.828381e+01	-6.405893e+02
2.000000e-08	-5.389620e-06	-9.796915e-09	-3.826638e+01	-6.404946e+02
3.000000e-08	-5.385624e-06	-9.791647e-09	-3.823801e+01	-6.402555e+02
4.000000e-08	-5.380343e-06	-9.787428e-09	-3.820051e+01	-6.398689e+02
5.000000e-08	-5.373658e-06	-9.779862e-09	-3.815304e+01	-6.393664e+02
6.000000e-08	-5.365645e-06	-9.767791e-09	-3.809616e+01	-6.388019e+02
7.000000e-08	-5.356107e-06	-9.746825e-09	-3.802844e+01	-6.382234e+02
8.000000e-08	-5.344805e-06	-9.726041e-09	-3.794819e+01	-6.376466e+02
9.000000e-08	-5.331790e-06	-9.769449e-09	-3.785578e+01	-6.370459e+02
1.000000e-07	-5.316622e-06	-9.785405e-09	-3.774809e+01	-6.363680e+02
1.100000e-07	-5.299194e-06	-9.748253e-09	-3.762435e+01	-6.355642e+02
1.200000e-07	-5.280154e-06	-9.692621e-09	-3.748917e+01	-6.346200e+02
1.300000e-07	-5.260200e-06	-9.589631e-09	-3.734749e+01	-6.335659e+02
1.400000e-07	-5.239435e-06	-9.708385e-09	-3.720006e+01	-6.324606e+02
1.500000e-07	-5.217398e-06	-9.741393e-09	-3.704360e+01	-6.313581e+02
1.600000e-07	-5.194122e-06	-9.502133e-09	-3.687834e+01	-6.302760e+02
1.700000e-07	-5.169688e-06	-9.626172e-09	-3.670486e+01	-6.291855e+02
1.800000e-07	-5.143470e-06	-9.697300e-09	-3.651871e+01	-6.280288e+02
1.900000e-07	-5.115666e-06	-9.464214e-09	-3.632130e+01	-6.267533e+02
2.000000e-07	-5.086799e-06	-9.549173e-09	-3.611634e+01	-6.253406e+02
2.100000e-07	-5.056551e-06	-9.563346e-09	-3.590158e+01	-6.238136e+02
2.200000e-07	-5.024966e-06	-9.386497e-09	-3.567733e+01	-6.222166e+02
2.300000e-07	-4.991949e-06	-9.493337e-09	-3.544291e+01	-6.205809e+02
2.400000e-07	-4.957194e-06	-9.483111e-09	-3.519615e+01	-6.188990e+02
2.500000e-07	-4.921110e-06	-9.362488e-09	-3.493995e+01	-6.171241e+02
2.600000e-07	-4.883771e-06	-9.402616e-09	-3.467484e+01	-6.151965e+02
2.700000e-07	-4.844890e-06	-9.316094e-09	-3.439878e+01	-6.130812e+02
2.800000e-07	-4.804761e-06	-9.281893e-09	-3.411387e+01	-6.107919e+02
2.900000e-07	-4.763242e-06	-9.315336e-09	-3.381909e+01	-6.083869e+02
3.000000e-07	-4.720031e-06	-9.224210e-09	-3.351229e+01	-6.059362e+02
3.100000e-07	-4.675351e-06	-9.186510e-09	-3.319505e+01	-6.034794e+02
3.200000e-07	-4.629250e-06	-9.189303e-09	-3.286774e+01	-6.010008e+02
3.300000e-07	-4.581842e-06	-9.129451e-09	-3.253114e+01	-5.984358e+02
3.400000e-07	-4.533029e-06	-9.059279e-09	-3.218457e+01	-5.957087e+02
3.500000e-07	-4.482402e-06	-9.026127e-09	-3.182512e+01	-5.927772e+02
3.600000e-07	-4.430113e-06	-8.989368e-09	-3.145387e+01	-5.896589e+02
3.700000e-07	-4.376529e-06	-8.940349e-09	-3.107342e+01	-5.864221e+02
3.800000e-07	-4.321699e-06	-8.914080e-09	-3.068412e+01	-5.831460e+02
3.900000e-07	-4.265702e-06	-8.842393e-09	-3.028654e+01	-5.798732e+02
4.000000e-07	-4.208432e-06	-8.769347e-09	-2.987993e+01	-5.765827e+02
4.100000e-07	-4.149654e-06	-8.751274e-09	-2.946260e+01	-5.731993e+02
4.200000e-07	-4.089646e-06	-8.690583e-09	-2.903654e+01	-5.696356e+02
4.300000e-07	-4.028604e-06	-8.625734e-09	-2.860315e+01	-5.658415e+02
4.400000e-07	-3.966438e-06	-8.571639e-09	-2.816176e+01	-5.618324e+02
4.500000e-07	-3.903197e-06	-8.500238e-09	-2.771275e+01	-5.576801e+02
4.600000e-07	-3.839148e-06	-8.447063e-09	-2.725800e+01	-5.534705e+02
4.700000e-07	-3.774198e-06	-8.375618e-09	-2.679686e+01	-5.492536e+02
4.800000e-07	-3.707774e-06	-8.303493e-09	-2.632525e+01	-5.450137e+02
4.900000e-07	-3.640050e-06	-8.237680e-09	-2.584441e+01	-5.406766e+02
5.000000e-07	-3.571526e-06	-8.178144e-09	-2.535788e+01	-5.361504e+02
5.100000e-07	-3.502231e-06	-8.113542e-09	-2.486589e+01	-5.313748e+02
5.200000e-07	-3.432026e-06	-8.023719e-09	-2.436744e+01	-5.263524e+02
5.300000e-07	-3.360857e-06	-7.935466e-09	-2.386213e+01	-5.211441e+02
5.400000e-07	-3.288852e-06	-7.852906e-09	-2.335090e+01	-5.158324e+02
5.500000e-07	-3.216050e-06	-7.783142e-09	-2.283400e+01	-5.104741e+02
5.600000e-07	-3.142082e-06	-7.701245e-09	-2.230883e+01	-5.050693e+02
5.700000e-07	-3.066865e-06	-7.606386e-09	-2.177479e+01	-4.995619e+02
5.800000e-07	-2.990758e-06	-7.520845e-09	-2.123442e+01	-4.938720e+02
5.900000e-07	-2.913860e-06	-7.435905e-09	-2.068845e+01	-4.879378e+02
6.000000e-07	-2.836096e-06	-7.340047e-09	-2.013632e+01	-4.817466e+02
6.100000e-07	-2.757383e-06	-7.234841e-09	-1.957746e+01	-4.753354e+02
6.200000e-07	-2.677692e-06	-7.134897e-09	-1.901165e+01	-4.687658e+02
6.300000e-07	-2.597048e-06	-7.040602e-09	-1.843907e+01	-4.620855e+02
6.400000e-07	-2.515627e-06	-6.940808e-09	-1.786099e+01	-4.553010e+02
6.500000e-07	-2.433528e-06	-6.828720e-09	-1.727808e+01	-4.483732e+02
6.600000e-07	-2.350627e-06	-6.709728e-09	-1.668949e+01	-4.412383e+02
6.700000e-07	-2.267068e-06	-6.594042e-09	-1.609621e+01	-4.338401e+02
6.800000e-07	-2.183036e-06	-6.482573e-09	-1.549958e+01	-4.261560e+02
6.900000e-07	-2.098542e-06	-6.364295e-09	-1.489968e+01	-4.182039e+02
7.000000e-07	-2.013504e-06	-6.236959e-09	-1.429591e+01	-4.100278e+02
7.100000e-07	-1.927809e-06	-6.107904e-09	-1.368747e+01	-4.016714e+02
7.200000e-07	-1.841517e-06	-5.980348e-09	-1.307479e+01	-3.931558e+02
7.300000e-07	-1.754797e-06	-5.845569e-09	-1.245909e+01	-3.844694e+02
7.400000e-07	-1.667674e-06	-5.699078e-09	-1.184051e+01	-3.755760e+02
7.500000e-07	-1.580047e-06	-5.552719e-09	-1.121836e+01	-3.664327e+02
7.600000e-07	-1.492031e-06	-5.413363e-09	-1.059344e+01	-3.570081e+02
7.700000e-07	-1.403734e-06	-5.274030e-09	-9.966528e+00	-3.472918e+02
7.800000e-07	-1.315102e-06	-5.121852e-09	-9.337242e+00	-3.372917e+02
7.900000e-07	-1.226048e-06	-4.961845e-09	-8.704960e+00	-3.270233e+02
8.000000e-07	-1.136580e-06	-4.802193e-09	-8.069736e+00	-3.164966e+02
8.100000e-07	-1.046708e-06	-4.640242e-09	-7.431644e+00	-3.057096e+02
8.200000e-07	-9.564596e-07	-4.469880e-09	-6.790877e+00	-2.946481e+02
8.300000e-07	-8.658967e-07	-4.289579e-09	-6.147879e+00	-2.832925e+02
8.400000e-07	-7.750754e-07	-4.108207e-09	-5.503046e+00	-2.716262e+02
8.500000e-07	-6.840236e-07	-3.925791e-09	-4.856577e+00	-2.596398e+02
8.600000e-07	-5.927335e-07	-3.741054e-09	-4.208416e+00	-2.473312e+02
8.700000e-07	-5.012442e-07	-3.550152e-09	-3.558841e+00	-2.347003e+02
8.800000e-07	-4.096594e-07	-3.351838e-09	-2.908588e+00	-2.217435e+02
8.900000e-07	-3.180267e-07	-3.150805e-09	-2.257994e+00	-2.084495e+02
9.000000e-07	-2.263446e-07	-2.946637e-09	-1.607050e+00	-1.948009e+02
9.100000e-07	-1.346572e-07	-2.734850e-09	-9.560679e-01	-1.807777e+02
9.200000e-07	-4.293125e-08	-2.513061e-09	-3.048125e-01	-1.663633e+02
9.300000e-07	4.881206e-08	-2.285732e-09	3.465663e-01	-1.515462e+02
9.400000e-07	1.405509e-07	-2.055018e-09	9.979134e-01	-1.363183e+02
9.500000e-07	2.322552e-07	-1.817822e-09	1.649015e+00	-1.206693e+02
9.600000e-07	3.239104e-07	-1.569743e-09	2.299769e+00	-1.045820e+02
9.700000e-07	4.155652e-07	-1.316239e-09	2.950519e+00	-8.803241e+01
9.800000e-07	5.071716e-07	-1.061519e-09	3.600926e+00	-7.099597e+01
9.900000e-07	5.986518e-07	-8.000681e-10	4.250436e+00	-5.345998e+01
1.000000e-06	6.899802e-07	-5.248570e-10	4.898869e+00	-3.543453e+01
1.010000e-06	7.811362e-07	-2.387302e-10	5.546078e+00	-1.695645e+01
1.020000e-06	8.720565e-07	4.981059e-11	6.191613e+00	1.917712e+00
1.030000e-06	9.627007e-07	3.418596e-10	6.835189e+00	2.112733e+01
1.040000e-06	1.053000e-06	6.416147e-10	7.476313e+00	4.062377e+01
1.050000e-06	1.142869e-06	9.459020e-10	8.114384e+00	6.037708e+01
1.060000e-06	1.232368e-06	1.250193e-09	8.749831e+00	8.036743e+01
1.070000e-06	1.321514e-06	1.555420e-09	9.382770e+00	1.005637e+02
1.080000e-06	1.410226e-06	1.864960e-09	1.001262e+01	1.209001e+02
1.090000e-06	1.498483e-06	2.178107e-09	1.063925e+01	1.412648e+02
1.100000e-06	1.586334e-06	2.489097e-09	1.126299e+01	1.615101e+02
1.110000e-06	1.673821e-06	2.793782e-09	1.188415e+01	1.814824e+02
1.120000e-06	1.760870e-06	3.092513e-09	1.250220e+01	2.010586e+02
1.130000e-06	1.847406e-06	3.386822e-09	1.311661e+01	2.201714e+02
1.140000e-06	1.933452e-06	3.674022e-09	1.372753e+01	2.388087e+02
1.150000e-06	2.018992e-06	3.948994e-09	1.433487e+01	2.569866e+02
1.160000e-06	2.103995e-06	4.215911e-09	1.493839e+01	2.747114e+02
1.170000e-06	2.188456e-06	4.477225e-09	1.553807e+01	2.919492e+02
1.180000e-06	2.272438e-06	4.731756e-09	1.613434e+01	3.086231e+02
1.190000e-06	2.355861e-06	4.975304e-09	1.672664e+01	3.246395e+02
1.200000e-06	2.438484e-06	5.204593e-09	1.731327e+01	3.399298e+02
1.210000e-06	2.520262e-06	5.423103e-09	1.789389e+01	3.544845e+02
1.220000e-06	2.601293e-06	5.634754e-09	1.846922e+01	3.683586e+02
1.230000e-06	2.681550e-06	5.839077e-09	1.903904e+01	3.816452e+02
1.240000e-06	2.760930e-06	6.031639e-09	1.960264e+01	3.944301e+02
1.250000e-06	2.839469e-06	6.215009e-09	2.016027e+01	4.067531e+02
1.260000e-06	2.917215e-06	6.393951e-09	2.071226e+01	4.185959e+02
1.270000e-06	2.994187e-06	6.567586e-09	2.125877e+01	4.299062e+02
1.280000e-06	3.070324e-06	6.730180e-09	2.179934e+01	4.406402e+02
1.290000e-06	3.145463e-06	6.882375e-09	2.233283e+01	4.508019e+02
1.300000e-06	3.219488e-06	7.029655e-09	2.285841e+01	4.604540e+02
1.310000e-06	3.292415e-06	7.173641e-09	2.337620e+01	4.696945e+02
1.320000e-06	3.364394e-06	7.311882e-09	2.388725e+01	4.786124e+02
1.330000e-06	3.435496e-06	7.443186e-09	2.439207e+01	4.872472e+02
1.340000e-06	3.505705e-06	7.569328e-09	2.489055e+01	4.955752e+02
1.350000e-06	3.574987e-06	7.693824e-09	2.538246e+01	5.035307e+02
1.360000e-06	3.643409e-06	7.812001e-09	2.586826e+01	5.110480e+02
1.370000e-06	3.710941e-06	7.917994e-09	2.634773e+01	5.181018e+02
1.380000e-06	3.777327e-06	8.014484e-09	2.681907e+01	5.247233e+02
1.390000e-06	3.842468e-06	8.107842e-09	2.728158e+01	5.309844e+02
1.400000e-06	3.906555e-06	8.201071e-09	2.773659e+01	5.369631e+02
1.410000e-06	3.969681e-06	8.289306e-09	2.818479e+01	5.427101e+02
1.420000e-06	4.031710e-06	8.371056e-09	2.862520e+01	5.482366e+02
1.430000e-06	4.092689e-06	8.450268e-09	2.905815e+01	5.535273e+02
1.440000e-06	4.152710e-06	8.529077e-09	2.948430e+01	5.585684e+02
1.450000e-06	4.211521e-06	8.604148e-09	2.990186e+01	5.633698e+02
1.460000e-06	4.268877e-06	8.672561e-09	3.030909e+01	5.679673e+02
1.470000e-06	4.324924e-06	8.737217e-09	3.070702e+01	5.724054e+02
1.480000e-06	4.379798e-06	8.800547e-09	3.109663e+01	5.767114e+02
1.490000e-06	4.433444e-06	8.862135e-09	3.147752e+01	5.808807e+02
1.500000e-06	4.485762e-06	8.921332e-09	3.184897e+01	5.848836e+02
1.510000e-06	4.536514e-06	8.977568e-09	3.220931e+01	5.886887e+02
1.520000e-06	4.585645e-06	9.031728e-09	3.255814e+01	5.922896e+02
1.530000e-06	4.633310e-06	9.084969e-09	3.289656e+01	5.957142e+02
1.540000e-06	4.679645e-06	9.135711e-09	3.322554e+01	5.990112e+02
1.550000e-06	4.724767e-06	9.181714e-09	3.354591e+01	6.022205e+02
1.560000e-06	4.768605e-06	9.224908e-09	3.385716e+01	6.053459e+02
1.570000e-06	4.811002e-06	9.269483e-09	3.415818e+01	6.083490e+02
1.580000e-06	4.851892e-06	9.314281e-09	3.444850e+01	6.111704e+02
1.590000e-06	4.891347e-06	9.354413e-09	3.472863e+01	6.137658e+02
1.600000e-06	4.929483e-06	9.388392e-09	3.499940e+01	6.161371e+02
1.610000e-06	4.966382e-06	9.421347e-09	3.526138e+01	6.183386e+02
1.620000e-06	5.002045e-06	9.455739e-09	3.551459e+01	6.204520e+02
1.630000e-06	5.036191e-06	9.487814e-09	3.575703e+01	6.225455e+02
1.640000e-06	5.068784e-06	9.515668e-09	3.598844e+01	6.246374e+02
1.650000e-06	5.100028e-06	9.542633e-09	3.621027e+01	6.266864e+02
1.660000e-06	5.129949e-06	9.571638e-09	3.642271e+01	6.286136e+02
1.670000e-06	5.158634e-06	9.599056e-09	3.662637e+01	6.303436e+02
1.680000e-06	5.185955e-06	9.620458e-09	3.682035e+01	6.318428e+02
1.690000e-06	5.211576e-06	9.636566e-09	3.700227e+01	6.331343e+02
1.700000e-06	5.235541e-06	9.652448e-09	3.717242e+01	6.342834e+02
1.710000e-06	5.258084e-06	9.669909e-09	3.733247e+01	6.353636e+02
1.720000e-06	5.279317e-06	9.685808e-09	3.748322e+01	6.364229e+02
1.730000e-06	5.299298e-06	9.699785e-09	3.762509e+01	6.374678e+02
1.740000e-06	5.317862e-06	9.714727e-09	3.775690e+01	6.384703e+02
1.750000e-06	5.334830e-06	9.730168e-09	3.787737e+01	6.393899e+02
1.760000e-06	5.350211e-06	9.744687e-09	3.798657e+01	6.401966e+02
1.770000e-06	5.364034e-06	9.755684e-09	3.808472e+01	6.408819e+02
1.780000e-06	5.376319e-06	9.762665e-09	3.817194e+01	6.414548e+02
1.790000e-06	5.386882e-06	9.769714e-09	3.824694e+01	6.419310e+02
1.800000e-06	5.395633e-06	9.776033e-09	3.830907e+01	6.423235e+02
1.810000e-06	5.402814e-06	9.779810e-09	3.836006e+01	6.426410e+02
1.820000e-06	5.408562e-06	9.781452e-09	3.840087e+01	6.428927e+02
1.830000e-06	5.412934e-06	9.783973e-09	3.843191e+01	6.430914e+02
1.840000e-06	5.415759e-06	9.789505e-09	3.845196e+01	6.432498e+02
1.850000e-06	5.416891e-06	9.794811e-09	3.846000e+01	6.433704e+02
1.860000e-06	5.416513e-06	9.797586e-09	3.845732e+01	6.434365e+02
1.870000e-06	5.414696e-06	9.795658e-09	3.844442e+01	6.434130e+02
1.880000e-06	5.411532e-06	9.794696e-09	3.842195e+01	6.432610e+02
1.890000e-06	5.407020e-06	9.790772e-09	3.838992e+01	6.429590e+02
1.900000e-06	5.400878e-06	9.782035e-09	3.834631e+01	6.425188e+02
1.910000e-06	5.393204e-06	9.773761e-09	3.829183e+01	6.419840e+02
1.920000e-06	5.384268e-06	9.775500e-09	3.822838e+01	6.414094e+02
1.930000e-06	5.373995e-06	9.796476e-09	3.815544e+01	6.408325e+02
1.940000e-06	5.362225e-06	9.731486e-09	3.807187e+01	6.402513e+02
1.950000e-06	5.348378e-06	9.687264e-09	3.797356e+01	6.396257e+02
1.960000e-06	5.332000e-06	9.692089e-09	3.785728e+01	6.389002e+02
1.970000e-06	5.313520e-06	9.739432e-09	3.772606e+01	6.380374e+02
1.980000e-06	5.293958e-06	9.798747e-09	3.758717e+01	6.370418e+02
1.990000e-06	5.274117e-06	9.601184e-09	3.744631e+01	6.359589e+02
2.000000e-06	5.253314e-06	9.608731e-09	3.729861e+01	6.348501e+02
2.010000e-06	5.230559e-06	9.803479e-09	3.713704e+01	6.337570e+02
2.020000e-06	5.206470e-06	9.568880e-09	3.696601e+01	6.326775e+02
2.030000e-06	5.181246e-06	9.516410e-09	3.678692e+01	6.315673e+02
2.040000e-06	5.154308e-06	9.725298e-09	3.659566e+01	6.303664e+02
2.050000e-06	5.126193e-06	9.533335e-09	3.639604e+01	6.290337e+02
2.060000e-06	5.096801e-06	9.520744e-09	3.618736e+01	6.275690e+02
2.070000e-06	5.065502e-06	9.666116e-09	3.596513e+01	6.260078e+02
2.080000e-06	5.032768e-06	9.446996e-09	3.573272e+01	6.243930e+02
2.090000e-06	4.998722e-06	9.476614e-09	3.549099e+01	6.227419e+02
2.100000e-06	4.963343e-06	9.501724e-09	3.523981e+01	6.210288e+02
2.110000e-06	4.926921e-06	9.358843e-09	3.498121e+01	6.191972e+02
2.120000e-06	4.888833e-06	9.502165e-09	3.471079e+01	6.171935e+02
2.130000e-06	4.848927e-06	9.373143e-09	3.442745e+01	6.150013e+02
2.140000e-06	4.807715e-06	9.263395e-09	3.413484e+01	6.126554e+02
2.150000e-06	4.765140e-06	9.387802e-09	3.383256e+01	6.102240e+02
2.160000e-06	4.721450e-06	9.234728e-09	3.352236e+01	6.077692e+02
2.170000e-06	4.676413e-06	9.194125e-09	3.320260e+01	6.053089e+02
2.180000e-06	4.629664e-06	9.207418e-09	3.287068e+01	6.028041e+02
2.190000e-06	4.581597e-06	9.137898e-09	3.252940e+01	6.001802e+02
2.200000e-06	4.532194e-06	9.150690e-09	3.217864e+01	5.973702e+02
2.210000e-06	4.481368e-06	9.042857e-09	3.181778e+01	5.943555e+02
2.220000e-06	4.429108e-06	8.999574e-09	3.144673e+01	5.911781e+02
2.230000e-06	4.375246e-06	8.954322e-09	3.106431e+01	5.879167e+02
2.240000e-06	4.319890e-06	8.893541e-09	3.067128e+01	5.846405e+02
2.250000e-06	4.263234e-06	8.902809e-09	3.026902e+01	5.813670e+02
2.260000e-06	4.205425e-06	8.781281e-09	2.985858e+01	5.780491e+02
2.270000e-06	4.146570e-06	8.762636e-09	2.944071e+01	5.746004e+02
2.280000e-06	4.086764e-06	8.705138e-09	2.901608e+01	5.709436e+02
2.290000e-06	4.025786e-06	8.609018e-09	2.858314e+01	5.670545e+02
2.300000e-06	3.963262e-06	8.596049e-09	2.813922e+01	5.629754e+02
2.310000e-06	3.899584e-06	8.485111e-09	2.768710e+01	5.587900e+02
2.320000e-06	3.835009e-06	8.459141e-09	2.722862e+01	5.545751e+02
2.330000e-06	3.769406e-06	8.395767e-09	2.676283e+01	5.503549e+02
2.340000e-06	3.702804e-06	8.311296e-09	2.628996e+01	5.460860e+02
2.350000e-06	3.635288e-06	8.260738e-09	2.581060e+01	5.416808e+02
2.360000e-06	3.566848e-06	8.154394e-09	2.532467e+01	5.370550e+02
2.370000e-06	3.497072e-06	8.114455e-09	2.482926e+01	5.321727e+02
2.380000e-06	3.426072e-06	8.034702e-09	2.432516e+01	5.270635e+02
2.390000e-06	3.354240e-06	7.956947e-09	2.381515e+01	5.218028e+02
2.400000e-06	3.281593e-06	7.871339e-09	2.329935e+01	5.164680e+02
2.410000e-06	3.208101e-06	7.775615e-09	2.277756e+01	5.110943e+02
2.420000e-06	3.133715e-06	7.718775e-09	2.224942e+01	5.056562e+02
2.430000e-06	3.058394e-06	7.611477e-09	2.171464e+01	5.000827e+02
2.440000e-06	2.982078e-06	7.528420e-09	2.117280e+01	4.942964e+02
2.450000e-06	2.904688e-06	7.442980e-09	2.062333e+01	4.882538e+02
2.460000e-06	2.826160e-06	7.351194e-09	2.006578e+01	4.819645e+02
2.470000e-06	2.746700e-06	7.255346e-09	1.950161e+01	4.754802e+02
2.480000e-06	2.666580e-06	7.137796e-09	1.893275e+01	4.688609e+02
2.490000e-06	2.585774e-06	7.040229e-09	1.835903e+01	4.621396e+02
2.500000e-06	2.504274e-06	6.934637e-09	1.778038e+01	4.553025e+02
2.510000e-06	2.422047e-06	6.839225e-09	1.719657e+01	4.482968e+02
2.520000e-06	2.339118e-06	6.730117e-09	1.660777e+01	4.410578e+02
2.530000e-06	2.255659e-06	6.613579e-09	1.601521e+01	4.335411e+02
2.540000e-06	2.171707e-06	6.498244e-09	1.541915e+01	4.257415e+02
2.550000e-06	2.087131e-06	6.371181e-09	1.481866e+01	4.176904e+02
2.560000e-06	2.001718e-06	6.248465e-09	1.421223e+01	4.094351e+02
2.570000e-06	1.915457e-06	6.113241e-09	1.359977e+01	4.010120e+02
2.580000e-06	1.828533e-06	5.988379e-09	1.298261e+01	3.924287e+02
2.590000e-06	1.741123e-06	5.864439e-09	1.236200e+01	3.836616e+02
2.600000e-06	1.653311e-06	5.730337e-09	1.173853e+01	3.746693e+02
2.610000e-06	1.565082e-06	5.586911e-09	1.111211e+01	3.654118e+02
2.620000e-06	1.476469e-06	5.436768e-09	1.048295e+01	3.558660e+02
2.630000e-06	1.387570e-06	5.290881e-09	9.851768e+00	3.460301e+02
2.640000e-06	1.298308e-06	5.134975e-09	9.218008e+00	3.359167e+02
2.650000e-06	1.208621e-06	4.974536e-09	8.581224e+00	3.255403e+02
2.660000e-06	1.118607e-06	4.810424e-09	7.942129e+00	3.149066e+02
2.670000e-06	1.028365e-06	4.649487e-09	7.301404e+00	3.040077e+02
2.680000e-06	9.379320e-07	4.485980e-09	6.659331e+00	2.928264e+02
2.690000e-06	8.472862e-07	4.311189e-09	6.015744e+00	2.813433e+02
2.700000e-06	7.564964e-07	4.132340e-09	5.371135e+00	2.695446e+02
2.710000e-06	6.656355e-07	3.945777e-09	4.726022e+00	2.574243e+02
2.720000e-06	5.746572e-07	3.757057e-09	4.080074e+00	2.449818e+02
2.730000e-06	4.835682e-07	3.562747e-09	3.433341e+00	2.322162e+02
2.740000e-06	3.924112e-07	3.361007e-09	2.786125e+00	2.191210e+02
2.750000e-06	3.011849e-07	3.153163e-09	2.138417e+00	2.056820e+02
2.760000e-06	2.098811e-07	2.939709e-09	1.490159e+00	1.918800e+02
2.770000e-06	1.185361e-07	2.723927e-09	8.416077e-01	1.776959e+02
2.780000e-06	2.719264e-08	2.502192e-09	1.930681e-01	1.631151e+02
2.790000e-06	-6.416860e-08	2.273923e-09	-4.555980e-01	1.481281e+02
2.800000e-06	-1.555139e-07	2.039761e-09	-1.104151e+00	1.327266e+02
2.810000e-06	-2.468420e-07	1.799817e-09	-1.752582e+00	1.168979e+02
2.820000e-06	-3.381525e-07	1.550238e-09	-2.400887e+00	1.006215e+02
2.830000e-06	-4.293790e-07	1.290291e-09	-3.048597e+00	8.387193e+01
2.840000e-06	-5.204668e-07	1.023453e-09	-3.695322e+00	6.662810e+01
2.850000e-06	-6.113780e-07	7.504847e-10	-4.340792e+00	4.888570e+01
2.860000e-06	-7.021613e-07	4.713013e-10	-4.985355e+00	3.066609e+01
2.870000e-06	-7.928411e-07	1.885556e-10	-5.629183e+00	1.201578e+01
2.880000e-06	-8.833988e-07	-9.621814e-11	-6.272144e+00	-7.004829e+00
2.890000e-06	-9.737827e-07	-3.864782e-10	-6.913871e+00	-2.633847e+01
2.900000e-06	-1.063893e-06	-6.851327e-10	-7.553657e+00	-4.594431e+01
2.910000e-06	-1.153669e-06	-9.905344e-10	-8.191065e+00	-6.579855e+01
2.920000e-06	-1.243126e-06	-1.299917e-09	-8.826214e+00	-8.587970e+01
2.930000e-06	-1.332204e-06	-1.611081e-09	-9.458667e+00	-1.061446e+02
2.940000e-06	-1.420910e-06	-1.921465e-09	-1.008848e+01	-1.265086e+02
2.950000e-06	-1.509325e-06	-2.228456e-09	-1.071623e+01	-1.468424e+02
