# Temperatura_=_20.0
# Concentracion g/m^3_=_10000.0
# C_Vs_to_Am_M_A/Vsm_=_65563218390.804596
# pendiente_HvsI_1/m_=_3716.3
# ordenada_HvsI_A/m_=_1297.0
# frecuencia_Hz_=_269401.8082641397

Tiempo_(s)	Campo_(V.s)	Magnetizacion_(V.s)	Campo_(kA/m)	Magnetizacion_(A/m)
0.000000e+00	-5.400896e-06	-9.841666e-09	-3.828999e+01	-6.428754e+02
1.000000e-08	-5.398856e-06	-9.840786e-09	-3.827553e+01	-6.428207e+02
2.000000e-08	-5.395181e-06	-9.836443e-09	-3.824948e+01	-6.426931e+02
3.000000e-08	-5.390254e-06	-9.832772e-09	-3.821455e+01	-6.424641e+02
4.000000e-08	-5.383973e-06	-9.830323e-09	-3.817002e+01	-6.421227e+02
5.000000e-08	-5.376339e-06	-9.823807e-09	-3.811590e+01	-6.416776e+02
6.000000e-08	-5.367160e-06	-9.809310e-09	-3.805082e+01	-6.411471e+02
7.000000e-08	-5.356241e-06	-9.781977e-09	-3.797341e+01	-6.405435e+02
8.000000e-08	-5.343625e-06	-9.788201e-09	-3.788396e+01	-6.398643e+02
9.000000e-08	-5.328998e-06	-9.834321e-09	-3.778027e+01	-6.390986e+02
1.000000e-07	-5.312148e-06	-9.813300e-09	-3.766081e+01	-6.382439e+02
1.100000e-07	-5.293494e-06	-9.784147e-09	-3.752856e+01	-6.373214e+02
1.200000e-07	-5.273762e-06	-9.667716e-09	-3.738867e+01	-6.363758e+02
1.300000e-07	-5.253331e-06	-9.655423e-09	-3.724382e+01	-6.354556e+02
1.400000e-07	-5.231650e-06	-9.831708e-09	-3.709011e+01	-6.345823e+02
1.500000e-07	-5.208488e-06	-9.646401e-09	-3.692591e+01	-6.337282e+02
1.600000e-07	-5.184325e-06	-9.570648e-09	-3.675460e+01	-6.328208e+02
1.700000e-07	-5.158569e-06	-9.762773e-09	-3.657200e+01	-6.317738e+02
1.800000e-07	-5.131026e-06	-9.605870e-09	-3.637673e+01	-6.305327e+02
1.900000e-07	-5.102385e-06	-9.525750e-09	-3.617368e+01	-6.291068e+02
2.000000e-07	-5.072472e-06	-9.667351e-09	-3.596161e+01	-6.275660e+02
2.100000e-07	-5.041185e-06	-9.501947e-09	-3.573980e+01	-6.260014e+02
2.200000e-07	-5.008627e-06	-9.453267e-09	-3.550898e+01	-6.244680e+02
2.300000e-07	-4.974351e-06	-9.582891e-09	-3.526598e+01	-6.229435e+02
2.400000e-07	-4.938523e-06	-9.450556e-09	-3.501197e+01	-6.213289e+02
2.500000e-07	-4.901503e-06	-9.424658e-09	-3.474951e+01	-6.194959e+02
2.600000e-07	-4.862991e-06	-9.419070e-09	-3.447648e+01	-6.173566e+02
2.700000e-07	-4.823158e-06	-9.319411e-09	-3.419408e+01	-6.149177e+02
2.800000e-07	-4.782006e-06	-9.351549e-09	-3.390233e+01	-6.122860e+02
2.900000e-07	-4.739140e-06	-9.316951e-09	-3.359843e+01	-6.096199e+02
3.000000e-07	-4.694752e-06	-9.216319e-09	-3.328374e+01	-6.070499e+02
3.100000e-07	-4.648984e-06	-9.223961e-09	-3.295926e+01	-6.046109e+02
3.200000e-07	-4.601827e-06	-9.206190e-09	-3.262494e+01	-6.022235e+02
3.300000e-07	-4.553345e-06	-9.130115e-09	-3.228123e+01	-5.997352e+02
3.400000e-07	-4.503123e-06	-9.075069e-09	-3.192518e+01	-5.970001e+02
3.500000e-07	-4.451085e-06	-9.049980e-09	-3.155624e+01	-5.939527e+02
3.600000e-07	-4.397673e-06	-9.000828e-09	-3.117758e+01	-5.906380e+02
3.700000e-07	-4.343054e-06	-8.965373e-09	-3.079035e+01	-5.871816e+02
3.800000e-07	-4.287260e-06	-8.931219e-09	-3.039480e+01	-5.837182e+02
3.900000e-07	-4.230268e-06	-8.828593e-09	-2.999075e+01	-5.803200e+02
4.000000e-07	-4.171842e-06	-8.795692e-09	-2.957654e+01	-5.769618e+02
4.100000e-07	-4.112140e-06	-8.766544e-09	-2.915328e+01	-5.735411e+02
4.200000e-07	-4.051407e-06	-8.688465e-09	-2.872270e+01	-5.699384e+02
4.300000e-07	-3.989525e-06	-8.629229e-09	-2.828399e+01	-5.660814e+02
4.400000e-07	-3.926537e-06	-8.561964e-09	-2.783743e+01	-5.619780e+02
4.500000e-07	-3.862650e-06	-8.506295e-09	-2.738450e+01	-5.577029e+02
4.600000e-07	-3.797825e-06	-8.444549e-09	-2.692492e+01	-5.533477e+02
4.700000e-07	-3.731659e-06	-8.366342e-09	-2.645583e+01	-5.489670e+02
4.800000e-07	-3.664206e-06	-8.293099e-09	-2.597762e+01	-5.445503e+02
4.900000e-07	-3.595867e-06	-8.232682e-09	-2.549313e+01	-5.400330e+02
5.000000e-07	-3.526734e-06	-8.173445e-09	-2.500300e+01	-5.353370e+02
5.100000e-07	-3.456697e-06	-8.089826e-09	-2.450647e+01	-5.304141e+02
5.200000e-07	-3.385735e-06	-7.998953e-09	-2.400338e+01	-5.252676e+02
5.300000e-07	-3.313867e-06	-7.917467e-09	-2.349387e+01	-5.199415e+02
5.400000e-07	-3.241114e-06	-7.840879e-09	-2.297808e+01	-5.144875e+02
5.500000e-07	-3.167311e-06	-7.765154e-09	-2.245485e+01	-5.089329e+02
5.600000e-07	-3.092285e-06	-7.669817e-09	-2.192295e+01	-5.032672e+02
5.700000e-07	-3.016249e-06	-7.574839e-09	-2.138389e+01	-4.974546e+02
5.800000e-07	-2.939371e-06	-7.494557e-09	-2.083885e+01	-4.914614e+02
5.900000e-07	-2.861707e-06	-7.404825e-09	-2.028826e+01	-4.852782e+02
6.000000e-07	-2.783143e-06	-7.299106e-09	-1.973127e+01	-4.789236e+02
6.100000e-07	-2.703544e-06	-7.187538e-09	-1.916694e+01	-4.724265e+02
6.200000e-07	-2.622935e-06	-7.090953e-09	-1.859546e+01	-4.658002e+02
6.300000e-07	-2.541491e-06	-6.995796e-09	-1.801806e+01	-4.590263e+02
6.400000e-07	-2.459473e-06	-6.889272e-09	-1.743659e+01	-4.520577e+02
6.500000e-07	-2.376762e-06	-6.770680e-09	-1.685020e+01	-4.448420e+02
6.600000e-07	-2.293308e-06	-6.652722e-09	-1.625855e+01	-4.373485e+02
6.700000e-07	-2.209322e-06	-6.544329e-09	-1.566313e+01	-4.295842e+02
6.800000e-07	-2.124886e-06	-6.425618e-09	-1.506452e+01	-4.215883e+02
6.900000e-07	-2.039868e-06	-6.294892e-09	-1.446178e+01	-4.134078e+02
7.000000e-07	-1.954204e-06	-6.159283e-09	-1.385445e+01	-4.050699e+02
7.100000e-07	-1.868025e-06	-6.029926e-09	-1.324348e+01	-3.965653e+02
7.200000e-07	-1.781416e-06	-5.899281e-09	-1.262946e+01	-3.878524e+02
7.300000e-07	-1.694376e-06	-5.756559e-09	-1.201238e+01	-3.788784e+02
7.400000e-07	-1.606800e-06	-5.607459e-09	-1.139151e+01	-3.696044e+02
7.500000e-07	-1.518756e-06	-5.462515e-09	-1.076732e+01	-3.600219e+02
7.600000e-07	-1.430372e-06	-5.321866e-09	-1.014071e+01	-3.501500e+02
7.700000e-07	-1.341606e-06	-5.168851e-09	-9.511400e+00	-3.400198e+02
7.800000e-07	-1.252475e-06	-5.004735e-09	-8.879502e+00	-3.296530e+02
7.900000e-07	-1.162944e-06	-4.837949e-09	-8.244763e+00	-3.190486e+02
8.000000e-07	-1.072947e-06	-4.673879e-09	-7.606728e+00	-3.081834e+02
8.100000e-07	-9.825545e-07	-4.505572e-09	-6.965882e+00	-2.970236e+02
8.200000e-07	-8.918360e-07	-4.326416e-09	-6.322727e+00	-2.855409e+02
8.300000e-07	-8.009319e-07	-4.143392e-09	-5.678257e+00	-2.737233e+02
8.400000e-07	-7.098867e-07	-3.959491e-09	-5.032786e+00	-2.615755e+02
8.500000e-07	-6.186233e-07	-3.773455e-09	-4.385769e+00	-2.491099e+02
8.600000e-07	-5.271045e-07	-3.580164e-09	-3.736940e+00	-2.363349e+02
8.700000e-07	-4.354041e-07	-3.376199e-09	-3.086825e+00	-2.232448e+02
8.800000e-07	-3.436189e-07	-3.167844e-09	-2.436108e+00	-2.098187e+02
8.900000e-07	-2.517983e-07	-2.960559e-09	-1.785140e+00	-1.960245e+02
9.000000e-07	-1.599399e-07	-2.747842e-09	-1.133904e+00	-1.818286e+02
9.100000e-07	-6.806940e-08	-2.524082e-09	-4.825823e-01	-1.672045e+02
9.200000e-07	2.376763e-08	-2.292741e-09	1.685021e-01	-1.521382e+02
9.300000e-07	1.155970e-07	-2.059595e-09	8.195323e-01	-1.366280e+02
9.400000e-07	2.074559e-07	-1.821184e-09	1.470772e+00	-1.206795e+02
9.500000e-07	2.993439e-07	-1.570178e-09	2.122218e+00	-1.042985e+02
9.600000e-07	3.911454e-07	-1.308326e-09	2.773050e+00	-8.748438e+01
9.700000e-07	4.828241e-07	-1.044119e-09	3.423012e+00	-7.022695e+01
9.800000e-07	5.744112e-07	-7.805312e-10	4.072324e+00	-5.250978e+01
9.900000e-07	6.658700e-07	-5.057931e-10	4.720727e+00	-3.431896e+01
1.000000e-06	7.572100e-07	-2.170864e-10	5.368288e+00	-1.565446e+01
1.010000e-06	8.484431e-07	7.640136e-11	6.015090e+00	3.461015e+00
1.020000e-06	9.394365e-07	3.714358e-10	6.660194e+00	2.298016e+01
1.030000e-06	1.030115e-06	6.726959e-10	7.303069e+00	4.283750e+01
1.040000e-06	1.120398e-06	9.830908e-10	7.943132e+00	6.296107e+01
1.050000e-06	1.210209e-06	1.296863e-09	8.579850e+00	8.328265e+01
1.060000e-06	1.299598e-06	1.609511e-09	9.213579e+00	1.037404e+02
1.070000e-06	1.388615e-06	1.921996e-09	9.844670e+00	1.242720e+02
1.080000e-06	1.477221e-06	2.235817e-09	1.047285e+01	1.448013e+02
1.090000e-06	1.565345e-06	2.549268e-09	1.109761e+01	1.652293e+02
1.100000e-06	1.652993e-06	2.857328e-09	1.171900e+01	1.854343e+02
1.110000e-06	1.740173e-06	3.154968e-09	1.233707e+01	2.052871e+02
1.120000e-06	1.826933e-06	3.448768e-09	1.295216e+01	2.246740e+02
1.130000e-06	1.913279e-06	3.740058e-09	1.356431e+01	2.435166e+02
1.140000e-06	1.999066e-06	4.021181e-09	1.417250e+01	2.617792e+02
1.150000e-06	2.084249e-06	4.288516e-09	1.477641e+01	2.794585e+02
1.160000e-06	2.168893e-06	4.544690e-09	1.537650e+01	2.965617e+02
1.170000e-06	2.252986e-06	4.795629e-09	1.597268e+01	3.130860e+02
1.180000e-06	2.336526e-06	5.036744e-09	1.656495e+01	3.290096e+02
1.190000e-06	2.419461e-06	5.267627e-09	1.715292e+01	3.442994e+02
1.200000e-06	2.501663e-06	5.486984e-09	1.773570e+01	3.589296e+02
1.210000e-06	2.583050e-06	5.697329e-09	1.831270e+01	3.728990e+02
1.220000e-06	2.663643e-06	5.901164e-09	1.888407e+01	3.862348e+02
1.230000e-06	2.743409e-06	6.095922e-09	1.944957e+01	3.989815e+02
1.240000e-06	2.822267e-06	6.279610e-09	2.000864e+01	4.111808e+02
1.250000e-06	2.900278e-06	6.454177e-09	2.056170e+01	4.228551e+02
1.260000e-06	2.977520e-06	6.623408e-09	2.110932e+01	4.340064e+02
1.270000e-06	3.053989e-06	6.784049e-09	2.165145e+01	4.446289e+02
1.280000e-06	3.129584e-06	6.935123e-09	2.218738e+01	4.547297e+02
1.290000e-06	3.204101e-06	7.080266e-09	2.271567e+01	4.643410e+02
1.300000e-06	3.277425e-06	7.222575e-09	2.323551e+01	4.735172e+02
1.310000e-06	3.349696e-06	7.359848e-09	2.374788e+01	4.823152e+02
1.320000e-06	3.421074e-06	7.489212e-09	2.425392e+01	4.907728e+02
1.330000e-06	3.491622e-06	7.610933e-09	2.475407e+01	4.988953e+02
1.340000e-06	3.561246e-06	7.730153e-09	2.524768e+01	5.066624e+02
1.350000e-06	3.629915e-06	7.846443e-09	2.573451e+01	5.140487e+02
1.360000e-06	3.697798e-06	7.953139e-09	2.621577e+01	5.210473e+02
1.370000e-06	3.764683e-06	8.049010e-09	2.668996e+01	5.276799e+02
1.380000e-06	3.830210e-06	8.141460e-09	2.715452e+01	5.339884e+02
1.390000e-06	3.894569e-06	8.234165e-09	2.761079e+01	5.400125e+02
1.400000e-06	3.957976e-06	8.323456e-09	2.806032e+01	5.457704e+02
1.410000e-06	4.020381e-06	8.406553e-09	2.850274e+01	5.512547e+02
1.420000e-06	4.081746e-06	8.484199e-09	2.893780e+01	5.564483e+02
1.430000e-06	4.142142e-06	8.558736e-09	2.936598e+01	5.613512e+02
1.440000e-06	4.201557e-06	8.629845e-09	2.978721e+01	5.659987e+02
1.450000e-06	4.259597e-06	8.696572e-09	3.019868e+01	5.704587e+02
1.460000e-06	4.316070e-06	8.760909e-09	3.059905e+01	5.748054e+02
1.470000e-06	4.371344e-06	8.825036e-09	3.099092e+01	5.790835e+02
1.480000e-06	4.425524e-06	8.887463e-09	3.137503e+01	5.832849e+02
1.490000e-06	4.478343e-06	8.948026e-09	3.174949e+01	5.873529e+02
1.500000e-06	4.529678e-06	9.006447e-09	3.211344e+01	5.912148e+02
1.510000e-06	4.579321e-06	9.061535e-09	3.246539e+01	5.948247e+02
1.520000e-06	4.627390e-06	9.113138e-09	3.280618e+01	5.981931e+02
1.530000e-06	4.674173e-06	9.161403e-09	3.313785e+01	6.013848e+02
1.540000e-06	4.719616e-06	9.206471e-09	3.346002e+01	6.044847e+02
1.550000e-06	4.763844e-06	9.249622e-09	3.377357e+01	6.075520e+02
1.560000e-06	4.806796e-06	9.293306e-09	3.407808e+01	6.105858e+02
1.570000e-06	4.848109e-06	9.336880e-09	3.437097e+01	6.135258e+02
1.580000e-06	4.887975e-06	9.377856e-09	3.465361e+01	6.162846e+02
1.590000e-06	4.926653e-06	9.413331e-09	3.492782e+01	6.187959e+02
1.600000e-06	4.963953e-06	9.445460e-09	3.519226e+01	6.210514e+02
1.610000e-06	5.000006e-06	9.476670e-09	3.544786e+01	6.231052e+02
1.620000e-06	5.034662e-06	9.506857e-09	3.569355e+01	6.250454e+02
1.630000e-06	5.067618e-06	9.534628e-09	3.592720e+01	6.269492e+02
1.640000e-06	5.099165e-06	9.560447e-09	3.615085e+01	6.288461e+02
1.650000e-06	5.129460e-06	9.586668e-09	3.636563e+01	6.307091e+02
1.660000e-06	5.158448e-06	9.611798e-09	3.657114e+01	6.324758e+02
1.670000e-06	5.186168e-06	9.634609e-09	3.676767e+01	6.340853e+02
1.680000e-06	5.212295e-06	9.653999e-09	3.695290e+01	6.355099e+02
1.690000e-06	5.236680e-06	9.671033e-09	3.712577e+01	6.367648e+02
1.700000e-06	5.259646e-06	9.687580e-09	3.728859e+01	6.378947e+02
1.710000e-06	5.281234e-06	9.703204e-09	3.744164e+01	6.389471e+02
1.720000e-06	5.301569e-06	9.717983e-09	3.758581e+01	6.399500e+02
1.730000e-06	5.320595e-06	9.731940e-09	3.772069e+01	6.409055e+02
1.740000e-06	5.337990e-06	9.744674e-09	3.784402e+01	6.417979e+02
1.750000e-06	5.353822e-06	9.756405e-09	3.795626e+01	6.426096e+02
1.760000e-06	5.368163e-06	9.766464e-09	3.805793e+01	6.433314e+02
1.770000e-06	5.380938e-06	9.773949e-09	3.814850e+01	6.439625e+02
1.780000e-06	5.392093e-06	9.780131e-09	3.822758e+01	6.445038e+02
1.790000e-06	5.401369e-06	9.786686e-09	3.829334e+01	6.449512e+02
1.800000e-06	5.408959e-06	9.792476e-09	3.834716e+01	6.452968e+02
1.810000e-06	5.415147e-06	9.796536e-09	3.839102e+01	6.455369e+02
1.820000e-06	5.419901e-06	9.799070e-09	3.842473e+01	6.456810e+02
1.830000e-06	5.423246e-06	9.800972e-09	3.844845e+01	6.457529e+02
1.840000e-06	5.424876e-06	9.804398e-09	3.846000e+01	6.457809e+02
1.850000e-06	5.424808e-06	9.806127e-09	3.845952e+01	6.457831e+02
1.860000e-06	5.423328e-06	9.802813e-09	3.844903e+01	6.457558e+02
1.870000e-06	5.420462e-06	9.799877e-09	3.842871e+01	6.456747e+02
1.880000e-06	5.416372e-06	9.797491e-09	3.839971e+01	6.455074e+02
1.890000e-06	5.410787e-06	9.794031e-09	3.836011e+01	6.452316e+02
1.900000e-06	5.403487e-06	9.788329e-09	3.830836e+01	6.448449e+02
1.910000e-06	5.394907e-06	9.783953e-09	3.824753e+01	6.443619e+02
1.920000e-06	5.385154e-06	9.798946e-09	3.817839e+01	6.438001e+02
1.930000e-06	5.373924e-06	9.794414e-09	3.809877e+01	6.431660e+02
1.940000e-06	5.360729e-06	9.702660e-09	3.800522e+01	6.424519e+02
1.950000e-06	5.345027e-06	9.691624e-09	3.789391e+01	6.416483e+02
1.960000e-06	5.326938e-06	9.683072e-09	3.776566e+01	6.407610e+02
1.970000e-06	5.307426e-06	9.813508e-09	3.762733e+01	6.398225e+02
1.980000e-06	5.287549e-06	9.766878e-09	3.748641e+01	6.388824e+02
1.990000e-06	5.267171e-06	9.511889e-09	3.734194e+01	6.379815e+02
2.000000e-06	5.244897e-06	9.766861e-09	3.718403e+01	6.371224e+02
2.010000e-06	5.220967e-06	9.781719e-09	3.701437e+01	6.362566e+02
2.020000e-06	5.196204e-06	9.512138e-09	3.683881e+01	6.353006e+02
2.030000e-06	5.169734e-06	9.727806e-09	3.665115e+01	6.341760e+02
2.040000e-06	5.141808e-06	9.714267e-09	3.645317e+01	6.328527e+02
2.050000e-06	5.112873e-06	9.462794e-09	3.624804e+01	6.313679e+02
2.060000e-06	5.082088e-06	9.695987e-09	3.602978e+01	6.298068e+02
2.070000e-06	5.049720e-06	9.647339e-09	3.580031e+01	6.282523e+02
2.080000e-06	5.016114e-06	9.453227e-09	3.556205e+01	6.267302e+02
2.090000e-06	4.980976e-06	9.609609e-09	3.531294e+01	6.251832e+02
2.100000e-06	4.944777e-06	9.482340e-09	3.505631e+01	6.234923e+02
2.110000e-06	4.907145e-06	9.472788e-09	3.478952e+01	6.215377e+02
2.120000e-06	4.867588e-06	9.565100e-09	3.450907e+01	6.192664e+02
2.130000e-06	4.826714e-06	9.329700e-09	3.421929e+01	6.167295e+02
2.140000e-06	4.784478e-06	9.376575e-09	3.391986e+01	6.140638e+02
2.150000e-06	4.740964e-06	9.403492e-09	3.361136e+01	6.114261e+02
2.160000e-06	4.696283e-06	9.238854e-09	3.329459e+01	6.089132e+02
2.170000e-06	4.649919e-06	9.262337e-09	3.296589e+01	6.065110e+02
2.180000e-06	4.602103e-06	9.208791e-09	3.262690e+01	6.041016e+02
2.190000e-06	4.553031e-06	9.219092e-09	3.227900e+01	6.015248e+02
2.200000e-06	4.502622e-06	9.160732e-09	3.192162e+01	5.986610e+02
2.210000e-06	4.450865e-06	9.058640e-09	3.155469e+01	5.954908e+02
2.220000e-06	4.397474e-06	9.053372e-09	3.117617e+01	5.920993e+02
2.230000e-06	4.342468e-06	8.939544e-09	3.078620e+01	5.886257e+02
2.240000e-06	4.286089e-06	8.958469e-09	3.038650e+01	5.851861e+02
2.250000e-06	4.228527e-06	8.884417e-09	2.997841e+01	5.818130e+02
2.260000e-06	4.169885e-06	8.786234e-09	2.956267e+01	5.784436e+02
2.270000e-06	4.110190e-06	8.807526e-09	2.913945e+01	5.749601e+02
2.280000e-06	4.049425e-06	8.693793e-09	2.870865e+01	5.712557e+02
2.290000e-06	3.987251e-06	8.664923e-09	2.826787e+01	5.672903e+02
2.300000e-06	3.923714e-06	8.590558e-09	2.781742e+01	5.631039e+02
2.310000e-06	3.859208e-06	8.504185e-09	2.736010e+01	5.587852e+02
2.320000e-06	3.793714e-06	8.492490e-09	2.689577e+01	5.544162e+02
2.330000e-06	3.727209e-06	8.390534e-09	2.642429e+01	5.500255e+02
2.340000e-06	3.659737e-06	8.336500e-09	2.594594e+01	5.455764e+02
2.350000e-06	3.591335e-06	8.240130e-09	2.546099e+01	5.409932e+02
2.360000e-06	3.521781e-06	8.175009e-09	2.496789e+01	5.362056e+02
2.370000e-06	3.450953e-06	8.127764e-09	2.446575e+01	5.311861e+02
2.380000e-06	3.379177e-06	8.026725e-09	2.395689e+01	5.259580e+02
2.390000e-06	3.306617e-06	7.960563e-09	2.344247e+01	5.205730e+02
2.400000e-06	3.233263e-06	7.847178e-09	2.292242e+01	5.150759e+02
2.410000e-06	3.159034e-06	7.784584e-09	2.239617e+01	5.094782e+02
2.420000e-06	3.083955e-06	7.700993e-09	2.186389e+01	5.037560e+02
2.430000e-06	3.007946e-06	7.585532e-09	2.132502e+01	4.978711e+02
2.440000e-06	2.930772e-06	7.504131e-09	2.077789e+01	4.917980e+02
2.450000e-06	2.852445e-06	7.409398e-09	2.022259e+01	4.855399e+02
2.460000e-06	2.773136e-06	7.332187e-09	1.966032e+01	4.791226e+02
2.470000e-06	2.693089e-06	7.216193e-09	1.909283e+01	4.725716e+02
2.480000e-06	2.612355e-06	7.108959e-09	1.852046e+01	4.658879e+02
2.490000e-06	2.530851e-06	7.009460e-09	1.794263e+01	4.590395e+02
2.500000e-06	2.448675e-06	6.907203e-09	1.736004e+01	4.519735e+02
2.510000e-06	2.365882e-06	6.802079e-09	1.677307e+01	4.446436e+02
2.520000e-06	2.282478e-06	6.670931e-09	1.618177e+01	4.370341e+02
2.530000e-06	2.198526e-06	6.557069e-09	1.558659e+01	4.291673e+02
2.540000e-06	2.113997e-06	6.435334e-09	1.498731e+01	4.210893e+02
2.550000e-06	2.028713e-06	6.316355e-09	1.438269e+01	4.128417e+02
2.560000e-06	1.942650e-06	6.186058e-09	1.377254e+01	4.044376e+02
2.570000e-06	1.855872e-06	6.052266e-09	1.315732e+01	3.958524e+02
2.580000e-06	1.768437e-06	5.928314e-09	1.253744e+01	3.870367e+02
2.590000e-06	1.680543e-06	5.794171e-09	1.191432e+01	3.779407e+02
2.600000e-06	1.592274e-06	5.651546e-09	1.128853e+01	3.685373e+02
2.610000e-06	1.503616e-06	5.493968e-09	1.065998e+01	3.588306e+02
2.620000e-06	1.414650e-06	5.343459e-09	1.002925e+01	3.488473e+02
2.630000e-06	1.325352e-06	5.192420e-09	9.396164e+00	3.386169e+02
2.640000e-06	1.235655e-06	5.034512e-09	8.760257e+00	3.281526e+02
2.650000e-06	1.145627e-06	4.868810e-09	8.121992e+00	3.174432e+02
2.660000e-06	1.055311e-06	4.700828e-09	7.481692e+00	3.064593e+02
2.670000e-06	9.647708e-07	4.536198e-09	6.839804e+00	2.951674e+02
2.680000e-06	8.740258e-07	4.359867e-09	6.196461e+00	2.835455e+02
2.690000e-06	7.831026e-07	4.175853e-09	5.551855e+00	2.715889e+02
2.700000e-06	6.920837e-07	3.986706e-09	4.906571e+00	2.593071e+02
2.710000e-06	6.009889e-07	3.794845e-09	4.260749e+00	2.467121e+02
2.720000e-06	5.097851e-07	3.599773e-09	3.614154e+00	2.338073e+02
2.730000e-06	4.184892e-07	3.397873e-09	2.966905e+00	2.205805e+02
2.740000e-06	3.271033e-07	3.189986e-09	2.319019e+00	2.070051e+02
2.750000e-06	2.356708e-07	2.976662e-09	1.670803e+00	1.930472e+02
2.760000e-06	1.442521e-07	2.758167e-09	1.022684e+00	1.786754e+02
2.770000e-06	5.279218e-08	2.532083e-09	3.742735e-01	1.638679e+02
2.780000e-06	-3.871791e-08	2.296148e-09	-2.744931e-01	1.486162e+02
2.790000e-06	-1.302183e-07	2.053149e-09	-9.231909e-01	1.329223e+02
2.800000e-06	-2.216529e-07	1.807069e-09	-1.571422e+00	1.167931e+02
2.810000e-06	-3.130042e-07	1.556555e-09	-2.219063e+00	1.002321e+02
2.820000e-06	-4.042994e-07	1.297368e-09	-2.866306e+00	8.323494e+01
2.830000e-06	-4.955457e-07	1.029259e-09	-3.513202e+00	6.578794e+01
2.840000e-06	-5.867129e-07	7.551570e-10	-4.159538e+00	4.787446e+01
2.850000e-06	-6.777669e-07	4.739463e-10	-4.805071e+00	2.948501e+01
2.860000e-06	-7.686748e-07	1.862870e-10	-5.449569e+00	1.062828e+01
2.870000e-06	-8.594071e-07	-1.074886e-10	-6.092821e+00	-8.662519e+00
2.880000e-06	-9.499516e-07	-4.063460e-10	-6.734742e+00	-2.833130e+01
2.890000e-06	-1.040296e-06	-7.083601e-10	-7.375247e+00	-4.830838e+01
2.900000e-06	-1.130379e-06	-1.014788e-09	-8.013895e+00	-6.852243e+01
2.910000e-06	-1.220179e-06	-1.326522e-09	-8.650538e+00	-8.890815e+01
2.920000e-06	-1.309572e-06	-1.640650e-09	-9.284292e+00	-1.094048e+02
2.930000e-06	-1.398571e-06	-1.953175e-09	-9.915254e+00	-1.299460e+02
2.940000e-06	-1.487292e-06	-2.264366e-09	-1.054425e+01	-1.504468e+02
2.950000e-06	-1.575708e-06	-2.573635e-09	-1.117108e+01	-1.707976e+02
