# Temperatura_=_20.0
# Concentracion g/m^3_=_10000.0
# C_Vs_to_Am_M_A/Vsm_=_65563218390.804596
# pendiente_HvsI_1/m_=_3716.3
# ordenada_HvsI_A/m_=_1297.0
# frecuencia_Hz_=_269408.6470471068

Tiempo_(s)	Campo_(V.s)	Magnetizacion_(V.s)	Campo_(kA/m)	Magnetizacion_(A/m)
0.000000e+00	-5.397324e-06	-9.825340e-09	-3.828711e+01	-6.415050e+02
1.000000e-08	-5.396539e-06	-9.824429e-09	-3.828154e+01	-6.414863e+02
2.000000e-08	-5.394046e-06	-9.821089e-09	-3.826386e+01	-6.413942e+02
3.000000e-08	-5.390031e-06	-9.816698e-09	-3.823538e+01	-6.412044e+02
4.000000e-08	-5.384771e-06	-9.815029e-09	-3.819807e+01	-6.408991e+02
5.000000e-08	-5.378155e-06	-9.811570e-09	-3.815113e+01	-6.404767e+02
6.000000e-08	-5.370228e-06	-9.801874e-09	-3.809490e+01	-6.399529e+02
7.000000e-08	-5.360761e-06	-9.779491e-09	-3.802775e+01	-6.393520e+02
8.000000e-08	-5.349541e-06	-9.748811e-09	-3.794816e+01	-6.386950e+02
9.000000e-08	-5.336572e-06	-9.782691e-09	-3.785616e+01	-6.379918e+02
1.000000e-07	-5.321450e-06	-9.811216e-09	-3.774888e+01	-6.372414e+02
1.100000e-07	-5.304172e-06	-9.775758e-09	-3.762632e+01	-6.364404e+02
1.200000e-07	-5.285307e-06	-9.734766e-09	-3.749250e+01	-6.355905e+02
1.300000e-07	-5.265472e-06	-9.606520e-09	-3.735179e+01	-6.347010e+02
1.400000e-07	-5.244810e-06	-9.701726e-09	-3.720522e+01	-6.337819e+02
1.500000e-07	-5.222825e-06	-9.818184e-09	-3.704926e+01	-6.328345e+02
1.600000e-07	-5.199479e-06	-9.534716e-09	-3.688366e+01	-6.318455e+02
1.700000e-07	-5.174988e-06	-9.596585e-09	-3.670993e+01	-6.307923e+02
1.800000e-07	-5.148788e-06	-9.744255e-09	-3.652407e+01	-6.296547e+02
1.900000e-07	-5.120977e-06	-9.486080e-09	-3.632679e+01	-6.284284e+02
2.000000e-07	-5.092152e-06	-9.535504e-09	-3.612231e+01	-6.271266e+02
2.100000e-07	-5.061975e-06	-9.628325e-09	-3.590824e+01	-6.257684e+02
2.200000e-07	-5.030392e-06	-9.404522e-09	-3.568420e+01	-6.243576e+02
2.300000e-07	-4.997490e-06	-9.475117e-09	-3.545080e+01	-6.228667e+02
2.400000e-07	-4.962903e-06	-9.552162e-09	-3.520546e+01	-6.212387e+02
2.500000e-07	-4.926861e-06	-9.391196e-09	-3.494978e+01	-6.194092e+02
2.600000e-07	-4.889546e-06	-9.397771e-09	-3.468508e+01	-6.173417e+02
2.700000e-07	-4.850721e-06	-9.354004e-09	-3.440966e+01	-6.150548e+02
2.800000e-07	-4.810672e-06	-9.297892e-09	-3.412557e+01	-6.126242e+02
2.900000e-07	-4.769233e-06	-9.323498e-09	-3.383161e+01	-6.101537e+02
3.000000e-07	-4.726085e-06	-9.253239e-09	-3.352553e+01	-6.077268e+02
3.100000e-07	-4.681505e-06	-9.199438e-09	-3.320929e+01	-6.053634e+02
3.200000e-07	-4.635499e-06	-9.206024e-09	-3.288294e+01	-6.030056e+02
3.300000e-07	-4.588108e-06	-9.172362e-09	-3.254676e+01	-6.005425e+02
3.400000e-07	-4.539396e-06	-9.097143e-09	-3.220121e+01	-5.978634e+02
3.500000e-07	-4.488939e-06	-9.040004e-09	-3.184329e+01	-5.949133e+02
3.600000e-07	-4.436709e-06	-9.012815e-09	-3.147278e+01	-5.917204e+02
3.700000e-07	-4.383129e-06	-8.972280e-09	-3.109270e+01	-5.883817e+02
3.800000e-07	-4.328328e-06	-8.939137e-09	-3.070395e+01	-5.850129e+02
3.900000e-07	-4.272337e-06	-8.876506e-09	-3.030677e+01	-5.816890e+02
4.000000e-07	-4.215061e-06	-8.792423e-09	-2.990047e+01	-5.784056e+02
4.100000e-07	-4.156305e-06	-8.777134e-09	-2.948367e+01	-5.750825e+02
4.200000e-07	-4.096329e-06	-8.730376e-09	-2.905822e+01	-5.716049e+02
4.300000e-07	-4.035330e-06	-8.656876e-09	-2.862551e+01	-5.678812e+02
4.400000e-07	-3.973210e-06	-8.596802e-09	-2.818485e+01	-5.638873e+02
4.500000e-07	-3.910009e-06	-8.528059e-09	-2.773651e+01	-5.596742e+02
4.600000e-07	-3.845934e-06	-8.477663e-09	-2.728199e+01	-5.553373e+02
4.700000e-07	-3.780886e-06	-8.405346e-09	-2.682055e+01	-5.509658e+02
4.800000e-07	-3.714534e-06	-8.329652e-09	-2.634987e+01	-5.465981e+02
4.900000e-07	-3.646932e-06	-8.261212e-09	-2.587032e+01	-5.422060e+02
5.000000e-07	-3.578382e-06	-8.206934e-09	-2.538405e+01	-5.377135e+02
5.100000e-07	-3.509044e-06	-8.149740e-09	-2.489218e+01	-5.330366e+02
5.200000e-07	-3.438836e-06	-8.057585e-09	-2.439414e+01	-5.281230e+02
5.300000e-07	-3.367733e-06	-7.966208e-09	-2.388976e+01	-5.229719e+02
5.400000e-07	-3.295784e-06	-7.888059e-09	-2.337937e+01	-5.176250e+02
5.500000e-07	-3.222874e-06	-7.816519e-09	-2.286217e+01	-5.121389e+02
5.600000e-07	-3.148768e-06	-7.732052e-09	-2.233649e+01	-5.065543e+02
5.700000e-07	-3.073506e-06	-7.634377e-09	-2.180259e+01	-5.008778e+02
5.800000e-07	-2.997341e-06	-7.547090e-09	-2.126230e+01	-4.950846e+02
5.900000e-07	-2.920349e-06	-7.467830e-09	-2.071614e+01	-4.891364e+02
6.000000e-07	-2.842510e-06	-7.374390e-09	-2.016397e+01	-4.830017e+02
6.100000e-07	-2.763795e-06	-7.264819e-09	-1.960559e+01	-4.766692e+02
6.200000e-07	-2.684084e-06	-7.158933e-09	-1.904014e+01	-4.701456e+02
6.300000e-07	-2.603383e-06	-7.066200e-09	-1.846768e+01	-4.634448e+02
6.400000e-07	-2.521970e-06	-6.967399e-09	-1.789015e+01	-4.565735e+02
6.500000e-07	-2.439876e-06	-6.852320e-09	-1.730780e+01	-4.495248e+02
6.600000e-07	-2.357009e-06	-6.731524e-09	-1.671997e+01	-4.422805e+02
6.700000e-07	-2.273446e-06	-6.617657e-09	-1.612719e+01	-4.348209e+02
6.800000e-07	-2.189376e-06	-6.509136e-09	-1.553082e+01	-4.271344e+02
6.900000e-07	-2.104881e-06	-6.388117e-09	-1.493144e+01	-4.192213e+02
7.000000e-07	-2.019789e-06	-6.257007e-09	-1.432782e+01	-4.110900e+02
7.100000e-07	-1.934016e-06	-6.125552e-09	-1.371937e+01	-4.027475e+02
7.200000e-07	-1.847749e-06	-5.998542e-09	-1.310742e+01	-3.941915e+02
7.300000e-07	-1.761059e-06	-5.864956e-09	-1.249246e+01	-3.854078e+02
7.400000e-07	-1.673869e-06	-5.716798e-09	-1.187396e+01	-3.763744e+02
7.500000e-07	-1.586208e-06	-5.566179e-09	-1.125212e+01	-3.670716e+02
7.600000e-07	-1.498128e-06	-5.422776e-09	-1.062730e+01	-3.574909e+02
7.700000e-07	-1.409710e-06	-5.280918e-09	-1.000009e+01	-3.476380e+02
7.800000e-07	-1.320952e-06	-5.125441e-09	-9.370464e+00	-3.375291e+02
7.900000e-07	-1.231793e-06	-4.961362e-09	-8.737995e+00	-3.271799e+02
8.000000e-07	-1.142245e-06	-4.799903e-09	-8.102766e+00	-3.165943e+02
8.100000e-07	-1.052273e-06	-4.640223e-09	-7.464530e+00	-3.057570e+02
8.200000e-07	-9.618829e-07	-4.469911e-09	-6.823330e+00	-2.946364e+02
8.300000e-07	-8.711974e-07	-4.286852e-09	-6.180032e+00	-2.831944e+02
8.400000e-07	-7.802195e-07	-4.103000e-09	-5.534660e+00	-2.714021e+02
8.500000e-07	-6.890173e-07	-3.919534e-09	-4.887697e+00	-2.592516e+02
8.600000e-07	-5.976243e-07	-3.732565e-09	-4.239380e+00	-2.467586e+02
8.700000e-07	-5.060080e-07	-3.536204e-09	-3.589480e+00	-2.339523e+02
8.800000e-07	-4.142635e-07	-3.334068e-09	-2.938670e+00	-2.208579e+02
8.900000e-07	-3.224827e-07	-3.133568e-09	-2.287602e+00	-2.074771e+02
9.000000e-07	-2.306803e-07	-2.930643e-09	-1.636382e+00	-1.937794e+02
9.100000e-07	-1.388542e-07	-2.715845e-09	-9.849929e-01	-1.797077e+02
9.200000e-07	-4.703443e-08	-2.489691e-09	-3.336492e-01	-1.651972e+02
9.300000e-07	4.481183e-08	-2.260576e-09	3.178827e-01	-1.502008e+02
9.400000e-07	1.366689e-07	-2.028608e-09	9.694915e-01	-1.347064e+02
9.500000e-07	2.285329e-07	-1.787825e-09	1.621149e+00	-1.187381e+02
9.600000e-07	3.203846e-07	-1.534830e-09	2.272719e+00	-1.023396e+02
9.700000e-07	4.121731e-07	-1.277063e-09	2.923841e+00	-8.554830e+01
9.800000e-07	5.038785e-07	-1.018859e-09	3.574374e+00	-6.837269e+01
9.900000e-07	5.955048e-07	-7.558882e-10	4.224345e+00	-5.078656e+01
1.000000e-06	6.870459e-07	-4.783702e-10	4.873713e+00	-3.274343e+01
1.010000e-06	7.784068e-07	-1.887579e-10	5.521801e+00	-1.420488e+01
1.020000e-06	8.695665e-07	1.013871e-10	6.168463e+00	4.831479e+00
1.030000e-06	9.604650e-07	3.933523e-10	6.813271e+00	2.431839e+01
1.040000e-06	1.051018e-06	6.949253e-10	7.455629e+00	4.416632e+01
1.050000e-06	1.141166e-06	1.005082e-09	8.095112e+00	6.426705e+01
1.060000e-06	1.230820e-06	1.315991e-09	8.731096e+00	8.452035e+01
1.070000e-06	1.319960e-06	1.624623e-09	9.363430e+00	1.048496e+02
1.080000e-06	1.408658e-06	1.932941e-09	9.992630e+00	1.251990e+02
1.090000e-06	1.496916e-06	2.245121e-09	1.061871e+01	1.455164e+02
1.100000e-06	1.584813e-06	2.557930e-09	1.124222e+01	1.657333e+02
1.110000e-06	1.672371e-06	2.863752e-09	1.186333e+01	1.857552e+02
1.120000e-06	1.759456e-06	3.161871e-09	1.248109e+01	2.054687e+02
1.130000e-06	1.846063e-06	3.457254e-09	1.309546e+01	2.247621e+02
1.140000e-06	1.932187e-06	3.749118e-09	1.370640e+01	2.435467e+02
1.150000e-06	2.017793e-06	4.027915e-09	1.431367e+01	2.617684e+02
1.160000e-06	2.102835e-06	4.293490e-09	1.491693e+01	2.794033e+02
1.170000e-06	2.187339e-06	4.550761e-09	1.551637e+01	2.964422e+02
1.180000e-06	2.271346e-06	4.802317e-09	1.611230e+01	3.128739e+02
1.190000e-06	2.354830e-06	5.043957e-09	1.670451e+01	3.286794e+02
1.200000e-06	2.437598e-06	5.272716e-09	1.729164e+01	3.438382e+02
1.210000e-06	2.519431e-06	5.490989e-09	1.787214e+01	3.583426e+02
1.220000e-06	2.600433e-06	5.702067e-09	1.844675e+01	3.722088e+02
1.230000e-06	2.680732e-06	5.905268e-09	1.901636e+01	3.854750e+02
1.240000e-06	2.760224e-06	6.095829e-09	1.958026e+01	3.981869e+02
1.250000e-06	2.838846e-06	6.276651e-09	2.013798e+01	4.103780e+02
1.260000e-06	2.916628e-06	6.453839e-09	2.068974e+01	4.220568e+02
1.270000e-06	2.993630e-06	6.626437e-09	2.123598e+01	4.332105e+02
1.280000e-06	3.069892e-06	6.787864e-09	2.177696e+01	4.438225e+02
1.290000e-06	3.145277e-06	6.939257e-09	2.231172e+01	4.538958e+02
1.300000e-06	3.219535e-06	7.085289e-09	2.283848e+01	4.634665e+02
1.310000e-06	3.292538e-06	7.229061e-09	2.335635e+01	4.726001e+02
1.320000e-06	3.364488e-06	7.366226e-09	2.386674e+01	4.813698e+02
1.330000e-06	3.435628e-06	7.493760e-09	2.437139e+01	4.898286e+02
1.340000e-06	3.505893e-06	7.616519e-09	2.486983e+01	4.979902e+02
1.350000e-06	3.575186e-06	7.737854e-09	2.536138e+01	5.058284e+02
1.360000e-06	3.643572e-06	7.855267e-09	2.584648e+01	5.132956e+02
1.370000e-06	3.711195e-06	7.961832e-09	2.632618e+01	5.203509e+02
1.380000e-06	3.777853e-06	8.057773e-09	2.679903e+01	5.269838e+02
1.390000e-06	3.843128e-06	8.150403e-09	2.726208e+01	5.332218e+02
1.400000e-06	3.907200e-06	8.242741e-09	2.771659e+01	5.391218e+02
1.410000e-06	3.970340e-06	8.330856e-09	2.816449e+01	5.447496e+02
1.420000e-06	4.032473e-06	8.411520e-09	2.860524e+01	5.501593e+02
1.430000e-06	4.093566e-06	8.488690e-09	2.903862e+01	5.553812e+02
1.440000e-06	4.153699e-06	8.566006e-09	2.946519e+01	5.604213e+02
1.450000e-06	4.212806e-06	8.639919e-09	2.988448e+01	5.652689e+02
1.460000e-06	4.270404e-06	8.708517e-09	3.029305e+01	5.699080e+02
1.470000e-06	4.326511e-06	8.772807e-09	3.069106e+01	5.743261e+02
1.480000e-06	4.381441e-06	8.836107e-09	3.108072e+01	5.785213e+02
1.490000e-06	4.435117e-06	8.898908e-09	3.146149e+01	5.825055e+02
1.500000e-06	4.487486e-06	8.957353e-09	3.183298e+01	5.863059e+02
1.510000e-06	4.538295e-06	9.011098e-09	3.219340e+01	5.899619e+02
1.520000e-06	4.587399e-06	9.063126e-09	3.254173e+01	5.935164e+02
1.530000e-06	4.635059e-06	9.115928e-09	3.287982e+01	5.970016e+02
1.540000e-06	4.681458e-06	9.167335e-09	3.320896e+01	6.004237e+02
1.550000e-06	4.726575e-06	9.216286e-09	3.352901e+01	6.037548e+02
1.560000e-06	4.770508e-06	9.262438e-09	3.384066e+01	6.069387e+02
1.570000e-06	4.813071e-06	9.306637e-09	3.414258e+01	6.099121e+02
1.580000e-06	4.854000e-06	9.349179e-09	3.443293e+01	6.126335e+02
1.590000e-06	4.893587e-06	9.386483e-09	3.471375e+01	6.151061e+02
1.600000e-06	4.931860e-06	9.418119e-09	3.498524e+01	6.173825e+02
1.610000e-06	4.968743e-06	9.448331e-09	3.524688e+01	6.195453e+02
1.620000e-06	5.004536e-06	9.479950e-09	3.550079e+01	6.216716e+02
1.630000e-06	5.038904e-06	9.512072e-09	3.574458e+01	6.237983e+02
1.640000e-06	5.071562e-06	9.540942e-09	3.597625e+01	6.259049e+02
1.650000e-06	5.102864e-06	9.567310e-09	3.619829e+01	6.279245e+02
1.660000e-06	5.132851e-06	9.594013e-09	3.641101e+01	6.297765e+02
1.670000e-06	5.161532e-06	9.619090e-09	3.661447e+01	6.314070e+02
1.680000e-06	5.188880e-06	9.639818e-09	3.680847e+01	6.328134e+02
1.690000e-06	5.214536e-06	9.655688e-09	3.699047e+01	6.340443e+02
1.700000e-06	5.238573e-06	9.670234e-09	3.716098e+01	6.351750e+02
1.710000e-06	5.261288e-06	9.685780e-09	3.732212e+01	6.362708e+02
1.720000e-06	5.282615e-06	9.700867e-09	3.747340e+01	6.373605e+02
1.730000e-06	5.302716e-06	9.714984e-09	3.761599e+01	6.384296e+02
1.740000e-06	5.321458e-06	9.728890e-09	3.774894e+01	6.394357e+02
1.750000e-06	5.338513e-06	9.742203e-09	3.786993e+01	6.403346e+02
1.760000e-06	5.353988e-06	9.754473e-09	3.797970e+01	6.411025e+02
1.770000e-06	5.367947e-06	9.765257e-09	3.807872e+01	6.417430e+02
1.780000e-06	5.380383e-06	9.774068e-09	3.816694e+01	6.422786e+02
1.790000e-06	5.391053e-06	9.781482e-09	3.824263e+01	6.427337e+02
1.800000e-06	5.399892e-06	9.787328e-09	3.830533e+01	6.431225e+02
1.810000e-06	5.407199e-06	9.791185e-09	3.835716e+01	6.434462e+02
1.820000e-06	5.413004e-06	9.793896e-09	3.839834e+01	6.437005e+02
1.830000e-06	5.417432e-06	9.796403e-09	3.842976e+01	6.438847e+02
1.840000e-06	5.420452e-06	9.800881e-09	3.845118e+01	6.440056e+02
1.850000e-06	5.421696e-06	9.806157e-09	3.846000e+01	6.440731e+02
1.860000e-06	5.421278e-06	9.807861e-09	3.845704e+01	6.440902e+02
1.870000e-06	5.419499e-06	9.803708e-09	3.844442e+01	6.440467e+02
1.880000e-06	5.416421e-06	9.801942e-09	3.842259e+01	6.439208e+02
1.890000e-06	5.412040e-06	9.799770e-09	3.839150e+01	6.436891e+02
1.900000e-06	5.405998e-06	9.794096e-09	3.834865e+01	6.433392e+02
1.910000e-06	5.398303e-06	9.786762e-09	3.829406e+01	6.428763e+02
1.920000e-06	5.389358e-06	9.786234e-09	3.823060e+01	6.423207e+02
1.930000e-06	5.379130e-06	9.806843e-09	3.815805e+01	6.416969e+02
1.940000e-06	5.367415e-06	9.756336e-09	3.807495e+01	6.410222e+02
1.950000e-06	5.353612e-06	9.692072e-09	3.797703e+01	6.403018e+02
1.960000e-06	5.337292e-06	9.697530e-09	3.786127e+01	6.395328e+02
1.970000e-06	5.318841e-06	9.725802e-09	3.773038e+01	6.387128e+02
1.980000e-06	5.299236e-06	9.833985e-09	3.759130e+01	6.378469e+02
1.990000e-06	5.279357e-06	9.664159e-09	3.745029e+01	6.369454e+02
2.000000e-06	5.258594e-06	9.551074e-09	3.730300e+01	6.360164e+02
2.010000e-06	5.235818e-06	9.817386e-09	3.714144e+01	6.350557e+02
2.020000e-06	5.211696e-06	9.654522e-09	3.697032e+01	6.340456e+02
2.030000e-06	5.186601e-06	9.511587e-09	3.679231e+01	6.329625e+02
2.040000e-06	5.159738e-06	9.764669e-09	3.660174e+01	6.317912e+02
2.050000e-06	5.131585e-06	9.598800e-09	3.640203e+01	6.305344e+02
2.060000e-06	5.102178e-06	9.497197e-09	3.619343e+01	6.292096e+02
2.070000e-06	5.070883e-06	9.729516e-09	3.597143e+01	6.278328e+02
2.080000e-06	5.038257e-06	9.526373e-09	3.573999e+01	6.263971e+02
2.090000e-06	5.004343e-06	9.461593e-09	3.549942e+01	6.248627e+02
2.100000e-06	4.968954e-06	9.572491e-09	3.524838e+01	6.231660e+02
2.110000e-06	4.932526e-06	9.419856e-09	3.498997e+01	6.212490e+02
2.120000e-06	4.894446e-06	9.506734e-09	3.471984e+01	6.190938e+02
2.130000e-06	4.854536e-06	9.448163e-09	3.443673e+01	6.167418e+02
2.140000e-06	4.813376e-06	9.291458e-09	3.414475e+01	6.142841e+02
2.150000e-06	4.770868e-06	9.402856e-09	3.384321e+01	6.118229e+02
2.160000e-06	4.727161e-06	9.301068e-09	3.353317e+01	6.094218e+02
2.170000e-06	4.682110e-06	9.219962e-09	3.321359e+01	6.070711e+02
2.180000e-06	4.635337e-06	9.232661e-09	3.288179e+01	6.046882e+02
2.190000e-06	4.587266e-06	9.162762e-09	3.254079e+01	6.021552e+02
2.200000e-06	4.537967e-06	9.194081e-09	3.219108e+01	5.993768e+02
2.210000e-06	4.487251e-06	9.092939e-09	3.183131e+01	5.963279e+02
2.220000e-06	4.435108e-06	9.024175e-09	3.146142e+01	5.930667e+02
2.230000e-06	4.381339e-06	8.993032e-09	3.108000e+01	5.897042e+02
2.240000e-06	4.325988e-06	8.907686e-09	3.068736e+01	5.863474e+02
2.250000e-06	4.269274e-06	8.928938e-09	3.028504e+01	5.830438e+02
2.260000e-06	4.211468e-06	8.812183e-09	2.987498e+01	5.797581e+02
2.270000e-06	4.152634e-06	8.769268e-09	2.945763e+01	5.763906e+02
2.280000e-06	4.092763e-06	8.749778e-09	2.903292e+01	5.728285e+02
2.290000e-06	4.031697e-06	8.645923e-09	2.859974e+01	5.690021e+02
2.300000e-06	3.969147e-06	8.624728e-09	2.815603e+01	5.649167e+02
2.310000e-06	3.905435e-06	8.517134e-09	2.770407e+01	5.606453e+02
2.320000e-06	3.840807e-06	8.474677e-09	2.724562e+01	5.562870e+02
2.330000e-06	3.775138e-06	8.426577e-09	2.677978e+01	5.519161e+02
2.340000e-06	3.708461e-06	8.330280e-09	2.630679e+01	5.475459e+02
2.350000e-06	3.640798e-06	8.275282e-09	2.582681e+01	5.431266e+02
2.360000e-06	3.572176e-06	8.170834e-09	2.534002e+01	5.385738e+02
2.370000e-06	3.502435e-06	8.132068e-09	2.484530e+01	5.338117e+02
2.380000e-06	3.431524e-06	8.060712e-09	2.434228e+01	5.288065e+02
2.390000e-06	3.359711e-06	7.971618e-09	2.383285e+01	5.235756e+02
2.400000e-06	3.287050e-06	7.893722e-09	2.331742e+01	5.181702e+02
2.410000e-06	3.213516e-06	7.791645e-09	2.279579e+01	5.126442e+02
2.420000e-06	3.139071e-06	7.732243e-09	2.226770e+01	5.070263e+02
2.430000e-06	3.063757e-06	7.625024e-09	2.173344e+01	5.013103e+02
2.440000e-06	2.987476e-06	7.525959e-09	2.119233e+01	4.954636e+02
2.450000e-06	2.910201e-06	7.443788e-09	2.064416e+01	4.894482e+02
2.460000e-06	2.831836e-06	7.357303e-09	2.008826e+01	4.832396e+02
2.470000e-06	2.752388e-06	7.269675e-09	1.952467e+01	4.768341e+02
2.480000e-06	2.672259e-06	7.149649e-09	1.895626e+01	4.702426e+02
2.490000e-06	2.591435e-06	7.049959e-09	1.838292e+01	4.634778e+02
2.500000e-06	2.509855e-06	6.947035e-09	1.780421e+01	4.565416e+02
2.510000e-06	2.427617e-06	6.846782e-09	1.722084e+01	4.494221e+02
2.520000e-06	2.344714e-06	6.733820e-09	1.663275e+01	4.420992e+02
2.530000e-06	2.261174e-06	6.611925e-09	1.604014e+01	4.345553e+02
2.540000e-06	2.177128e-06	6.503319e-09	1.544394e+01	4.267833e+02
2.550000e-06	2.092555e-06	6.380875e-09	1.484400e+01	4.187873e+02
2.560000e-06	2.007222e-06	6.258166e-09	1.423868e+01	4.105764e+02
2.570000e-06	1.921151e-06	6.122617e-09	1.362811e+01	4.021548e+02
2.580000e-06	1.834348e-06	5.995358e-09	1.301235e+01	3.935158e+02
2.590000e-06	1.746890e-06	5.872067e-09	1.239195e+01	3.846412e+02
2.600000e-06	1.659008e-06	5.736608e-09	1.176854e+01	3.755088e+02
2.610000e-06	1.570722e-06	5.591801e-09	1.114226e+01	3.661020e+02
2.620000e-06	1.482039e-06	5.437872e-09	1.051317e+01	3.564179e+02
2.630000e-06	1.392997e-06	5.291291e-09	9.881530e+00	3.464669e+02
2.640000e-06	1.303607e-06	5.137645e-09	9.247427e+00	3.362666e+02
2.650000e-06	1.213896e-06	4.975913e-09	8.611038e+00	3.258293e+02
2.660000e-06	1.123923e-06	4.808213e-09	7.972794e+00	3.151522e+02
2.670000e-06	1.033725e-06	4.645882e-09	7.332956e+00	3.042131e+02
2.680000e-06	9.433252e-07	4.486443e-09	6.691686e+00	2.929763e+02
2.690000e-06	8.526993e-07	4.313464e-09	6.048812e+00	2.814055e+02
2.700000e-06	7.618524e-07	4.131866e-09	5.404369e+00	2.694786e+02
2.710000e-06	6.708465e-07	3.942992e-09	4.758799e+00	2.571968e+02
2.720000e-06	5.796872e-07	3.751561e-09	4.112139e+00	2.445827e+02
2.730000e-06	4.884356e-07	3.553865e-09	3.464827e+00	2.316664e+02
2.740000e-06	3.971939e-07	3.349638e-09	2.817583e+00	2.184661e+02
2.750000e-06	3.058847e-07	3.142118e-09	2.169861e+00	2.049719e+02
2.760000e-06	2.144794e-07	2.932344e-09	1.521457e+00	1.911417e+02
2.770000e-06	1.230182e-07	2.718546e-09	8.726567e-01	1.769126e+02
2.780000e-06	3.153451e-08	2.493556e-09	2.236971e-01	1.622239e+02
2.790000e-06	-5.991746e-08	2.259480e-09	-4.250378e-01	1.470401e+02
2.800000e-06	-1.513821e-07	2.018730e-09	-1.073862e+00	1.313637e+02
2.810000e-06	-2.428716e-07	1.772660e-09	-1.722863e+00	1.152288e+02
2.820000e-06	-3.342347e-07	1.520705e-09	-2.370968e+00	9.867985e+01
2.830000e-06	-4.255365e-07	1.260869e-09	-3.018638e+00	8.174545e+01
2.840000e-06	-5.168196e-07	9.947728e-10	-3.666174e+00	6.442064e+01
2.850000e-06	-6.079265e-07	7.229297e-10	-4.312461e+00	4.666892e+01
2.860000e-06	-6.988229e-07	4.442365e-10	-4.957255e+00	2.844316e+01
2.870000e-06	-7.895272e-07	1.594145e-10	-5.600686e+00	9.715707e+00
2.880000e-06	-8.800838e-07	-1.310856e-10	-6.243070e+00	-9.497717e+00
2.890000e-06	-9.704805e-07	-4.278234e-10	-6.884318e+00	-2.913205e+01
2.900000e-06	-1.060649e-06	-7.305094e-10	-7.523951e+00	-4.908748e+01
2.910000e-06	-1.150505e-06	-1.039448e-09	-8.161362e+00	-6.925599e+01
2.920000e-06	-1.240049e-06	-1.352741e-09	-8.796561e+00	-8.954529e+01
2.930000e-06	-1.329252e-06	-1.665174e-09	-9.429343e+00	-1.098879e+02
2.940000e-06	-1.418029e-06	-1.974838e-09	-1.005910e+01	-1.302318e+02
2.950000e-06	-1.506460e-06	-2.281910e-09	-1.068641e+01	-1.505208e+02
