# Temperatura_=_20.0
# Concentracion g/m^3_=_10000.0
# C_Vs_to_Am_M_A/Vsm_=_65563218390.804596
# pendiente_HvsI_1/m_=_3716.3
# ordenada_HvsI_A/m_=_1297.0
# frecuencia_Hz_=_269411.12079712073

Tiempo_(s)	Campo_(V.s)	Magnetizacion_(V.s)	Campo_(kA/m)	Magnetizacion_(A/m)
0.000000e+00	-5.398902e-06	-9.810010e-09	-3.829271e+01	-6.411755e+02
1.000000e-08	-5.398282e-06	-9.809612e-09	-3.828831e+01	-6.411541e+02
2.000000e-08	-5.396002e-06	-9.807646e-09	-3.827214e+01	-6.409957e+02
3.000000e-08	-5.392084e-06	-9.803356e-09	-3.824435e+01	-6.407011e+02
4.000000e-08	-5.386905e-06	-9.799296e-09	-3.820761e+01	-6.403020e+02
5.000000e-08	-5.380357e-06	-9.792815e-09	-3.816117e+01	-6.398476e+02
6.000000e-08	-5.372493e-06	-9.782705e-09	-3.810540e+01	-6.393793e+02
7.000000e-08	-5.363166e-06	-9.764930e-09	-3.803924e+01	-6.389061e+02
8.000000e-08	-5.352039e-06	-9.740660e-09	-3.796033e+01	-6.383960e+02
9.000000e-08	-5.339123e-06	-9.769228e-09	-3.786871e+01	-6.377913e+02
1.000000e-07	-5.324098e-06	-9.794059e-09	-3.776214e+01	-6.370406e+02
1.100000e-07	-5.306885e-06	-9.758540e-09	-3.764006e+01	-6.361303e+02
1.200000e-07	-5.288030e-06	-9.716993e-09	-3.750633e+01	-6.350971e+02
1.300000e-07	-5.268159e-06	-9.602077e-09	-3.736539e+01	-6.340115e+02
1.400000e-07	-5.247518e-06	-9.676244e-09	-3.721899e+01	-6.329407e+02
1.500000e-07	-5.225651e-06	-9.778114e-09	-3.706389e+01	-6.319115e+02
1.600000e-07	-5.202431e-06	-9.539894e-09	-3.689920e+01	-6.308951e+02
1.700000e-07	-5.178071e-06	-9.599522e-09	-3.672642e+01	-6.298233e+02
1.800000e-07	-5.151950e-06	-9.726124e-09	-3.654115e+01	-6.286287e+02
1.900000e-07	-5.124166e-06	-9.493458e-09	-3.634409e+01	-6.272844e+02
2.000000e-07	-5.095414e-06	-9.535214e-09	-3.614016e+01	-6.258189e+02
2.100000e-07	-5.065275e-06	-9.618835e-09	-3.592640e+01	-6.242971e+02
2.200000e-07	-5.033691e-06	-9.412793e-09	-3.570238e+01	-6.227772e+02
2.300000e-07	-5.000842e-06	-9.463832e-09	-3.546939e+01	-6.212679e+02
2.400000e-07	-4.966290e-06	-9.530891e-09	-3.522433e+01	-6.197148e+02
2.500000e-07	-4.930276e-06	-9.386973e-09	-3.496889e+01	-6.180235e+02
2.600000e-07	-4.893003e-06	-9.393147e-09	-3.470452e+01	-6.161103e+02
2.700000e-07	-4.854159e-06	-9.345330e-09	-3.442902e+01	-6.139495e+02
2.800000e-07	-4.814071e-06	-9.285889e-09	-3.414469e+01	-6.115911e+02
2.900000e-07	-4.772629e-06	-9.317690e-09	-3.385075e+01	-6.091364e+02
3.000000e-07	-4.729506e-06	-9.250498e-09	-3.354489e+01	-6.066842e+02
3.100000e-07	-4.684888e-06	-9.182515e-09	-3.322843e+01	-6.042775e+02
3.200000e-07	-4.638843e-06	-9.186377e-09	-3.290185e+01	-6.018803e+02
3.300000e-07	-4.591499e-06	-9.155004e-09	-3.256605e+01	-5.993983e+02
3.400000e-07	-4.542866e-06	-9.077237e-09	-3.222112e+01	-5.967310e+02
3.500000e-07	-4.492442e-06	-9.023872e-09	-3.186347e+01	-5.938258e+02
3.600000e-07	-4.440191e-06	-8.999977e-09	-3.149287e+01	-5.907046e+02
3.700000e-07	-4.386634e-06	-8.953986e-09	-3.111301e+01	-5.874476e+02
3.800000e-07	-4.331837e-06	-8.920523e-09	-3.072435e+01	-5.841460e+02
3.900000e-07	-4.275859e-06	-8.865861e-09	-3.032732e+01	-5.808510e+02
4.000000e-07	-4.218637e-06	-8.778235e-09	-2.992146e+01	-5.775466e+02
4.100000e-07	-4.159929e-06	-8.754447e-09	-2.950506e+01	-5.741624e+02
4.200000e-07	-4.099996e-06	-8.709451e-09	-2.907997e+01	-5.706152e+02
4.300000e-07	-4.039034e-06	-8.637211e-09	-2.864759e+01	-5.668550e+02
4.400000e-07	-3.976951e-06	-8.576282e-09	-2.820726e+01	-5.628895e+02
4.500000e-07	-3.913785e-06	-8.509790e-09	-2.775924e+01	-5.587741e+02
4.600000e-07	-3.849798e-06	-8.463513e-09	-2.730540e+01	-5.545761e+02
4.700000e-07	-3.784943e-06	-8.397429e-09	-2.684541e+01	-5.503348e+02
4.800000e-07	-3.718699e-06	-8.320474e-09	-2.637556e+01	-5.460411e+02
4.900000e-07	-3.651072e-06	-8.246437e-09	-2.589590e+01	-5.416461e+02
5.000000e-07	-3.582519e-06	-8.188098e-09	-2.540968e+01	-5.370905e+02
5.100000e-07	-3.513199e-06	-8.129380e-09	-2.491801e+01	-5.323371e+02
5.200000e-07	-3.443033e-06	-8.038456e-09	-2.442035e+01	-5.273856e+02
5.300000e-07	-3.371906e-06	-7.950502e-09	-2.391587e+01	-5.222641e+02
5.400000e-07	-3.299927e-06	-7.877405e-09	-2.340534e+01	-5.170052e+02
5.500000e-07	-3.227156e-06	-7.809063e-09	-2.288920e+01	-5.116229e+02
5.600000e-07	-3.153255e-06	-7.725890e-09	-2.236504e+01	-5.061058e+02
5.700000e-07	-3.078135e-06	-7.626215e-09	-2.183224e+01	-5.004287e+02
5.800000e-07	-3.002084e-06	-7.535588e-09	-2.129283e+01	-4.945738e+02
5.900000e-07	-2.925180e-06	-7.453441e-09	-2.074737e+01	-4.885457e+02
6.000000e-07	-2.847417e-06	-7.360016e-09	-2.019583e+01	-4.823693e+02
6.100000e-07	-2.768756e-06	-7.253678e-09	-1.963791e+01	-4.760717e+02
6.200000e-07	-2.689012e-06	-7.152056e-09	-1.907231e+01	-4.696586e+02
6.300000e-07	-2.608303e-06	-7.062899e-09	-1.849987e+01	-4.631024e+02
6.400000e-07	-2.526896e-06	-6.966981e-09	-1.792247e+01	-4.563500e+02
6.500000e-07	-2.444728e-06	-6.854684e-09	-1.733968e+01	-4.493471e+02
6.600000e-07	-2.361750e-06	-6.731922e-09	-1.675114e+01	-4.420665e+02
6.700000e-07	-2.278181e-06	-6.613916e-09	-1.615841e+01	-4.345218e+02
6.800000e-07	-2.194173e-06	-6.505080e-09	-1.556258e+01	-4.267606e+02
6.900000e-07	-2.109672e-06	-6.386399e-09	-1.496324e+01	-4.188368e+02
7.000000e-07	-2.024558e-06	-6.257404e-09	-1.435955e+01	-4.107803e+02
7.100000e-07	-1.938840e-06	-6.127903e-09	-1.375158e+01	-4.025778e+02
7.200000e-07	-1.852598e-06	-6.003957e-09	-1.313989e+01	-3.941772e+02
7.300000e-07	-1.765813e-06	-5.874758e-09	-1.252435e+01	-3.855122e+02
7.400000e-07	-1.678528e-06	-5.729118e-09	-1.190527e+01	-3.765344e+02
7.500000e-07	-1.590848e-06	-5.577928e-09	-1.128338e+01	-3.672360e+02
7.600000e-07	-1.502836e-06	-5.433385e-09	-1.065914e+01	-3.576507e+02
7.700000e-07	-1.414473e-06	-5.291833e-09	-1.003241e+01	-3.478340e+02
7.800000e-07	-1.325766e-06	-5.137212e-09	-9.403241e+00	-3.378315e+02
7.900000e-07	-1.236746e-06	-4.975064e-09	-8.771847e+00	-3.276530e+02
8.000000e-07	-1.147241e-06	-4.815971e-09	-8.137019e+00	-3.172630e+02
8.100000e-07	-1.057209e-06	-4.659034e-09	-7.498449e+00	-3.065948e+02
8.200000e-07	-9.667354e-07	-4.493693e-09	-6.856748e+00	-2.955776e+02
8.300000e-07	-8.759089e-07	-4.313933e-09	-6.212545e+00	-2.841671e+02
8.400000e-07	-7.848173e-07	-4.129333e-09	-5.566461e+00	-2.723634e+02
8.500000e-07	-6.935159e-07	-3.943415e-09	-4.918889e+00	-2.602085e+02
8.600000e-07	-6.021226e-07	-3.754889e-09	-4.270665e+00	-2.477647e+02
8.700000e-07	-5.105925e-07	-3.559160e-09	-3.621471e+00	-2.350830e+02
8.800000e-07	-4.189215e-07	-3.358139e-09	-2.971278e+00	-2.221760e+02
8.900000e-07	-3.271991e-07	-3.159176e-09	-2.320720e+00	-2.090064e+02
9.000000e-07	-2.354725e-07	-2.961239e-09	-1.670132e+00	-1.954973e+02
9.100000e-07	-1.437339e-07	-2.753393e-09	-1.019459e+00	-1.815606e+02
9.200000e-07	-5.192934e-08	-2.529380e-09	-3.683184e-01	-1.671297e+02
9.300000e-07	3.990149e-08	-2.297192e-09	2.830087e-01	-1.521846e+02
9.400000e-07	1.317108e-07	-2.063229e-09	9.341830e-01	-1.367548e+02
9.500000e-07	2.234998e-07	-1.824424e-09	1.585214e+00	-1.209007e+02
9.600000e-07	3.152712e-07	-1.574284e-09	2.236119e+00	-1.046801e+02
9.700000e-07	4.070106e-07	-1.317385e-09	2.886797e+00	-8.811719e+01
9.800000e-07	4.986936e-07	-1.062435e-09	3.537076e+00	-7.118806e+01
9.900000e-07	5.902949e-07	-8.057042e-10	4.186775e+00	-5.383200e+01
1.000000e-06	6.818133e-07	-5.339477e-10	4.835887e+00	-3.598277e+01
1.010000e-06	7.732161e-07	-2.484924e-10	5.484177e+00	-1.760529e+01
1.020000e-06	8.644416e-07	4.144823e-11	6.131211e+00	1.280478e+00
1.030000e-06	9.555040e-07	3.337334e-10	6.777088e+00	2.060007e+01
1.040000e-06	1.046205e-06	6.329476e-10	7.420403e+00	4.024844e+01
1.050000e-06	1.136331e-06	9.402557e-10	8.059634e+00	6.012387e+01
1.060000e-06	1.225937e-06	1.247370e-09	8.695186e+00	8.015323e+01
1.070000e-06	1.315080e-06	1.551640e-09	9.327444e+00	1.002953e+02
1.080000e-06	1.403796e-06	1.856386e-09	9.956684e+00	1.205214e+02
1.090000e-06	1.492146e-06	2.166742e-09	1.058332e+01	1.407850e+02
1.100000e-06	1.580137e-06	2.479817e-09	1.120741e+01	1.610001e+02
1.110000e-06	1.667730e-06	2.787011e-09	1.182868e+01	1.810410e+02
1.120000e-06	1.754914e-06	3.086519e-09	1.244705e+01	2.007658e+02
1.130000e-06	1.841657e-06	3.381376e-09	1.306229e+01	2.200503e+02
1.140000e-06	1.927917e-06	3.671421e-09	1.367411e+01	2.388159e+02
1.150000e-06	2.013660e-06	3.948335e-09	1.428226e+01	2.570348e+02
1.160000e-06	2.098834e-06	4.212096e-09	1.488636e+01	2.747118e+02
1.170000e-06	2.183404e-06	4.469328e-09	1.548619e+01	2.918542e+02
1.180000e-06	2.267448e-06	4.723517e-09	1.608229e+01	3.084475e+02
1.190000e-06	2.351006e-06	4.968592e-09	1.667495e+01	3.244513e+02
1.200000e-06	2.433833e-06	5.200284e-09	1.726241e+01	3.398157e+02
1.210000e-06	2.515752e-06	5.420486e-09	1.784344e+01	3.545080e+02
1.220000e-06	2.596948e-06	5.632521e-09	1.841933e+01	3.685327e+02
1.230000e-06	2.677378e-06	5.837141e-09	1.898980e+01	3.819315e+02
1.240000e-06	2.756886e-06	6.032093e-09	1.955372e+01	3.947635e+02
1.250000e-06	2.835538e-06	6.216602e-09	2.011157e+01	4.070774e+02
1.260000e-06	2.913392e-06	6.393784e-09	2.066377e+01	4.188919e+02
1.270000e-06	2.990486e-06	6.566674e-09	2.121057e+01	4.301951e+02
1.280000e-06	3.066796e-06	6.730480e-09	2.175181e+01	4.409639e+02
1.290000e-06	3.142145e-06	6.885152e-09	2.228624e+01	4.511901e+02
1.300000e-06	3.216314e-06	7.033199e-09	2.281230e+01	4.608990e+02
1.310000e-06	3.289326e-06	7.176384e-09	2.333015e+01	4.701482e+02
1.320000e-06	3.361389e-06	7.312805e-09	2.384127e+01	4.790090e+02
1.330000e-06	3.432615e-06	7.442163e-09	2.434645e+01	4.875394e+02
1.340000e-06	3.502976e-06	7.566786e-09	2.484550e+01	4.957644e+02
1.350000e-06	3.572402e-06	7.689543e-09	2.533792e+01	5.036733e+02
1.360000e-06	3.640929e-06	7.809371e-09	2.582396e+01	5.112326e+02
1.370000e-06	3.708634e-06	7.919172e-09	2.630417e+01	5.184074e+02
1.380000e-06	3.775266e-06	8.017740e-09	2.677677e+01	5.251794e+02
1.390000e-06	3.840585e-06	8.111910e-09	2.724005e+01	5.315551e+02
1.400000e-06	3.904779e-06	8.203991e-09	2.769536e+01	5.375628e+02
1.410000e-06	3.968011e-06	8.291423e-09	2.814385e+01	5.432446e+02
1.420000e-06	4.030211e-06	8.372831e-09	2.858502e+01	5.486479e+02
1.430000e-06	4.091349e-06	8.450310e-09	2.901864e+01	5.538199e+02
1.440000e-06	4.151539e-06	8.527065e-09	2.944555e+01	5.588026e+02
1.450000e-06	4.210590e-06	8.601959e-09	2.986439e+01	5.636271e+02
1.460000e-06	4.268113e-06	8.672868e-09	3.027238e+01	5.683058e+02
1.470000e-06	4.324269e-06	8.739348e-09	3.067068e+01	5.728283e+02
1.480000e-06	4.379297e-06	8.802528e-09	3.106097e+01	5.771661e+02
1.490000e-06	4.433092e-06	8.862738e-09	3.144252e+01	5.812876e+02
1.500000e-06	4.485551e-06	8.920819e-09	3.181460e+01	5.851793e+02
1.510000e-06	4.536401e-06	8.976448e-09	3.217526e+01	5.888615e+02
1.520000e-06	4.585590e-06	9.030130e-09	3.252414e+01	5.923880e+02
1.530000e-06	4.633397e-06	9.084358e-09	3.286322e+01	5.958261e+02
1.540000e-06	4.679919e-06	9.137614e-09	3.319319e+01	5.992238e+02
1.550000e-06	4.725164e-06	9.187709e-09	3.351410e+01	6.025824e+02
1.560000e-06	4.769209e-06	9.233195e-09	3.382650e+01	6.058488e+02
1.570000e-06	4.811812e-06	9.276584e-09	3.412866e+01	6.089366e+02
1.580000e-06	4.852808e-06	9.319967e-09	3.441944e+01	6.117666e+02
1.590000e-06	4.892478e-06	9.359613e-09	3.470080e+01	6.143075e+02
1.600000e-06	4.930855e-06	9.392476e-09	3.497300e+01	6.165950e+02
1.610000e-06	4.967906e-06	9.422878e-09	3.523578e+01	6.187183e+02
1.620000e-06	5.003691e-06	9.455122e-09	3.548960e+01	6.207798e+02
1.630000e-06	5.037912e-06	9.487244e-09	3.573232e+01	6.228486e+02
1.640000e-06	5.070528e-06	9.516599e-09	3.596365e+01	6.249302e+02
1.650000e-06	5.101896e-06	9.543409e-09	3.618614e+01	6.269692e+02
1.660000e-06	5.131990e-06	9.568921e-09	3.639958e+01	6.288803e+02
1.670000e-06	5.160801e-06	9.593057e-09	3.660393e+01	6.305920e+02
1.680000e-06	5.188296e-06	9.614260e-09	3.679895e+01	6.320804e+02
1.690000e-06	5.214092e-06	9.631038e-09	3.698191e+01	6.333760e+02
1.700000e-06	5.238220e-06	9.647196e-09	3.715304e+01	6.345443e+02
1.710000e-06	5.260986e-06	9.664793e-09	3.731451e+01	6.356530e+02
1.720000e-06	5.282396e-06	9.682405e-09	3.746637e+01	6.367418e+02
1.730000e-06	5.302563e-06	9.697326e-09	3.760940e+01	6.378113e+02
1.740000e-06	5.321319e-06	9.710650e-09	3.774243e+01	6.388314e+02
1.750000e-06	5.338451e-06	9.722678e-09	3.786395e+01	6.397614e+02
1.760000e-06	5.354009e-06	9.734289e-09	3.797429e+01	6.405697e+02
1.770000e-06	5.368007e-06	9.745355e-09	3.807358e+01	6.412444e+02
1.780000e-06	5.380558e-06	9.754176e-09	3.816260e+01	6.417923e+02
1.790000e-06	5.391384e-06	9.761700e-09	3.823938e+01	6.422324e+02
1.800000e-06	5.400309e-06	9.767683e-09	3.830269e+01	6.425885e+02
1.810000e-06	5.407672e-06	9.771972e-09	3.835491e+01	6.428841e+02
1.820000e-06	5.413565e-06	9.774613e-09	3.839671e+01	6.431392e+02
1.830000e-06	5.418103e-06	9.777186e-09	3.842889e+01	6.433650e+02
1.840000e-06	5.421190e-06	9.781078e-09	3.845079e+01	6.435586e+02
1.850000e-06	5.422489e-06	9.785400e-09	3.846000e+01	6.436989e+02
1.860000e-06	5.422187e-06	9.786441e-09	3.845786e+01	6.437513e+02
1.870000e-06	5.420481e-06	9.782625e-09	3.844576e+01	6.436806e+02
1.880000e-06	5.417434e-06	9.779931e-09	3.842415e+01	6.434696e+02
1.890000e-06	5.413111e-06	9.776408e-09	3.839349e+01	6.431309e+02
1.900000e-06	5.407136e-06	9.769494e-09	3.835111e+01	6.427053e+02
1.910000e-06	5.399553e-06	9.761992e-09	3.829732e+01	6.422424e+02
1.920000e-06	5.390718e-06	9.762755e-09	3.823466e+01	6.417737e+02
1.930000e-06	5.380559e-06	9.782116e-09	3.816260e+01	6.412925e+02
1.940000e-06	5.368958e-06	9.740676e-09	3.808032e+01	6.407544e+02
1.950000e-06	5.355315e-06	9.680888e-09	3.798356e+01	6.400998e+02
1.960000e-06	5.339114e-06	9.685016e-09	3.786865e+01	6.392883e+02
1.970000e-06	5.320771e-06	9.706781e-09	3.773855e+01	6.383254e+02
1.980000e-06	5.301311e-06	9.794828e-09	3.760052e+01	6.372638e+02
1.990000e-06	5.281577e-06	9.647224e-09	3.746056e+01	6.361776e+02
2.000000e-06	5.261001e-06	9.548532e-09	3.731462e+01	6.351225e+02
2.010000e-06	5.238322e-06	9.782527e-09	3.715376e+01	6.341045e+02
2.020000e-06	5.214196e-06	9.632226e-09	3.698265e+01	6.330765e+02
2.030000e-06	5.189217e-06	9.498490e-09	3.680548e+01	6.319653e+02
2.040000e-06	5.162497e-06	9.726528e-09	3.661596e+01	6.307150e+02
2.050000e-06	5.134392e-06	9.573422e-09	3.641662e+01	6.293194e+02
2.060000e-06	5.105075e-06	9.462273e-09	3.620868e+01	6.278247e+02
2.070000e-06	5.073885e-06	9.674244e-09	3.598746e+01	6.262990e+02
2.080000e-06	5.041282e-06	9.508014e-09	3.575622e+01	6.247857e+02
2.090000e-06	5.007457e-06	9.435814e-09	3.551631e+01	6.232696e+02
2.100000e-06	4.972201e-06	9.536818e-09	3.526625e+01	6.216766e+02
2.110000e-06	4.935909e-06	9.411956e-09	3.500885e+01	6.199099e+02
2.120000e-06	4.898048e-06	9.482225e-09	3.474030e+01	6.179030e+02
2.130000e-06	4.858332e-06	9.431739e-09	3.445861e+01	6.156587e+02
2.140000e-06	4.817261e-06	9.282698e-09	3.416731e+01	6.132514e+02
2.150000e-06	4.774764e-06	9.376385e-09	3.386589e+01	6.107883e+02
2.160000e-06	4.731145e-06	9.291015e-09	3.355651e+01	6.083526e+02
2.170000e-06	4.686245e-06	9.213327e-09	3.323805e+01	6.059579e+02
2.180000e-06	4.639623e-06	9.220545e-09	3.290738e+01	6.035419e+02
2.190000e-06	4.591648e-06	9.157665e-09	3.256711e+01	6.010008e+02
2.200000e-06	4.542336e-06	9.184115e-09	3.221735e+01	5.982468e+02
2.210000e-06	4.491657e-06	9.082480e-09	3.185790e+01	5.952544e+02
2.220000e-06	4.439572e-06	9.019583e-09	3.148848e+01	5.920713e+02
2.230000e-06	4.385724e-06	8.993764e-09	3.110655e+01	5.887883e+02
2.240000e-06	4.330366e-06	8.903570e-09	3.071392e+01	5.854868e+02
2.250000e-06	4.273766e-06	8.924528e-09	3.031247e+01	5.821939e+02
2.260000e-06	4.216062e-06	8.819886e-09	2.990319e+01	5.788699e+02
2.270000e-06	4.157303e-06	8.770097e-09	2.948644e+01	5.754336e+02
2.280000e-06	4.097546e-06	8.748254e-09	2.906260e+01	5.718097e+02
2.290000e-06	4.036653e-06	8.645713e-09	2.863070e+01	5.679688e+02
2.300000e-06	3.974198e-06	8.625234e-09	2.818773e+01	5.639392e+02
2.310000e-06	3.910507e-06	8.523228e-09	2.773599e+01	5.597860e+02
2.320000e-06	3.845893e-06	8.473552e-09	2.727770e+01	5.555698e+02
2.330000e-06	3.780260e-06	8.430980e-09	2.681219e+01	5.513128e+02
2.340000e-06	3.713628e-06	8.342309e-09	2.633959e+01	5.469884e+02
2.350000e-06	3.646128e-06	8.285741e-09	2.586083e+01	5.425397e+02
2.360000e-06	3.577677e-06	8.179785e-09	2.537533e+01	5.379126e+02
2.370000e-06	3.507875e-06	8.139734e-09	2.488025e+01	5.330832e+02
2.380000e-06	3.436850e-06	8.069784e-09	2.437649e+01	5.280641e+02
2.390000e-06	3.365021e-06	7.975949e-09	2.386703e+01	5.228881e+02
2.400000e-06	3.292373e-06	7.898399e-09	2.335176e+01	5.175830e+02
2.410000e-06	3.218913e-06	7.798551e-09	2.283073e+01	5.121529e+02
2.420000e-06	3.144600e-06	7.740324e-09	2.230366e+01	5.065790e+02
2.430000e-06	3.069359e-06	7.637559e-09	2.176999e+01	5.008365e+02
2.440000e-06	2.993100e-06	7.540355e-09	2.122911e+01	4.949150e+02
2.450000e-06	2.915663e-06	7.457713e-09	2.067987e+01	4.888280e+02
2.460000e-06	2.837063e-06	7.366585e-09	2.012239e+01	4.826039e+02
2.470000e-06	2.757605e-06	7.278125e-09	1.955882e+01	4.762643e+02
2.480000e-06	2.677522e-06	7.160489e-09	1.899082e+01	4.698027e+02
2.490000e-06	2.596693e-06	7.060255e-09	1.841752e+01	4.631801e+02
2.500000e-06	2.515127e-06	6.957277e-09	1.783900e+01	4.563395e+02
2.510000e-06	2.432879e-06	6.859882e-09	1.725564e+01	4.492338e+02
2.520000e-06	2.349945e-06	6.749053e-09	1.666742e+01	4.418505e+02
2.530000e-06	2.266525e-06	6.623255e-09	1.607575e+01	4.342182e+02
2.540000e-06	2.182652e-06	6.511001e-09	1.548086e+01	4.263906e+02
2.550000e-06	2.098038e-06	6.389571e-09	1.488072e+01	4.184160e+02
2.560000e-06	2.012477e-06	6.269316e-09	1.427387e+01	4.103089e+02
2.570000e-06	1.926108e-06	6.133007e-09	1.366128e+01	4.020399e+02
2.580000e-06	1.839113e-06	6.003776e-09	1.304425e+01	3.935479e+02
2.590000e-06	1.751650e-06	5.883098e-09	1.242390e+01	3.847696e+02
2.600000e-06	1.663872e-06	5.750224e-09	1.180132e+01	3.756703e+02
2.610000e-06	1.575657e-06	5.605131e-09	1.117564e+01	3.662588e+02
2.620000e-06	1.486939e-06	5.451572e-09	1.054639e+01	3.565803e+02
2.630000e-06	1.397884e-06	5.307755e-09	9.914750e+00	3.466903e+02
2.640000e-06	1.308569e-06	5.157437e-09	9.281263e+00	3.366233e+02
2.650000e-06	1.218916e-06	4.996408e-09	8.645388e+00	3.263721e+02
2.660000e-06	1.128936e-06	4.828792e-09	8.007189e+00	3.158867e+02
2.670000e-06	1.038703e-06	4.666450e-09	7.367194e+00	3.050953e+02
2.680000e-06	9.482037e-07	4.505113e-09	6.725310e+00	2.939339e+02
2.690000e-06	8.574723e-07	4.330821e-09	6.081780e+00	2.823736e+02
2.700000e-06	7.665597e-07	4.148715e-09	5.436966e+00	2.704319e+02
2.710000e-06	6.755426e-07	3.959979e-09	4.791410e+00	2.581614e+02
2.720000e-06	5.844607e-07	3.771561e-09	4.145395e+00	2.456242e+02
2.730000e-06	4.932709e-07	3.579326e-09	3.498615e+00	2.328595e+02
2.740000e-06	4.020018e-07	3.378891e-09	2.851271e+00	2.198612e+02
2.750000e-06	3.106480e-07	3.172576e-09	2.203328e+00	2.065748e+02
2.760000e-06	2.192461e-07	2.962813e-09	1.555043e+00	1.929155e+02
2.770000e-06	1.278262e-07	2.749319e-09	9.066307e-01	1.787993e+02
2.780000e-06	3.643017e-08	2.525580e-09	2.583877e-01	1.641754e+02
2.790000e-06	-5.495263e-08	2.291559e-09	-3.897617e-01	1.490430e+02
2.800000e-06	-1.463624e-07	2.053230e-09	-1.038102e+00	1.334466e+02
2.810000e-06	-2.377304e-07	1.814074e-09	-1.686147e+00	1.174497e+02
2.820000e-06	-3.290645e-07	1.567955e-09	-2.333950e+00	1.011007e+02
2.830000e-06	-4.203613e-07	1.310684e-09	-2.981490e+00	8.440600e+01
2.840000e-06	-5.115841e-07	1.046361e-09	-3.628505e+00	6.732523e+01
2.850000e-06	-6.027017e-07	7.771704e-10	-4.274773e+00	4.979130e+01
2.860000e-06	-6.936998e-07	5.003979e-10	-4.920193e+00	3.174566e+01
2.870000e-06	-7.845528e-07	2.159376e-10	-5.564585e+00	1.317225e+01
2.880000e-06	-8.752158e-07	-7.236655e-11	-6.207629e+00	-5.887044e+00
2.890000e-06	-9.656800e-07	-3.648197e-10	-6.849263e+00	-2.534256e+01
2.900000e-06	-1.055895e-06	-6.635457e-10	-7.489126e+00	-4.508659e+01
2.910000e-06	-1.145804e-06	-9.684431e-10	-8.126826e+00	-6.502617e+01
2.920000e-06	-1.235416e-06	-1.277920e-09	-8.762418e+00	-8.510113e+01
2.930000e-06	-1.324680e-06	-1.588379e-09	-9.395536e+00	-1.052781e+02
2.940000e-06	-1.413554e-06	-1.896742e-09	-1.002589e+01	-1.255253e+02
2.950000e-06	-1.502081e-06	-2.203663e-09	-1.065378e+01	-1.457830e+02
