# Temperatura_=_20.0
# Concentracion g/m^3_=_10000.0
# C_Vs_to_Am_M_A/Vsm_=_65563218390.804596
# pendiente_HvsI_1/m_=_3716.3
# ordenada_HvsI_A/m_=_1297.0
# frecuencia_Hz_=_269406.8156747657

Tiempo_(s)	Campo_(V.s)	Magnetizacion_(V.s)	Campo_(kA/m)	Magnetizacion_(A/m)
0.000000e+00	-5.361381e-06	-9.822730e-09	-3.829459e+01	-6.403267e+02
1.000000e-08	-5.360702e-06	-9.820668e-09	-3.828974e+01	-6.403351e+02
2.000000e-08	-5.358383e-06	-9.814373e-09	-3.827318e+01	-6.401842e+02
3.000000e-08	-5.354575e-06	-9.807469e-09	-3.824598e+01	-6.398850e+02
4.000000e-08	-5.349462e-06	-9.801938e-09	-3.820946e+01	-6.394843e+02
5.000000e-08	-5.343001e-06	-9.796563e-09	-3.816331e+01	-6.390425e+02
6.000000e-08	-5.335215e-06	-9.789585e-09	-3.810770e+01	-6.386008e+02
7.000000e-08	-5.325916e-06	-9.776176e-09	-3.804128e+01	-6.381587e+02
8.000000e-08	-5.314841e-06	-9.757228e-09	-3.796217e+01	-6.376724e+02
9.000000e-08	-5.302048e-06	-9.774243e-09	-3.787080e+01	-6.370795e+02
1.000000e-07	-5.287235e-06	-9.777130e-09	-3.776499e+01	-6.363349e+02
1.100000e-07	-5.270254e-06	-9.751010e-09	-3.764370e+01	-6.354406e+02
1.200000e-07	-5.251615e-06	-9.720958e-09	-3.751056e+01	-6.344497e+02
1.300000e-07	-5.231948e-06	-9.641255e-09	-3.737010e+01	-6.334414e+02
1.400000e-07	-5.211445e-06	-9.701687e-09	-3.722364e+01	-6.324800e+02
1.500000e-07	-5.189675e-06	-9.737660e-09	-3.706815e+01	-6.315800e+02
1.600000e-07	-5.166629e-06	-9.569564e-09	-3.690354e+01	-6.306980e+02
1.700000e-07	-5.142522e-06	-9.623611e-09	-3.673135e+01	-6.297566e+02
1.800000e-07	-5.116702e-06	-9.665343e-09	-3.654693e+01	-6.286867e+02
1.900000e-07	-5.089184e-06	-9.495221e-09	-3.635037e+01	-6.274635e+02
2.000000e-07	-5.060626e-06	-9.538014e-09	-3.614640e+01	-6.261151e+02
2.100000e-07	-5.030767e-06	-9.553202e-09	-3.593312e+01	-6.246988e+02
2.200000e-07	-4.999511e-06	-9.417297e-09	-3.570987e+01	-6.232583e+02
2.300000e-07	-4.966967e-06	-9.477092e-09	-3.547742e+01	-6.217885e+02
2.400000e-07	-4.932750e-06	-9.486467e-09	-3.523302e+01	-6.202305e+02
2.500000e-07	-4.897045e-06	-9.380349e-09	-3.497799e+01	-6.185003e+02
2.600000e-07	-4.860105e-06	-9.384445e-09	-3.471414e+01	-6.165358e+02
2.700000e-07	-4.821661e-06	-9.338159e-09	-3.443955e+01	-6.143352e+02
2.800000e-07	-4.781874e-06	-9.293870e-09	-3.415536e+01	-6.119616e+02
2.900000e-07	-4.740779e-06	-9.298324e-09	-3.386183e+01	-6.095127e+02
3.000000e-07	-4.698096e-06	-9.244363e-09	-3.355696e+01	-6.070686e+02
3.100000e-07	-4.653879e-06	-9.194560e-09	-3.324113e+01	-6.046503e+02
3.200000e-07	-4.608196e-06	-9.179137e-09	-3.291484e+01	-6.022100e+02
3.300000e-07	-4.561213e-06	-9.141958e-09	-3.257925e+01	-5.996607e+02
3.400000e-07	-4.512962e-06	-9.073964e-09	-3.223461e+01	-5.969258e+02
3.500000e-07	-4.463013e-06	-9.030334e-09	-3.187784e+01	-5.939814e+02
3.600000e-07	-4.411291e-06	-9.000743e-09	-3.150841e+01	-5.908669e+02
3.700000e-07	-4.358173e-06	-8.954642e-09	-3.112900e+01	-5.876586e+02
3.800000e-07	-4.303796e-06	-8.917077e-09	-3.074060e+01	-5.844227e+02
3.900000e-07	-4.248214e-06	-8.858408e-09	-3.034360e+01	-5.811754e+02
4.000000e-07	-4.191477e-06	-8.787901e-09	-2.993835e+01	-5.778737e+02
4.100000e-07	-4.133318e-06	-8.753685e-09	-2.952294e+01	-5.744400e+02
4.200000e-07	-4.073820e-06	-8.701739e-09	-2.909796e+01	-5.708072e+02
4.300000e-07	-4.013284e-06	-8.635090e-09	-2.866557e+01	-5.669556e+02
4.400000e-07	-3.951712e-06	-8.576689e-09	-2.822579e+01	-5.629225e+02
4.500000e-07	-3.889040e-06	-8.511305e-09	-2.777814e+01	-5.587790e+02
4.600000e-07	-3.825439e-06	-8.453168e-09	-2.732386e+01	-5.545888e+02
4.700000e-07	-3.761010e-06	-8.383597e-09	-2.686366e+01	-5.503732e+02
4.800000e-07	-3.695288e-06	-8.312017e-09	-2.639423e+01	-5.461021e+02
4.900000e-07	-3.628164e-06	-8.243336e-09	-2.591479e+01	-5.417119e+02
5.000000e-07	-3.560093e-06	-8.182288e-09	-2.542858e+01	-5.371411e+02
5.100000e-07	-3.491274e-06	-8.116801e-09	-2.493703e+01	-5.323591e+02
5.200000e-07	-3.421601e-06	-8.030117e-09	-2.443937e+01	-5.273747e+02
5.300000e-07	-3.351020e-06	-7.944634e-09	-2.393524e+01	-5.222219e+02
5.400000e-07	-3.279547e-06	-7.864008e-09	-2.342473e+01	-5.169341e+02
5.500000e-07	-3.207244e-06	-7.788714e-09	-2.290830e+01	-5.115235e+02
5.600000e-07	-3.134008e-06	-7.704878e-09	-2.238519e+01	-5.059789e+02
5.700000e-07	-3.059520e-06	-7.611735e-09	-2.185315e+01	-5.002785e+02
5.800000e-07	-2.983940e-06	-7.521789e-09	-2.131331e+01	-4.944084e+02
5.900000e-07	-2.907507e-06	-7.433318e-09	-2.076737e+01	-4.883728e+02
6.000000e-07	-2.830242e-06	-7.336662e-09	-2.021549e+01	-4.821889e+02
6.100000e-07	-2.752149e-06	-7.232062e-09	-1.965770e+01	-4.758696e+02
6.200000e-07	-2.673148e-06	-7.131477e-09	-1.909342e+01	-4.694086e+02
6.300000e-07	-2.593184e-06	-7.034948e-09	-1.852226e+01	-4.627766e+02
6.400000e-07	-2.512351e-06	-6.933623e-09	-1.794490e+01	-4.559348e+02
6.500000e-07	-2.430767e-06	-6.822448e-09	-1.736217e+01	-4.488552e+02
6.600000e-07	-2.348443e-06	-6.705721e-09	-1.677416e+01	-4.415376e+02
6.700000e-07	-2.265423e-06	-6.588626e-09	-1.618118e+01	-4.340090e+02
6.800000e-07	-2.181848e-06	-6.474171e-09	-1.558423e+01	-4.263071e+02
6.900000e-07	-2.097838e-06	-6.354685e-09	-1.498417e+01	-4.184547e+02
7.000000e-07	-2.013286e-06	-6.227979e-09	-1.438024e+01	-4.104424e+02
7.100000e-07	-1.928134e-06	-6.099782e-09	-1.377203e+01	-4.022286e+02
7.200000e-07	-1.842433e-06	-5.971633e-09	-1.315990e+01	-3.937587e+02
7.300000e-07	-1.756283e-06	-5.837443e-09	-1.254455e+01	-3.849925e+02
7.400000e-07	-1.669721e-06	-5.692266e-09	-1.192627e+01	-3.759239e+02
7.500000e-07	-1.582623e-06	-5.545122e-09	-1.130416e+01	-3.665833e+02
7.600000e-07	-1.495035e-06	-5.401780e-09	-1.067854e+01	-3.570188e+02
7.700000e-07	-1.407127e-06	-5.259128e-09	-1.005065e+01	-3.472684e+02
7.800000e-07	-1.319006e-06	-5.107000e-09	-9.421226e+00	-3.373365e+02
7.900000e-07	-1.230655e-06	-4.948835e-09	-8.790164e+00	-3.271879e+02
8.000000e-07	-1.141999e-06	-4.790504e-09	-8.156924e+00	-3.167617e+02
8.100000e-07	-1.052972e-06	-4.627577e-09	-7.521038e+00	-3.059963e+02
8.200000e-07	-9.635939e-07	-4.455778e-09	-6.882636e+00	-2.948558e+02
8.300000e-07	-8.739480e-07	-4.276901e-09	-6.242325e+00	-2.833417e+02
8.400000e-07	-7.840191e-07	-4.097415e-09	-5.599992e+00	-2.714880e+02
8.500000e-07	-6.937973e-07	-3.913923e-09	-4.955567e+00	-2.593424e+02
8.600000e-07	-6.032396e-07	-3.726224e-09	-4.308743e+00	-2.469419e+02
8.700000e-07	-5.123458e-07	-3.534188e-09	-3.659519e+00	-2.342951e+02
8.800000e-07	-4.212331e-07	-3.336721e-09	-3.008730e+00	-2.213755e+02
8.900000e-07	-3.300393e-07	-3.135423e-09	-2.357363e+00	-2.081297e+02
9.000000e-07	-2.387896e-07	-2.929601e-09	-1.705596e+00	-1.944940e+02
9.100000e-07	-1.474718e-07	-2.716555e-09	-1.053343e+00	-1.804140e+02
9.200000e-07	-5.613342e-08	-2.495084e-09	-4.009427e-01	-1.658594e+02
9.300000e-07	3.521990e-08	-2.267953e-09	2.515643e-01	-1.508304e+02
9.400000e-07	1.266105e-07	-2.035384e-09	9.043374e-01	-1.353525e+02
9.500000e-07	2.180167e-07	-1.795651e-09	1.557222e+00	-1.194625e+02
9.600000e-07	3.093674e-07	-1.546648e-09	2.209710e+00	-1.031907e+02
9.700000e-07	4.006281e-07	-1.292845e-09	2.861555e+00	-8.654582e+01
9.800000e-07	4.917787e-07	-1.036741e-09	3.512615e+00	-6.950973e+01
9.900000e-07	5.828232e-07	-7.741238e-10	4.162915e+00	-5.204347e+01
1.000000e-06	6.737312e-07	-4.984627e-10	4.812242e+00	-3.410444e+01
1.010000e-06	7.644118e-07	-2.140023e-10	5.459943e+00	-1.566717e+01
1.020000e-06	8.547425e-07	7.297885e-11	6.105146e+00	3.260273e+00
1.030000e-06	9.447207e-07	3.645765e-10	6.747831e+00	2.263112e+01
1.040000e-06	1.034286e-06	6.631403e-10	7.387565e+00	4.236719e+01
1.050000e-06	1.123361e-06	9.695071e-10	8.023798e+00	6.237435e+01
1.060000e-06	1.212075e-06	1.278493e-09	8.657458e+00	8.255848e+01
1.070000e-06	1.300508e-06	1.589305e-09	9.289104e+00	1.028349e+02
1.080000e-06	1.388685e-06	1.900982e-09	9.918922e+00	1.231287e+02
1.090000e-06	1.476554e-06	2.212302e-09	1.054654e+01	1.433688e+02
1.100000e-06	1.564051e-06	2.522064e-09	1.117150e+01	1.634809e+02
1.110000e-06	1.651141e-06	2.825491e-09	1.179356e+01	1.833855e+02
1.120000e-06	1.737775e-06	3.122845e-09	1.241236e+01	2.030003e+02
1.130000e-06	1.823955e-06	3.416308e-09	1.302792e+01	2.222456e+02
1.140000e-06	1.909658e-06	3.704328e-09	1.364006e+01	2.410486e+02
1.150000e-06	1.994754e-06	3.981739e-09	1.424788e+01	2.593431e+02
1.160000e-06	2.079252e-06	4.250440e-09	1.485142e+01	2.770681e+02
1.170000e-06	2.163307e-06	4.511793e-09	1.545180e+01	2.941689e+02
1.180000e-06	2.246957e-06	4.763905e-09	1.604928e+01	3.106032e+02
1.190000e-06	2.329999e-06	5.002720e-09	1.664242e+01	3.263515e+02
1.200000e-06	2.412125e-06	5.229106e-09	1.722902e+01	3.414259e+02
1.210000e-06	2.493404e-06	5.446602e-09	1.780957e+01	3.558683e+02
1.220000e-06	2.573990e-06	5.656466e-09	1.838517e+01	3.697366e+02
1.230000e-06	2.653823e-06	5.858883e-09	1.895539e+01	3.830804e+02
1.240000e-06	2.732784e-06	6.052270e-09	1.951939e+01	3.959203e+02
1.250000e-06	2.810901e-06	6.238585e-09	2.007734e+01	4.082395e+02
1.260000e-06	2.888298e-06	6.418388e-09	2.063017e+01	4.199970e+02
1.270000e-06	2.964948e-06	6.590662e-09	2.117765e+01	4.311558e+02
1.280000e-06	3.040841e-06	6.751308e-09	2.171973e+01	4.417129e+02
1.290000e-06	3.115781e-06	6.902268e-09	2.225500e+01	4.517149e+02
1.300000e-06	3.189475e-06	7.048754e-09	2.278138e+01	4.612486e+02
1.310000e-06	3.262013e-06	7.191321e-09	2.329949e+01	4.704113e+02
1.320000e-06	3.333658e-06	7.327397e-09	2.381123e+01	4.792737e+02
1.330000e-06	3.404480e-06	7.456915e-09	2.431709e+01	4.878553e+02
1.340000e-06	3.474380e-06	7.582663e-09	2.481636e+01	4.961241e+02
1.350000e-06	3.543306e-06	7.706211e-09	2.530868e+01	5.040196e+02
1.360000e-06	3.611431e-06	7.824469e-09	2.579527e+01	5.114875e+02
1.370000e-06	3.678689e-06	7.931810e-09	2.627567e+01	5.185074e+02
1.380000e-06	3.744705e-06	8.029128e-09	2.674720e+01	5.251012e+02
1.390000e-06	3.809430e-06	8.121245e-09	2.720951e+01	5.313212e+02
1.400000e-06	3.873216e-06	8.210997e-09	2.766512e+01	5.372273e+02
1.410000e-06	3.936131e-06	8.296947e-09	2.811449e+01	5.428675e+02
1.420000e-06	3.997992e-06	8.377789e-09	2.855635e+01	5.482709e+02
1.430000e-06	4.058806e-06	8.455499e-09	2.899072e+01	5.534538e+02
1.440000e-06	4.118698e-06	8.531762e-09	2.941851e+01	5.584298e+02
1.450000e-06	4.177506e-06	8.605400e-09	2.983856e+01	5.632155e+02
1.460000e-06	4.234784e-06	8.674483e-09	3.024768e+01	5.678265e+02
1.470000e-06	4.290612e-06	8.739116e-09	3.064644e+01	5.722684e+02
1.480000e-06	4.345335e-06	8.800693e-09	3.103731e+01	5.765318e+02
1.490000e-06	4.398916e-06	8.859326e-09	3.142002e+01	5.805986e+02
1.500000e-06	4.451158e-06	8.916071e-09	3.179316e+01	5.844581e+02
1.510000e-06	4.501789e-06	8.971358e-09	3.215481e+01	5.881244e+02
1.520000e-06	4.550707e-06	9.024422e-09	3.250421e+01	5.916405e+02
1.530000e-06	4.598220e-06	9.076297e-09	3.284358e+01	5.950645e+02
1.540000e-06	4.644495e-06	9.126867e-09	3.317411e+01	5.984415e+02
1.550000e-06	4.689476e-06	9.176115e-09	3.349539e+01	6.017754e+02
1.560000e-06	4.733274e-06	9.222912e-09	3.380823e+01	6.050197e+02
1.570000e-06	4.775686e-06	9.266835e-09	3.411116e+01	6.080938e+02
1.580000e-06	4.816506e-06	9.308077e-09	3.440273e+01	6.109207e+02
1.590000e-06	4.855972e-06	9.344978e-09	3.468462e+01	6.134670e+02
1.600000e-06	4.894128e-06	9.376893e-09	3.495716e+01	6.157637e+02
1.610000e-06	4.931001e-06	9.408098e-09	3.522053e+01	6.178963e+02
1.620000e-06	4.966690e-06	9.440007e-09	3.547544e+01	6.199664e+02
1.630000e-06	5.000832e-06	9.472082e-09	3.571931e+01	6.220448e+02
1.640000e-06	5.033378e-06	9.501850e-09	3.595177e+01	6.241394e+02
1.650000e-06	5.064661e-06	9.528256e-09	3.617522e+01	6.261932e+02
1.660000e-06	5.094650e-06	9.553010e-09	3.638942e+01	6.281138e+02
1.670000e-06	5.123342e-06	9.574758e-09	3.659435e+01	6.298185e+02
1.680000e-06	5.150656e-06	9.595439e-09	3.678945e+01	6.312726e+02
1.690000e-06	5.176270e-06	9.613659e-09	3.697240e+01	6.325037e+02
1.700000e-06	5.200266e-06	9.630587e-09	3.714380e+01	6.335875e+02
1.710000e-06	5.222963e-06	9.648567e-09	3.730591e+01	6.346129e+02
1.720000e-06	5.244325e-06	9.665598e-09	3.745850e+01	6.356468e+02
1.730000e-06	5.264422e-06	9.681151e-09	3.760204e+01	6.367105e+02
1.740000e-06	5.283160e-06	9.695121e-09	3.773588e+01	6.377784e+02
1.750000e-06	5.300285e-06	9.707262e-09	3.785820e+01	6.387941e+02
1.760000e-06	5.315802e-06	9.718606e-09	3.796903e+01	6.396950e+02
1.770000e-06	5.329791e-06	9.729561e-09	3.806896e+01	6.404351e+02
1.780000e-06	5.342321e-06	9.739907e-09	3.815845e+01	6.409989e+02
1.790000e-06	5.353170e-06	9.748183e-09	3.823594e+01	6.414041e+02
1.800000e-06	5.362164e-06	9.754375e-09	3.830019e+01	6.416946e+02
1.810000e-06	5.369527e-06	9.759461e-09	3.835278e+01	6.419253e+02
1.820000e-06	5.375446e-06	9.762450e-09	3.839505e+01	6.421441e+02
1.830000e-06	5.380039e-06	9.763599e-09	3.842786e+01	6.423751e+02
1.840000e-06	5.383180e-06	9.765790e-09	3.845030e+01	6.426079e+02
1.850000e-06	5.384539e-06	9.769496e-09	3.846000e+01	6.428007e+02
1.860000e-06	5.384268e-06	9.772818e-09	3.845806e+01	6.428962e+02
1.870000e-06	5.382620e-06	9.773940e-09	3.844629e+01	6.428467e+02
1.880000e-06	5.379653e-06	9.774917e-09	3.842510e+01	6.426370e+02
1.890000e-06	5.375456e-06	9.772417e-09	3.839513e+01	6.422933e+02
1.900000e-06	5.369696e-06	9.765852e-09	3.835398e+01	6.418709e+02
1.910000e-06	5.362282e-06	9.758832e-09	3.830102e+01	6.414266e+02
1.920000e-06	5.353551e-06	9.756612e-09	3.823866e+01	6.409878e+02
1.930000e-06	5.343537e-06	9.767739e-09	3.816714e+01	6.405364e+02
1.940000e-06	5.332154e-06	9.733274e-09	3.808583e+01	6.400178e+02
1.950000e-06	5.318799e-06	9.703235e-09	3.799044e+01	6.393716e+02
1.960000e-06	5.302927e-06	9.697027e-09	3.787707e+01	6.385681e+02
1.970000e-06	5.284812e-06	9.704106e-09	3.774769e+01	6.376295e+02
1.980000e-06	5.265378e-06	9.744850e-09	3.760887e+01	6.366231e+02
1.990000e-06	5.245594e-06	9.645412e-09	3.746757e+01	6.356274e+02
2.000000e-06	5.225063e-06	9.607375e-09	3.732091e+01	6.346910e+02
2.010000e-06	5.202671e-06	9.720412e-09	3.716098e+01	6.338059e+02
2.020000e-06	5.178853e-06	9.612943e-09	3.699086e+01	6.329117e+02
2.030000e-06	5.153993e-06	9.558428e-09	3.681328e+01	6.319288e+02
2.040000e-06	5.127416e-06	9.688127e-09	3.662345e+01	6.308017e+02
2.050000e-06	5.099536e-06	9.586200e-09	3.642432e+01	6.295262e+02
2.060000e-06	5.070509e-06	9.543599e-09	3.621699e+01	6.281459e+02
2.070000e-06	5.039736e-06	9.641684e-09	3.599719e+01	6.267179e+02
2.080000e-06	5.007512e-06	9.506310e-09	3.576702e+01	6.252705e+02
2.090000e-06	4.973913e-06	9.485439e-09	3.552703e+01	6.237772e+02
2.100000e-06	4.938802e-06	9.536730e-09	3.527625e+01	6.221648e+02
2.110000e-06	4.902671e-06	9.436351e-09	3.501817e+01	6.203518e+02
2.120000e-06	4.865093e-06	9.467455e-09	3.474976e+01	6.182956e+02
2.130000e-06	4.825691e-06	9.421760e-09	3.446833e+01	6.160203e+02
2.140000e-06	4.784957e-06	9.331195e-09	3.417738e+01	6.136072e+02
2.150000e-06	4.742802e-06	9.350753e-09	3.387628e+01	6.111536e+02
2.160000e-06	4.699374e-06	9.278315e-09	3.356609e+01	6.087211e+02
2.170000e-06	4.654742e-06	9.234015e-09	3.324730e+01	6.063036e+02
2.180000e-06	4.608509e-06	9.211092e-09	3.291707e+01	6.038337e+02
2.190000e-06	4.560925e-06	9.169108e-09	3.257720e+01	6.012220e+02
2.200000e-06	4.512081e-06	9.162531e-09	3.222832e+01	5.984081e+02
2.210000e-06	4.461866e-06	9.075204e-09	3.186965e+01	5.953928e+02
2.220000e-06	4.410269e-06	9.022986e-09	3.150111e+01	5.922341e+02
2.230000e-06	4.357042e-06	8.977977e-09	3.112092e+01	5.890102e+02
2.240000e-06	4.302259e-06	8.911833e-09	3.072963e+01	5.857719e+02
2.250000e-06	4.246119e-06	8.903798e-09	3.032864e+01	5.825124e+02
2.260000e-06	4.188822e-06	8.815459e-09	2.991939e+01	5.791711e+02
2.270000e-06	4.130474e-06	8.766700e-09	2.950263e+01	5.756691e+02
2.280000e-06	4.071089e-06	8.722680e-09	2.907846e+01	5.719537e+02
2.290000e-06	4.010638e-06	8.637099e-09	2.864668e+01	5.680275e+02
2.300000e-06	3.948775e-06	8.598780e-09	2.820481e+01	5.639446e+02
2.310000e-06	3.885556e-06	8.516897e-09	2.775325e+01	5.597782e+02
2.320000e-06	3.821332e-06	8.467464e-09	2.729452e+01	5.555793e+02
2.330000e-06	3.756192e-06	8.410470e-09	2.682925e+01	5.513493e+02
2.340000e-06	3.690116e-06	8.332538e-09	2.635729e+01	5.470420e+02
2.350000e-06	3.623009e-06	8.267483e-09	2.587797e+01	5.425906e+02
2.360000e-06	3.554988e-06	8.177723e-09	2.539212e+01	5.379424e+02
2.370000e-06	3.486022e-06	8.122143e-09	2.489952e+01	5.330820e+02
2.380000e-06	3.415888e-06	8.045359e-09	2.439857e+01	5.280304e+02
2.390000e-06	3.344639e-06	7.965761e-09	2.388966e+01	5.228243e+02
2.400000e-06	3.272515e-06	7.889369e-09	2.337450e+01	5.174907e+02
2.410000e-06	3.199560e-06	7.796946e-09	2.285341e+01	5.120327e+02
2.420000e-06	3.125718e-06	7.721941e-09	2.232598e+01	5.064325e+02
2.430000e-06	3.051089e-06	7.624003e-09	2.179293e+01	5.006696e+02
2.440000e-06	2.975586e-06	7.533352e-09	2.125364e+01	4.947364e+02
2.450000e-06	2.899105e-06	7.447507e-09	2.070736e+01	4.886435e+02
2.460000e-06	2.821566e-06	7.354390e-09	2.015352e+01	4.824084e+02
2.470000e-06	2.742786e-06	7.260656e-09	1.959083e+01	4.760385e+02
2.480000e-06	2.663131e-06	7.155449e-09	1.902187e+01	4.695181e+02
2.490000e-06	2.582847e-06	7.057391e-09	1.844843e+01	4.628123e+02
2.500000e-06	2.501822e-06	6.951557e-09	1.786970e+01	4.558838e+02
2.510000e-06	2.420191e-06	6.846604e-09	1.728663e+01	4.487137e+02
2.520000e-06	2.337885e-06	6.737434e-09	1.669875e+01	4.413131e+02
2.530000e-06	2.254856e-06	6.621855e-09	1.610570e+01	4.337158e+02
2.540000e-06	2.171296e-06	6.507763e-09	1.550885e+01	4.259567e+02
2.550000e-06	2.087329e-06	6.385459e-09	1.490911e+01	4.180478e+02
2.560000e-06	2.002818e-06	6.263519e-09	1.430548e+01	4.099665e+02
2.570000e-06	1.917582e-06	6.134012e-09	1.369666e+01	4.016633e+02
2.580000e-06	1.831525e-06	6.007711e-09	1.308198e+01	3.930859e+02
2.590000e-06	1.744683e-06	5.880718e-09	1.246170e+01	3.842052e+02
2.600000e-06	1.657277e-06	5.744161e-09	1.183738e+01	3.750300e+02
2.610000e-06	1.569474e-06	5.601695e-09	1.121024e+01	3.656001e+02
2.620000e-06	1.481381e-06	5.452766e-09	1.058102e+01	3.559633e+02
2.630000e-06	1.393009e-06	5.304891e-09	9.949807e+00	3.461469e+02
2.640000e-06	1.304340e-06	5.149890e-09	9.316474e+00	3.361402e+02
2.650000e-06	1.215345e-06	4.990645e-09	8.680815e+00	3.258957e+02
2.660000e-06	1.125991e-06	4.830920e-09	8.042584e+00	3.153490e+02
2.670000e-06	1.036329e-06	4.669802e-09	7.402161e+00	3.044457e+02
2.680000e-06	9.464404e-07	4.502251e-09	6.760114e+00	2.931632e+02
2.690000e-06	8.563877e-07	4.325002e-09	6.116897e+00	2.815169e+02
2.700000e-06	7.661951e-07	4.144444e-09	5.472681e+00	2.695487e+02
2.710000e-06	6.759047e-07	3.956632e-09	4.827766e+00	2.573048e+02
2.720000e-06	5.855172e-07	3.763993e-09	4.182157e+00	2.448133e+02
2.730000e-06	4.949686e-07	3.568025e-09	3.535399e+00	2.320694e+02
2.740000e-06	4.043018e-07	3.370069e-09	2.887795e+00	2.190351e+02
2.750000e-06	3.135417e-07	3.167137e-09	2.239525e+00	2.056509e+02
2.760000e-06	2.227119e-07	2.953595e-09	1.590758e+00	1.918544e+02
2.770000e-06	1.318685e-07	2.732792e-09	9.418939e-01	1.775987e+02
2.780000e-06	4.102151e-08	2.505891e-09	2.930032e-01	1.628651e+02
2.790000e-06	-4.982745e-08	2.273940e-09	-3.559012e-01	1.476642e+02
2.800000e-06	-1.406923e-07	2.034567e-09	-1.004919e+00	1.320278e+02
2.810000e-06	-2.315319e-07	1.788067e-09	-1.653757e+00	1.159924e+02
2.820000e-06	-3.222998e-07	1.535930e-09	-2.302082e+00	9.958146e+01
2.830000e-06	-4.129951e-07	1.278290e-09	-2.949889e+00	8.279384e+01
2.840000e-06	-5.036250e-07	1.014199e-09	-3.597229e+00	6.560206e+01
2.850000e-06	-5.941356e-07	7.415856e-10	-4.243717e+00	4.796345e+01
2.860000e-06	-6.845131e-07	4.615741e-10	-4.889253e+00	2.983943e+01
2.870000e-06	-7.747833e-07	1.787796e-10	-5.534024e+00	1.121572e+01
2.880000e-06	-8.648726e-07	-1.080006e-10	-6.177502e+00	-7.885030e+00
2.890000e-06	-9.547546e-07	-4.045937e-10	-6.819499e+00	-2.740282e+01
2.900000e-06	-1.044384e-06	-7.104864e-10	-7.459692e+00	-4.725147e+01
2.910000e-06	-1.133640e-06	-1.020216e-09	-8.097222e+00	-6.733521e+01
2.920000e-06	-1.222611e-06	-1.329934e-09	-8.732711e+00	-8.756285e+01
2.930000e-06	-1.311270e-06	-1.640180e-09	-9.365971e+00	-1.078538e+02
2.940000e-06	-1.399528e-06	-1.949787e-09	-9.996369e+00	-1.281354e+02
2.950000e-06	-1.487547e-06	-2.255266e-09	-1.062506e+01	-1.483361e+02
