# Temperatura_=_20.0
# Concentracion g/m^3_=_10000.0
# C_Vs_to_Am_M_A/Vsm_=_65563218390.804596
# pendiente_HvsI_1/m_=_3716.3
# ordenada_HvsI_A/m_=_1297.0
# frecuencia_Hz_=_269398.54383640643

Tiempo_(s)	Campo_(V.s)	Magnetizacion_(V.s)	Campo_(kA/m)	Magnetizacion_(A/m)
0.000000e+00	-5.414231e-06	-9.925742e-09	-3.829071e+01	-6.486232e+02
1.000000e-08	-5.412230e-06	-9.925393e-09	-3.827656e+01	-6.484866e+02
2.000000e-08	-5.408609e-06	-9.921567e-09	-3.825096e+01	-6.482735e+02
3.000000e-08	-5.403688e-06	-9.918101e-09	-3.821615e+01	-6.479832e+02
4.000000e-08	-5.397407e-06	-9.914745e-09	-3.817173e+01	-6.476204e+02
5.000000e-08	-5.389753e-06	-9.906843e-09	-3.811761e+01	-6.471922e+02
6.000000e-08	-5.380716e-06	-9.896059e-09	-3.805369e+01	-6.467003e+02
7.000000e-08	-5.369923e-06	-9.880138e-09	-3.797736e+01	-6.461346e+02
8.000000e-08	-5.357273e-06	-9.865317e-09	-3.788789e+01	-6.454752e+02
9.000000e-08	-5.342652e-06	-9.897031e-09	-3.778449e+01	-6.447041e+02
1.000000e-07	-5.325779e-06	-9.886341e-09	-3.766516e+01	-6.438216e+02
1.100000e-07	-5.307127e-06	-9.859956e-09	-3.753325e+01	-6.428546e+02
1.200000e-07	-5.287429e-06	-9.805141e-09	-3.739394e+01	-6.418505e+02
1.300000e-07	-5.266933e-06	-9.733574e-09	-3.724899e+01	-6.408551e+02
1.400000e-07	-5.245253e-06	-9.845887e-09	-3.709566e+01	-6.398861e+02
1.500000e-07	-5.222122e-06	-9.802884e-09	-3.693208e+01	-6.389178e+02
1.600000e-07	-5.197910e-06	-9.657259e-09	-3.676085e+01	-6.378890e+02
1.700000e-07	-5.172213e-06	-9.774143e-09	-3.657911e+01	-6.367320e+02
1.800000e-07	-5.144734e-06	-9.748319e-09	-3.638477e+01	-6.354084e+02
1.900000e-07	-5.116055e-06	-9.597104e-09	-3.618195e+01	-6.339309e+02
2.000000e-07	-5.086094e-06	-9.692516e-09	-3.597005e+01	-6.323564e+02
2.100000e-07	-5.054700e-06	-9.637511e-09	-3.574803e+01	-6.307520e+02
2.200000e-07	-5.022023e-06	-9.518956e-09	-3.551693e+01	-6.291521e+02
2.300000e-07	-4.987744e-06	-9.611997e-09	-3.527450e+01	-6.275310e+02
2.400000e-07	-4.951946e-06	-9.553910e-09	-3.502133e+01	-6.258107e+02
2.500000e-07	-4.914848e-06	-9.499984e-09	-3.475896e+01	-6.238993e+02
2.600000e-07	-4.876194e-06	-9.507222e-09	-3.448560e+01	-6.217425e+02
2.700000e-07	-4.836225e-06	-9.404858e-09	-3.420292e+01	-6.193578e+02
2.800000e-07	-4.794924e-06	-9.401476e-09	-3.391083e+01	-6.168297e+02
2.900000e-07	-4.751958e-06	-9.395382e-09	-3.360697e+01	-6.142679e+02
3.000000e-07	-4.707497e-06	-9.299898e-09	-3.329252e+01	-6.117496e+02
3.100000e-07	-4.661643e-06	-9.283320e-09	-3.296824e+01	-6.092772e+02
3.200000e-07	-4.614403e-06	-9.276007e-09	-3.263415e+01	-6.067764e+02
3.300000e-07	-4.565842e-06	-9.228586e-09	-3.229071e+01	-6.041352e+02
3.400000e-07	-4.515548e-06	-9.166826e-09	-3.193502e+01	-6.012635e+02
3.500000e-07	-4.463408e-06	-9.119373e-09	-3.156627e+01	-5.981395e+02
3.600000e-07	-4.409894e-06	-9.067198e-09	-3.118781e+01	-5.948179e+02
3.700000e-07	-4.355201e-06	-9.022168e-09	-3.080101e+01	-5.913971e+02
3.800000e-07	-4.299306e-06	-8.995720e-09	-3.040570e+01	-5.879627e+02
3.900000e-07	-4.242068e-06	-8.912019e-09	-3.000090e+01	-5.845424e+02
4.000000e-07	-4.183397e-06	-8.861072e-09	-2.958597e+01	-5.810941e+02
4.100000e-07	-4.123520e-06	-8.835997e-09	-2.916250e+01	-5.775337e+02
4.200000e-07	-4.062586e-06	-8.767695e-09	-2.873157e+01	-5.737842e+02
4.300000e-07	-4.000564e-06	-8.696450e-09	-2.829293e+01	-5.698173e+02
4.400000e-07	-3.937445e-06	-8.624669e-09	-2.784654e+01	-5.656634e+02
4.500000e-07	-3.873369e-06	-8.566793e-09	-2.739338e+01	-5.613878e+02
4.600000e-07	-3.808372e-06	-8.514220e-09	-2.693371e+01	-5.570480e+02
4.700000e-07	-3.742089e-06	-8.434932e-09	-2.646494e+01	-5.526593e+02
4.800000e-07	-3.674532e-06	-8.360874e-09	-2.598716e+01	-5.481876e+02
4.900000e-07	-3.606055e-06	-8.295872e-09	-2.550287e+01	-5.435724e+02
5.000000e-07	-3.536740e-06	-8.229938e-09	-2.501265e+01	-5.387634e+02
5.100000e-07	-3.466555e-06	-8.151087e-09	-2.451629e+01	-5.337479e+02
5.200000e-07	-3.395447e-06	-8.060375e-09	-2.401340e+01	-5.285529e+02
5.300000e-07	-3.323473e-06	-7.980989e-09	-2.350438e+01	-5.232220e+02
5.400000e-07	-3.250570e-06	-7.901232e-09	-2.298879e+01	-5.177835e+02
5.500000e-07	-3.176493e-06	-7.823765e-09	-2.246491e+01	-5.122306e+02
5.600000e-07	-3.101274e-06	-7.730830e-09	-2.193294e+01	-5.065258e+02
5.700000e-07	-3.025141e-06	-7.632186e-09	-2.139451e+01	-5.006256e+02
5.800000e-07	-2.948210e-06	-7.543219e-09	-2.085043e+01	-4.945090e+02
5.900000e-07	-2.870416e-06	-7.452112e-09	-2.030026e+01	-4.881913e+02
6.000000e-07	-2.791600e-06	-7.354160e-09	-1.974285e+01	-4.817125e+02
6.100000e-07	-2.711708e-06	-7.243485e-09	-1.917784e+01	-4.751092e+02
6.200000e-07	-2.630933e-06	-7.140184e-09	-1.860658e+01	-4.683869e+02
6.300000e-07	-2.549477e-06	-7.040986e-09	-1.803050e+01	-4.615108e+02
6.400000e-07	-2.467297e-06	-6.935010e-09	-1.744930e+01	-4.544230e+02
6.500000e-07	-2.384339e-06	-6.814673e-09	-1.686260e+01	-4.470737e+02
6.600000e-07	-2.300772e-06	-6.690293e-09	-1.627160e+01	-4.394502e+02
6.700000e-07	-2.216720e-06	-6.575658e-09	-1.567717e+01	-4.315828e+02
6.800000e-07	-2.132100e-06	-6.457476e-09	-1.507871e+01	-4.235253e+02
6.900000e-07	-2.046853e-06	-6.328446e-09	-1.447582e+01	-4.153199e+02
7.000000e-07	-1.961003e-06	-6.192949e-09	-1.386868e+01	-4.069682e+02
7.100000e-07	-1.874619e-06	-6.062309e-09	-1.325775e+01	-3.984256e+02
7.200000e-07	-1.787774e-06	-5.930534e-09	-1.264356e+01	-3.896229e+02
7.300000e-07	-1.700483e-06	-5.789150e-09	-1.202621e+01	-3.805031e+02
7.400000e-07	-1.612750e-06	-5.637639e-09	-1.140575e+01	-3.710515e+02
7.500000e-07	-1.524593e-06	-5.485247e-09	-1.078228e+01	-3.613015e+02
7.600000e-07	-1.436029e-06	-5.336798e-09	-1.015593e+01	-3.513123e+02
7.700000e-07	-1.346995e-06	-5.183560e-09	-9.526263e+00	-3.411318e+02
7.800000e-07	-1.257467e-06	-5.022318e-09	-8.893101e+00	-3.307646e+02
7.900000e-07	-1.167462e-06	-4.857392e-09	-8.256567e+00	-3.201653e+02
8.000000e-07	-1.077012e-06	-4.693783e-09	-7.616885e+00	-3.092597e+02
8.100000e-07	-9.862122e-07	-4.524645e-09	-6.974725e+00	-2.979825e+02
8.200000e-07	-8.951116e-07	-4.344521e-09	-6.330440e+00	-2.863102e+02
8.300000e-07	-8.037819e-07	-4.154640e-09	-5.684535e+00	-2.742706e+02
8.400000e-07	-7.123094e-07	-3.964195e-09	-5.037620e+00	-2.619242e+02
8.500000e-07	-6.207318e-07	-3.775266e-09	-4.389962e+00	-2.493272e+02
8.600000e-07	-5.290551e-07	-3.581790e-09	-3.741602e+00	-2.364959e+02
8.700000e-07	-4.372854e-07	-3.380080e-09	-3.092585e+00	-2.233928e+02
8.800000e-07	-3.454302e-07	-3.173602e-09	-2.442964e+00	-2.099395e+02
8.900000e-07	-2.534994e-07	-2.966145e-09	-1.792808e+00	-1.960506e+02
9.000000e-07	-1.615476e-07	-2.750481e-09	-1.142503e+00	-1.816700e+02
9.100000e-07	-6.956682e-08	-2.522765e-09	-4.919929e-01	-1.667915e+02
9.200000e-07	2.241619e-08	-2.285795e-09	1.585326e-01	-1.514536e+02
9.300000e-07	1.143740e-07	-2.045243e-09	8.088799e-01	-1.357128e+02
9.400000e-07	2.063302e-07	-1.800737e-09	1.459216e+00	-1.196098e+02
9.500000e-07	2.982358e-07	-1.549059e-09	2.109194e+00	-1.031452e+02
9.600000e-07	3.900842e-07	-1.289389e-09	2.758767e+00	-8.627702e+01
9.700000e-07	4.818832e-07	-1.025638e-09	3.407992e+00	-6.893922e+01
9.800000e-07	5.736740e-07	-7.577041e-10	4.057158e+00	-5.107282e+01
9.900000e-07	6.653967e-07	-4.786388e-10	4.705842e+00	-3.265372e+01
1.000000e-06	7.569590e-07	-1.880700e-10	5.353392e+00	-1.370577e+01
1.010000e-06	8.483500e-07	1.103380e-10	5.999731e+00	5.705511e+00
1.020000e-06	9.395480e-07	4.119792e-10	6.644705e+00	2.549326e+01
1.030000e-06	1.030556e-06	7.163438e-10	7.288335e+00	4.557274e+01
1.040000e-06	1.121314e-06	1.025228e-09	7.930199e+00	6.587651e+01
1.050000e-06	1.211578e-06	1.339005e-09	8.568566e+00	8.635510e+01
1.060000e-06	1.301275e-06	1.655007e-09	9.202922e+00	1.069644e+02
1.070000e-06	1.390495e-06	1.970246e-09	9.833908e+00	1.276479e+02
1.080000e-06	1.479176e-06	2.286486e-09	1.046108e+01	1.483234e+02
1.090000e-06	1.567391e-06	2.602981e-09	1.108496e+01	1.688822e+02
1.100000e-06	1.655270e-06	2.915138e-09	1.170646e+01	1.892010e+02
1.110000e-06	1.742744e-06	3.218253e-09	1.232509e+01	2.091606e+02
1.120000e-06	1.829726e-06	3.516099e-09	1.294025e+01	2.286643e+02
1.130000e-06	1.916213e-06	3.807784e-09	1.355191e+01	2.476453e+02
1.140000e-06	2.002196e-06	4.089149e-09	1.416000e+01	2.660633e+02
1.150000e-06	2.087643e-06	4.358529e-09	1.476430e+01	2.838925e+02
1.160000e-06	2.172487e-06	4.617735e-09	1.536434e+01	3.011098e+02
1.170000e-06	2.256746e-06	4.870521e-09	1.596024e+01	3.176902e+02
1.180000e-06	2.340575e-06	5.113665e-09	1.655310e+01	3.336110e+02
1.190000e-06	2.423847e-06	5.346275e-09	1.714202e+01	3.488627e+02
1.200000e-06	2.506330e-06	5.566812e-09	1.772535e+01	3.634562e+02
1.210000e-06	2.587892e-06	5.777955e-09	1.830218e+01	3.774223e+02
1.220000e-06	2.668586e-06	5.981501e-09	1.887287e+01	3.907992e+02
1.230000e-06	2.748533e-06	6.175535e-09	1.943827e+01	4.036168e+02
1.240000e-06	2.827624e-06	6.358431e-09	1.999763e+01	4.158849e+02
1.250000e-06	2.905889e-06	6.534121e-09	2.055113e+01	4.275942e+02
1.260000e-06	2.983369e-06	6.705081e-09	2.109909e+01	4.387310e+02
1.270000e-06	3.059996e-06	6.867911e-09	2.164101e+01	4.492987e+02
1.280000e-06	3.135800e-06	7.021698e-09	2.217712e+01	4.593321e+02
1.290000e-06	3.210632e-06	7.168589e-09	2.270634e+01	4.688966e+02
1.300000e-06	3.284266e-06	7.311387e-09	2.322710e+01	4.780698e+02
1.310000e-06	3.356758e-06	7.448385e-09	2.373979e+01	4.869137e+02
1.320000e-06	3.428362e-06	7.577500e-09	2.424618e+01	4.954522e+02
1.330000e-06	3.499087e-06	7.698827e-09	2.474637e+01	5.036664e+02
1.340000e-06	3.568861e-06	7.818233e-09	2.523982e+01	5.115107e+02
1.350000e-06	3.637712e-06	7.935784e-09	2.572676e+01	5.189418e+02
1.360000e-06	3.705710e-06	8.044670e-09	2.620765e+01	5.259452e+02
1.370000e-06	3.772834e-06	8.143614e-09	2.668237e+01	5.325465e+02
1.380000e-06	3.838724e-06	8.237260e-09	2.714836e+01	5.388013e+02
1.390000e-06	3.903309e-06	8.330379e-09	2.760512e+01	5.447707e+02
1.400000e-06	3.966872e-06	8.420214e-09	2.805465e+01	5.504978e+02
1.410000e-06	4.029403e-06	8.502354e-09	2.849688e+01	5.559971e+02
1.420000e-06	4.090856e-06	8.579588e-09	2.893150e+01	5.612612e+02
1.430000e-06	4.151333e-06	8.655529e-09	2.935921e+01	5.662802e+02
1.440000e-06	4.210838e-06	8.729981e-09	2.978004e+01	5.710594e+02
1.450000e-06	4.268996e-06	8.800435e-09	3.019135e+01	5.756256e+02
1.460000e-06	4.325608e-06	8.864977e-09	3.059172e+01	5.800166e+02
1.470000e-06	4.380978e-06	8.927458e-09	3.098331e+01	5.842643e+02
1.480000e-06	4.435209e-06	8.988675e-09	3.136684e+01	5.883798e+02
1.490000e-06	4.488171e-06	9.047378e-09	3.174140e+01	5.923527e+02
1.500000e-06	4.539680e-06	9.103408e-09	3.210569e+01	5.961641e+02
1.510000e-06	4.589461e-06	9.155851e-09	3.245775e+01	5.998034e+02
1.520000e-06	4.637593e-06	9.206679e-09	3.279815e+01	6.032802e+02
1.530000e-06	4.684409e-06	9.256800e-09	3.312924e+01	6.066205e+02
1.540000e-06	4.729942e-06	9.303999e-09	3.345126e+01	6.098505e+02
1.550000e-06	4.774254e-06	9.348261e-09	3.376465e+01	6.129784e+02
1.560000e-06	4.817360e-06	9.392219e-09	3.406950e+01	6.159868e+02
1.570000e-06	4.858908e-06	9.436610e-09	3.436334e+01	6.188408e+02
1.580000e-06	4.898921e-06	9.477741e-09	3.464632e+01	6.215092e+02
1.590000e-06	4.937637e-06	9.512609e-09	3.492013e+01	6.239854e+02
1.600000e-06	4.975023e-06	9.545063e-09	3.518453e+01	6.262949e+02
1.610000e-06	5.011193e-06	9.577254e-09	3.544034e+01	6.284844e+02
1.620000e-06	5.045988e-06	9.606813e-09	3.568641e+01	6.305974e+02
1.630000e-06	5.079091e-06	9.633106e-09	3.592053e+01	6.326508e+02
1.640000e-06	5.110748e-06	9.657448e-09	3.614441e+01	6.346257e+02
1.650000e-06	5.141160e-06	9.683050e-09	3.635950e+01	6.364794e+02
1.660000e-06	5.170254e-06	9.708243e-09	3.656525e+01	6.381697e+02
1.670000e-06	5.198138e-06	9.730093e-09	3.676246e+01	6.396800e+02
1.680000e-06	5.224480e-06	9.748753e-09	3.694875e+01	6.410294e+02
1.690000e-06	5.248980e-06	9.765216e-09	3.712202e+01	6.422631e+02
1.700000e-06	5.271988e-06	9.780716e-09	3.728474e+01	6.434292e+02
1.710000e-06	5.293713e-06	9.795232e-09	3.743838e+01	6.445557e+02
1.720000e-06	5.314121e-06	9.810165e-09	3.758271e+01	6.456395e+02
1.730000e-06	5.333181e-06	9.824970e-09	3.771751e+01	6.466538e+02
1.740000e-06	5.350731e-06	9.838997e-09	3.784163e+01	6.475665e+02
1.750000e-06	5.366709e-06	9.851985e-09	3.795463e+01	6.483589e+02
1.760000e-06	5.381137e-06	9.863107e-09	3.805667e+01	6.490343e+02
1.770000e-06	5.393997e-06	9.873056e-09	3.814762e+01	6.496127e+02
1.780000e-06	5.405198e-06	9.881180e-09	3.822683e+01	6.501164e+02
1.790000e-06	5.414536e-06	9.886858e-09	3.829287e+01	6.505580e+02
1.800000e-06	5.422185e-06	9.889477e-09	3.834697e+01	6.509356e+02
1.810000e-06	5.428379e-06	9.890916e-09	3.839078e+01	6.512389e+02
1.820000e-06	5.433157e-06	9.894464e-09	3.842456e+01	6.514582e+02
1.830000e-06	5.436516e-06	9.899240e-09	3.844832e+01	6.515913e+02
1.840000e-06	5.438153e-06	9.903690e-09	3.845990e+01	6.516434e+02
1.850000e-06	5.438167e-06	9.905382e-09	3.846000e+01	6.516210e+02
1.860000e-06	5.436775e-06	9.903694e-09	3.845015e+01	6.515268e+02
1.870000e-06	5.433940e-06	9.900786e-09	3.843010e+01	6.513583e+02
1.880000e-06	5.429814e-06	9.897579e-09	3.840092e+01	6.511124e+02
1.890000e-06	5.424173e-06	9.891814e-09	3.836103e+01	6.507906e+02
1.900000e-06	5.416854e-06	9.883887e-09	3.830926e+01	6.503993e+02
1.910000e-06	5.408192e-06	9.877522e-09	3.824801e+01	6.499446e+02
1.920000e-06	5.398304e-06	9.878373e-09	3.817807e+01	6.494235e+02
1.930000e-06	5.386991e-06	9.897801e-09	3.809807e+01	6.488210e+02
1.940000e-06	5.373834e-06	9.824338e-09	3.800502e+01	6.481161e+02
1.950000e-06	5.358233e-06	9.803093e-09	3.789469e+01	6.472967e+02
1.960000e-06	5.340268e-06	9.785445e-09	3.776763e+01	6.463738e+02
1.970000e-06	5.320841e-06	9.849619e-09	3.763024e+01	6.453846e+02
1.980000e-06	5.300907e-06	9.880724e-09	3.748926e+01	6.443792e+02
1.990000e-06	5.280444e-06	9.669540e-09	3.734454e+01	6.433946e+02
2.000000e-06	5.258172e-06	9.776703e-09	3.718703e+01	6.424311e+02
2.010000e-06	5.234198e-06	9.885616e-09	3.701748e+01	6.414458e+02
2.020000e-06	5.209369e-06	9.658506e-09	3.684189e+01	6.403705e+02
2.030000e-06	5.182947e-06	9.713775e-09	3.665502e+01	6.391456e+02
2.040000e-06	5.154953e-06	9.816347e-09	3.645704e+01	6.377528e+02
2.050000e-06	5.125814e-06	9.601799e-09	3.625097e+01	6.362260e+02
2.060000e-06	5.094954e-06	9.686339e-09	3.603271e+01	6.346315e+02
2.070000e-06	5.062557e-06	9.757858e-09	3.580360e+01	6.330275e+02
2.080000e-06	5.028929e-06	9.565175e-09	3.556577e+01	6.314250e+02
2.090000e-06	4.993767e-06	9.633174e-09	3.531710e+01	6.297736e+02
2.100000e-06	4.957507e-06	9.583441e-09	3.506066e+01	6.279834e+02
2.110000e-06	4.919912e-06	9.500502e-09	3.479478e+01	6.259722e+02
2.120000e-06	4.880398e-06	9.610390e-09	3.451532e+01	6.237135e+02
2.130000e-06	4.839398e-06	9.436375e-09	3.422537e+01	6.212556e+02
2.140000e-06	4.797035e-06	9.412321e-09	3.392576e+01	6.187003e+02
2.150000e-06	4.753442e-06	9.488617e-09	3.361746e+01	6.161505e+02
2.160000e-06	4.708720e-06	9.332905e-09	3.330118e+01	6.136555e+02
2.170000e-06	4.662288e-06	9.323249e-09	3.297280e+01	6.111833e+02
2.180000e-06	4.614325e-06	9.265729e-09	3.263359e+01	6.086373e+02
2.190000e-06	4.565118e-06	9.241975e-09	3.228559e+01	6.059074e+02
2.200000e-06	4.514520e-06	9.237795e-09	3.192775e+01	6.029281e+02
2.210000e-06	4.462598e-06	9.123404e-09	3.156054e+01	5.997110e+02
2.220000e-06	4.409011e-06	9.110681e-09	3.118157e+01	5.963352e+02
2.230000e-06	4.353782e-06	9.024712e-09	3.079097e+01	5.929004e+02
2.240000e-06	4.297265e-06	8.995288e-09	3.039127e+01	5.894724e+02
2.250000e-06	4.239602e-06	8.958147e-09	2.998346e+01	5.860485e+02
2.260000e-06	4.180851e-06	8.831597e-09	2.956796e+01	5.825640e+02
2.270000e-06	4.121102e-06	8.841163e-09	2.914540e+01	5.789317e+02
2.280000e-06	4.060355e-06	8.766245e-09	2.871579e+01	5.750911e+02
2.290000e-06	3.998125e-06	8.701863e-09	2.827568e+01	5.710393e+02
2.300000e-06	3.934490e-06	8.645295e-09	2.782564e+01	5.668258e+02
2.310000e-06	3.869946e-06	8.542105e-09	2.736917e+01	5.625179e+02
2.320000e-06	3.804409e-06	8.529956e-09	2.690567e+01	5.581585e+02
2.330000e-06	3.737830e-06	8.435626e-09	2.643482e+01	5.537412e+02
2.340000e-06	3.670295e-06	8.368297e-09	2.595719e+01	5.492169e+02
2.350000e-06	3.601785e-06	8.295873e-09	2.547267e+01	5.445249e+02
2.360000e-06	3.532104e-06	8.209479e-09	2.497987e+01	5.396284e+02
2.370000e-06	3.461170e-06	8.159131e-09	2.447821e+01	5.345328e+02
2.380000e-06	3.389257e-06	8.051659e-09	2.396963e+01	5.292756e+02
2.390000e-06	3.316502e-06	7.988946e-09	2.345508e+01	5.238978e+02
2.400000e-06	3.242965e-06	7.893011e-09	2.293501e+01	5.184142e+02
2.410000e-06	3.168577e-06	7.811731e-09	2.240892e+01	5.128032e+02
2.420000e-06	3.093250e-06	7.737410e-09	2.187619e+01	5.070211e+02
2.430000e-06	3.017021e-06	7.623762e-09	2.133708e+01	5.010308e+02
2.440000e-06	2.939618e-06	7.536578e-09	2.078967e+01	4.948262e+02
2.450000e-06	2.861064e-06	7.431308e-09	2.023412e+01	4.884355e+02
2.460000e-06	2.781606e-06	7.349015e-09	1.967217e+01	4.819013e+02
2.470000e-06	2.701402e-06	7.246483e-09	1.910495e+01	4.752497e+02
2.480000e-06	2.620468e-06	7.134089e-09	1.853257e+01	4.684691e+02
2.490000e-06	2.538748e-06	7.032131e-09	1.795463e+01	4.615118e+02
2.500000e-06	2.456383e-06	6.925477e-09	1.737212e+01	4.543190e+02
2.510000e-06	2.373369e-06	6.822455e-09	1.678502e+01	4.468539e+02
2.520000e-06	2.289746e-06	6.693140e-09	1.619362e+01	4.391226e+02
2.530000e-06	2.205636e-06	6.575233e-09	1.559878e+01	4.311689e+02
2.540000e-06	2.120888e-06	6.458084e-09	1.499942e+01	4.230461e+02
2.550000e-06	2.035289e-06	6.337785e-09	1.439404e+01	4.147819e+02
2.560000e-06	1.948906e-06	6.208160e-09	1.378312e+01	4.063579e+02
2.570000e-06	1.861904e-06	6.069248e-09	1.316783e+01	3.977151e+02
2.580000e-06	1.774346e-06	5.940100e-09	1.254859e+01	3.887848e+02
2.590000e-06	1.686344e-06	5.804056e-09	1.192622e+01	3.795251e+02
2.600000e-06	1.597949e-06	5.662937e-09	1.130107e+01	3.699425e+02
2.610000e-06	1.509182e-06	5.510023e-09	1.067329e+01	3.600850e+02
2.620000e-06	1.420009e-06	5.357820e-09	1.004264e+01	3.500118e+02
2.630000e-06	1.330462e-06	5.205977e-09	9.409337e+00	3.397556e+02
2.640000e-06	1.240650e-06	5.045874e-09	8.774165e+00	3.292991e+02
2.650000e-06	1.150521e-06	4.878173e-09	8.136757e+00	3.185812e+02
2.660000e-06	1.060088e-06	4.705295e-09	7.497189e+00	3.075265e+02
2.670000e-06	9.693961e-07	4.538413e-09	6.855797e+00	2.960840e+02
2.680000e-06	8.785062e-07	4.364726e-09	6.213002e+00	2.842523e+02
2.690000e-06	7.875087e-07	4.180146e-09	5.569447e+00	2.720765e+02
2.700000e-06	6.963325e-07	3.990404e-09	4.924628e+00	2.596200e+02
2.710000e-06	6.049582e-07	3.796370e-09	4.278407e+00	2.469261e+02
2.720000e-06	5.134702e-07	3.599474e-09	3.631382e+00	2.339886e+02
2.730000e-06	4.218918e-07	3.396231e-09	2.983718e+00	2.207500e+02
2.740000e-06	3.302580e-07	3.185409e-09	2.335662e+00	2.071242e+02
2.750000e-06	2.385746e-07	2.968558e-09	1.687256e+00	1.930341e+02
2.760000e-06	1.469038e-07	2.747520e-09	1.038938e+00	1.784435e+02
2.770000e-06	5.522450e-08	2.519477e-09	3.905607e-01	1.633666e+02
2.780000e-06	-3.648909e-08	2.281740e-09	-2.580594e-01	1.478537e+02
2.790000e-06	-1.281679e-07	2.038038e-09	-9.064332e-01	1.319586e+02
2.800000e-06	-2.198165e-07	1.790687e-09	-1.554594e+00	1.157071e+02
2.810000e-06	-3.114689e-07	1.539127e-09	-2.202781e+00	9.908104e+01
2.820000e-06	-4.031256e-07	1.278854e-09	-2.850999e+00	8.202511e+01
2.830000e-06	-4.946863e-07	1.008047e-09	-3.498538e+00	6.447232e+01
2.840000e-06	-5.860854e-07	7.290275e-10	-4.144934e+00	4.637547e+01
2.850000e-06	-6.773763e-07	4.415141e-10	-4.790565e+00	2.772997e+01
2.860000e-06	-7.685312e-07	1.490219e-10	-5.435234e+00	8.578798e+00
2.870000e-06	-8.594830e-07	-1.487705e-10	-6.078466e+00	-1.100069e+01
2.880000e-06	-9.502085e-07	-4.511374e-10	-6.720098e+00	-3.091991e+01
2.890000e-06	-1.040703e-06	-7.567545e-10	-7.360095e+00	-5.110027e+01
2.900000e-06	-1.130958e-06	-1.065905e-09	-7.998402e+00	-7.148262e+01
2.910000e-06	-1.220910e-06	-1.380632e-09	-8.634560e+00	-9.202177e+01
2.920000e-06	-1.310538e-06	-1.701503e-09	-9.268434e+00	-1.126705e+02
2.930000e-06	-1.399836e-06	-2.019339e-09	-9.899973e+00	-1.333628e+02
2.940000e-06	-1.488755e-06	-2.330444e-09	-1.052883e+01	-1.540045e+02
2.950000e-06	-1.577279e-06	-2.638412e-09	-1.115489e+01	-1.744789e+02
