# Temperatura_=_20.0
# Concentracion g/m^3_=_10000.0
# C_Vs_to_Am_M_A/Vsm_=_65563218390.804596
# pendiente_HvsI_1/m_=_3716.3
# ordenada_HvsI_A/m_=_1297.0
# frecuencia_Hz_=_269408.82109088474

Tiempo_(s)	Campo_(V.s)	Magnetizacion_(V.s)	Campo_(kA/m)	Magnetizacion_(A/m)
0.000000e+00	-5.388624e-06	-9.787476e-09	-3.828923e+01	-6.398953e+02
1.000000e-08	-5.386456e-06	-9.783091e-09	-3.827383e+01	-6.396376e+02
2.000000e-08	-5.382731e-06	-9.777189e-09	-3.824735e+01	-6.392358e+02
3.000000e-08	-5.377675e-06	-9.769851e-09	-3.821143e+01	-6.387826e+02
4.000000e-08	-5.371255e-06	-9.762679e-09	-3.816581e+01	-6.383602e+02
5.000000e-08	-5.363485e-06	-9.756648e-09	-3.811060e+01	-6.379959e+02
6.000000e-08	-5.354287e-06	-9.749759e-09	-3.804524e+01	-6.376448e+02
7.000000e-08	-5.343380e-06	-9.743588e-09	-3.796774e+01	-6.372108e+02
8.000000e-08	-5.330638e-06	-9.729697e-09	-3.787721e+01	-6.365980e+02
9.000000e-08	-5.315868e-06	-9.723478e-09	-3.777226e+01	-6.357640e+02
1.000000e-07	-5.298937e-06	-9.712536e-09	-3.765195e+01	-6.347480e+02
1.100000e-07	-5.280304e-06	-9.685703e-09	-3.751955e+01	-6.336540e+02
1.200000e-07	-5.260593e-06	-9.673377e-09	-3.737950e+01	-6.325981e+02
1.300000e-07	-5.240056e-06	-9.647248e-09	-3.723357e+01	-6.316467e+02
1.400000e-07	-5.218338e-06	-9.630848e-09	-3.707925e+01	-6.307786e+02
1.500000e-07	-5.195231e-06	-9.640683e-09	-3.691506e+01	-6.298948e+02
1.600000e-07	-5.170934e-06	-9.602496e-09	-3.674242e+01	-6.288696e+02
1.700000e-07	-5.145115e-06	-9.581781e-09	-3.655896e+01	-6.276177e+02
1.800000e-07	-5.117627e-06	-9.573183e-09	-3.636364e+01	-6.261397e+02
1.900000e-07	-5.088983e-06	-9.509520e-09	-3.616011e+01	-6.245206e+02
2.000000e-07	-5.059058e-06	-9.505625e-09	-3.594747e+01	-6.228822e+02
2.100000e-07	-5.027699e-06	-9.503899e-09	-3.572465e+01	-6.213147e+02
2.200000e-07	-4.995069e-06	-9.441110e-09	-3.549280e+01	-6.198255e+02
2.300000e-07	-4.960804e-06	-9.437464e-09	-3.524932e+01	-6.183328e+02
2.400000e-07	-4.924998e-06	-9.423055e-09	-3.499490e+01	-6.167079e+02
2.500000e-07	-4.887920e-06	-9.361260e-09	-3.473144e+01	-6.148420e+02
2.600000e-07	-4.849334e-06	-9.339795e-09	-3.445727e+01	-6.127017e+02
2.700000e-07	-4.809446e-06	-9.308565e-09	-3.417384e+01	-6.103433e+02
2.800000e-07	-4.768292e-06	-9.269104e-09	-3.388142e+01	-6.078793e+02
2.900000e-07	-4.725517e-06	-9.248110e-09	-3.357748e+01	-6.054177e+02
3.000000e-07	-4.681227e-06	-9.208238e-09	-3.326277e+01	-6.030057e+02
3.100000e-07	-4.635528e-06	-9.157083e-09	-3.293806e+01	-6.006094e+02
3.200000e-07	-4.588451e-06	-9.120698e-09	-3.260355e+01	-5.981369e+02
3.300000e-07	-4.540067e-06	-9.086698e-09	-3.225975e+01	-5.954891e+02
3.400000e-07	-4.489963e-06	-9.031122e-09	-3.190374e+01	-5.926117e+02
3.500000e-07	-4.438018e-06	-8.992248e-09	-3.153463e+01	-5.895178e+02
3.600000e-07	-4.384628e-06	-8.960810e-09	-3.115527e+01	-5.862749e+02
3.700000e-07	-4.330020e-06	-8.900362e-09	-3.076725e+01	-5.829637e+02
3.800000e-07	-4.274255e-06	-8.851100e-09	-3.037101e+01	-5.796356e+02
3.900000e-07	-4.217274e-06	-8.802758e-09	-2.996612e+01	-5.762898e+02
4.000000e-07	-4.158913e-06	-8.740294e-09	-2.955143e+01	-5.728801e+02
4.100000e-07	-4.099228e-06	-8.690855e-09	-2.912734e+01	-5.693442e+02
4.200000e-07	-4.038467e-06	-8.639365e-09	-2.869560e+01	-5.656372e+02
4.300000e-07	-3.976589e-06	-8.579412e-09	-2.825592e+01	-5.617499e+02
4.400000e-07	-3.913602e-06	-8.516341e-09	-2.780836e+01	-5.577071e+02
4.500000e-07	-3.849772e-06	-8.449831e-09	-2.735481e+01	-5.535471e+02
4.600000e-07	-3.785106e-06	-8.388327e-09	-2.689532e+01	-5.492989e+02
4.700000e-07	-3.719119e-06	-8.323074e-09	-2.642645e+01	-5.449677e+02
4.800000e-07	-3.651728e-06	-8.253223e-09	-2.594760e+01	-5.405363e+02
4.900000e-07	-3.583421e-06	-8.180277e-09	-2.546224e+01	-5.359763e+02
5.000000e-07	-3.514318e-06	-8.112284e-09	-2.497122e+01	-5.312631e+02
5.100000e-07	-3.444303e-06	-8.037606e-09	-2.447373e+01	-5.263840e+02
5.200000e-07	-3.373411e-06	-7.949280e-09	-2.397000e+01	-5.213382e+02
5.300000e-07	-3.301680e-06	-7.871163e-09	-2.346031e+01	-5.161308e+02
5.400000e-07	-3.229081e-06	-7.793338e-09	-2.294445e+01	-5.107663e+02
5.500000e-07	-3.155395e-06	-7.709278e-09	-2.242087e+01	-5.052464e+02
5.600000e-07	-3.080468e-06	-7.622453e-09	-2.188847e+01	-4.995717e+02
5.700000e-07	-3.004550e-06	-7.532870e-09	-2.134903e+01	-4.937448e+02
5.800000e-07	-2.927855e-06	-7.441595e-09	-2.080407e+01	-4.877708e+02
5.900000e-07	-2.850330e-06	-7.347148e-09	-2.025321e+01	-4.816557e+02
6.000000e-07	-2.771892e-06	-7.249052e-09	-1.969586e+01	-4.754008e+02
6.100000e-07	-2.692514e-06	-7.147874e-09	-1.913184e+01	-4.689996e+02
6.200000e-07	-2.612153e-06	-7.049024e-09	-1.856083e+01	-4.624369e+02
6.300000e-07	-2.530894e-06	-6.946771e-09	-1.798344e+01	-4.556918e+02
6.400000e-07	-2.448919e-06	-6.839162e-09	-1.740096e+01	-4.487424e+02
6.500000e-07	-2.366252e-06	-6.727386e-09	-1.681356e+01	-4.415714e+02
6.600000e-07	-2.282925e-06	-6.611001e-09	-1.622148e+01	-4.341692e+02
6.700000e-07	-2.199085e-06	-6.494248e-09	-1.562575e+01	-4.265356e+02
6.800000e-07	-2.114799e-06	-6.375924e-09	-1.502685e+01	-4.186790e+02
6.900000e-07	-2.029944e-06	-6.252603e-09	-1.442391e+01	-4.106127e+02
7.000000e-07	-1.944474e-06	-6.123172e-09	-1.381659e+01	-4.023490e+02
7.100000e-07	-1.858424e-06	-5.991843e-09	-1.320516e+01	-3.938919e+02
7.200000e-07	-1.771851e-06	-5.859282e-09	-1.259001e+01	-3.852312e+02
7.300000e-07	-1.684846e-06	-5.720963e-09	-1.197178e+01	-3.763417e+02
7.400000e-07	-1.597364e-06	-5.575913e-09	-1.135018e+01	-3.671899e+02
7.500000e-07	-1.509463e-06	-5.429608e-09	-1.072559e+01	-3.577469e+02
7.600000e-07	-1.421279e-06	-5.284571e-09	-1.009899e+01	-3.480010e+02
7.700000e-07	-1.332808e-06	-5.133202e-09	-9.470354e+00	-3.379647e+02
7.800000e-07	-1.244009e-06	-4.973039e-09	-8.839390e+00	-3.276683e+02
7.900000e-07	-1.154832e-06	-4.810263e-09	-8.205733e+00	-3.171428e+02
8.000000e-07	-1.065212e-06	-4.646532e-09	-7.568934e+00	-3.063998e+02
8.100000e-07	-9.751135e-07	-4.478908e-09	-6.928734e+00	-2.954193e+02
8.200000e-07	-8.846100e-07	-4.305189e-09	-6.285655e+00	-2.841546e+02
8.300000e-07	-7.938431e-07	-4.125055e-09	-5.640706e+00	-2.725517e+02
8.400000e-07	-7.028280e-07	-3.940653e-09	-4.993991e+00	-2.605757e+02
8.500000e-07	-6.116156e-07	-3.753939e-09	-4.345875e+00	-2.482271e+02
8.600000e-07	-5.202179e-07	-3.563485e-09	-3.696443e+00	-2.355383e+02
8.700000e-07	-4.286270e-07	-3.365369e-09	-3.045638e+00	-2.225510e+02
8.800000e-07	-3.369137e-07	-3.162436e-09	-2.393963e+00	-2.092857e+02
8.900000e-07	-2.451624e-07	-2.957544e-09	-1.742018e+00	-1.957216e+02
9.000000e-07	-1.533964e-07	-2.747756e-09	-1.089969e+00	-1.817992e+02
9.100000e-07	-6.157668e-08	-2.529344e-09	-4.375372e-01	-1.674459e+02
9.200000e-07	3.027170e-08	-2.301637e-09	2.150976e-01	-1.526101e+02
9.300000e-07	1.220864e-07	-2.068977e-09	8.674933e-01	-1.372852e+02
9.400000e-07	2.138502e-07	-1.831797e-09	1.519527e+00	-1.215072e+02
9.500000e-07	3.055766e-07	-1.585168e-09	2.171295e+00	-1.053284e+02
9.600000e-07	3.972241e-07	-1.328737e-09	2.822502e+00	-8.878123e+01
9.700000e-07	4.888497e-07	-1.070655e-09	3.473554e+00	-7.185425e+01
9.800000e-07	5.804504e-07	-8.107785e-10	4.124429e+00	-5.449623e+01
9.900000e-07	6.719236e-07	-5.404869e-10	4.774398e+00	-3.664642e+01
1.000000e-06	7.632113e-07	-2.583294e-10	5.423049e+00	-1.827468e+01
1.010000e-06	8.542320e-07	2.983327e-11	6.069803e+00	5.922290e-01
1.020000e-06	9.449629e-07	3.224671e-10	6.714497e+00	1.987343e+01
1.030000e-06	1.035351e-06	6.207978e-10	7.356758e+00	3.946411e+01
1.040000e-06	1.125265e-06	9.251290e-10	7.995646e+00	5.927460e+01
1.050000e-06	1.214679e-06	1.232722e-09	8.630981e+00	7.925433e+01
1.060000e-06	1.303633e-06	1.540107e-09	9.263055e+00	9.938561e+01
1.070000e-06	1.392201e-06	1.847911e-09	9.892380e+00	1.196508e+02
1.080000e-06	1.480440e-06	2.157572e-09	1.051936e+01	1.399935e+02
1.090000e-06	1.568363e-06	2.468785e-09	1.114411e+01	1.602980e+02
1.100000e-06	1.655898e-06	2.775652e-09	1.176609e+01	1.804035e+02
1.110000e-06	1.742966e-06	3.075569e-09	1.238476e+01	2.001449e+02
1.120000e-06	1.829556e-06	3.371087e-09	1.300003e+01	2.194012e+02
1.130000e-06	1.915698e-06	3.660456e-09	1.361212e+01	2.381219e+02
1.140000e-06	2.001295e-06	3.939703e-09	1.422033e+01	2.563177e+02
1.150000e-06	2.086229e-06	4.206983e-09	1.482384e+01	2.740219e+02
1.160000e-06	2.170648e-06	4.465961e-09	1.542369e+01	2.912439e+02
1.170000e-06	2.254647e-06	4.718868e-09	1.602055e+01	3.079434e+02
1.180000e-06	2.338086e-06	4.962798e-09	1.661343e+01	3.240390e+02
1.190000e-06	2.420738e-06	5.195701e-09	1.720072e+01	3.394459e+02
1.200000e-06	2.502540e-06	5.416072e-09	1.778197e+01	3.541199e+02
1.210000e-06	2.583594e-06	5.627457e-09	1.835790e+01	3.680802e+02
1.220000e-06	2.663899e-06	5.832166e-09	1.892851e+01	3.814005e+02
1.230000e-06	2.743367e-06	6.026853e-09	1.949318e+01	3.941701e+02
1.240000e-06	2.821977e-06	6.212444e-09	2.005175e+01	4.064516e+02
1.250000e-06	2.899745e-06	6.392620e-09	2.060433e+01	4.182570e+02
1.260000e-06	2.976737e-06	6.566729e-09	2.115140e+01	4.295556e+02
1.270000e-06	3.053009e-06	6.730283e-09	2.169336e+01	4.403073e+02
1.280000e-06	3.128435e-06	6.883226e-09	2.222931e+01	4.505001e+02
1.290000e-06	3.202640e-06	7.029779e-09	2.275658e+01	4.601690e+02
1.300000e-06	3.275551e-06	7.172246e-09	2.327465e+01	4.693866e+02
1.310000e-06	3.347542e-06	7.309743e-09	2.378619e+01	4.782316e+02
1.320000e-06	3.418723e-06	7.439607e-09	2.429197e+01	4.867550e+02
1.330000e-06	3.488985e-06	7.564685e-09	2.479122e+01	4.949635e+02
1.340000e-06	3.558327e-06	7.687993e-09	2.528393e+01	5.028284e+02
1.350000e-06	3.626826e-06	7.806055e-09	2.577066e+01	5.103126e+02
1.360000e-06	3.694515e-06	7.913606e-09	2.625162e+01	5.173986e+02
1.370000e-06	3.761116e-06	8.010334e-09	2.672486e+01	5.241005e+02
1.380000e-06	3.826419e-06	8.102819e-09	2.718888e+01	5.304565e+02
1.390000e-06	3.890605e-06	8.195289e-09	2.764496e+01	5.365080e+02
1.400000e-06	3.953798e-06	8.284496e-09	2.809398e+01	5.422811e+02
1.410000e-06	4.015983e-06	8.366891e-09	2.853584e+01	5.477830e+02
1.420000e-06	4.077131e-06	8.445843e-09	2.897033e+01	5.530132e+02
1.430000e-06	4.137362e-06	8.524179e-09	2.939830e+01	5.579816e+02
1.440000e-06	4.196574e-06	8.598862e-09	2.981904e+01	5.627186e+02
1.450000e-06	4.254327e-06	8.667490e-09	3.022941e+01	5.672696e+02
1.460000e-06	4.310635e-06	8.731603e-09	3.062951e+01	5.716764e+02
1.470000e-06	4.365714e-06	8.794683e-09	3.102087e+01	5.759582e+02
1.480000e-06	4.419584e-06	8.856134e-09	3.140365e+01	5.801030e+02
1.490000e-06	4.472137e-06	8.914789e-09	3.177707e+01	5.840792e+02
1.500000e-06	4.523087e-06	8.970386e-09	3.213910e+01	5.878576e+02
1.510000e-06	4.572336e-06	9.024459e-09	3.248904e+01	5.914334e+02
1.520000e-06	4.620116e-06	9.076752e-09	3.282855e+01	5.948331e+02
1.530000e-06	4.666616e-06	9.125665e-09	3.315895e+01	5.981017e+02
1.540000e-06	4.711884e-06	9.172391e-09	3.348061e+01	6.012782e+02
1.550000e-06	4.755990e-06	9.217950e-09	3.379400e+01	6.043733e+02
1.560000e-06	4.798742e-06	9.262731e-09	3.409778e+01	6.073626e+02
1.570000e-06	4.839902e-06	9.305706e-09	3.439025e+01	6.102010e+02
1.580000e-06	4.879660e-06	9.344054e-09	3.467275e+01	6.128482e+02
1.590000e-06	4.918165e-06	9.377676e-09	3.494635e+01	6.152930e+02
1.600000e-06	4.955368e-06	9.410593e-09	3.521070e+01	6.175611e+02
1.610000e-06	4.991288e-06	9.444616e-09	3.546593e+01	6.197034e+02
1.620000e-06	5.025719e-06	9.476754e-09	3.571059e+01	6.217697e+02
1.630000e-06	5.058583e-06	9.503501e-09	3.594410e+01	6.237845e+02
1.640000e-06	5.090060e-06	9.529313e-09	3.616776e+01	6.257349e+02
1.650000e-06	5.120166e-06	9.556520e-09	3.638168e+01	6.275786e+02
1.660000e-06	5.149007e-06	9.580751e-09	3.658661e+01	6.292662e+02
1.670000e-06	5.176574e-06	9.600680e-09	3.678250e+01	6.307669e+02
1.680000e-06	5.202485e-06	9.616675e-09	3.696661e+01	6.320850e+02
1.690000e-06	5.226749e-06	9.632003e-09	3.713902e+01	6.332603e+02
1.700000e-06	5.249629e-06	9.649300e-09	3.730159e+01	6.343524e+02
1.710000e-06	5.271111e-06	9.665475e-09	3.745423e+01	6.354175e+02
1.720000e-06	5.291321e-06	9.680749e-09	3.759784e+01	6.364854e+02
1.730000e-06	5.310184e-06	9.697809e-09	3.773187e+01	6.375485e+02
1.740000e-06	5.327468e-06	9.714031e-09	3.785468e+01	6.385642e+02
1.750000e-06	5.343208e-06	9.727871e-09	3.796653e+01	6.394719e+02
1.760000e-06	5.357406e-06	9.739296e-09	3.806741e+01	6.402178e+02
1.770000e-06	5.369993e-06	9.748517e-09	3.815684e+01	6.407788e+02
1.780000e-06	5.380823e-06	9.754737e-09	3.823380e+01	6.411742e+02
1.790000e-06	5.389862e-06	9.758291e-09	3.829803e+01	6.414617e+02
1.800000e-06	5.397346e-06	9.760880e-09	3.835121e+01	6.417145e+02
1.810000e-06	5.403402e-06	9.764537e-09	3.839423e+01	6.419899e+02
1.820000e-06	5.408031e-06	9.770504e-09	3.842713e+01	6.423008e+02
1.830000e-06	5.411205e-06	9.777484e-09	3.844968e+01	6.426068e+02
1.840000e-06	5.412657e-06	9.782538e-09	3.846000e+01	6.428298e+02
1.850000e-06	5.412478e-06	9.783845e-09	3.845872e+01	6.428896e+02
1.860000e-06	5.410903e-06	9.784308e-09	3.844754e+01	6.427450e+02
1.870000e-06	5.407980e-06	9.781052e-09	3.842676e+01	6.424167e+02
1.880000e-06	5.403795e-06	9.774054e-09	3.839702e+01	6.419810e+02
1.890000e-06	5.398098e-06	9.765875e-09	3.835655e+01	6.415323e+02
1.900000e-06	5.390777e-06	9.758253e-09	3.830453e+01	6.411343e+02
1.910000e-06	5.382072e-06	9.755149e-09	3.824268e+01	6.407842e+02
1.920000e-06	5.372073e-06	9.750792e-09	3.817163e+01	6.404109e+02
1.930000e-06	5.360643e-06	9.754512e-09	3.809041e+01	6.399114e+02
1.940000e-06	5.347271e-06	9.733710e-09	3.799540e+01	6.392064e+02
1.950000e-06	5.331453e-06	9.712840e-09	3.788300e+01	6.382865e+02
1.960000e-06	5.313415e-06	9.702184e-09	3.775483e+01	6.372226e+02
1.970000e-06	5.294060e-06	9.684626e-09	3.761730e+01	6.361312e+02
1.980000e-06	5.274237e-06	9.691058e-09	3.747644e+01	6.351148e+02
1.990000e-06	5.253644e-06	9.662729e-09	3.733012e+01	6.342052e+02
2.000000e-06	5.231250e-06	9.632524e-09	3.717100e+01	6.333450e+02
2.010000e-06	5.207341e-06	9.650323e-09	3.700111e+01	6.324160e+02
2.020000e-06	5.182487e-06	9.615278e-09	3.682451e+01	6.313017e+02
2.030000e-06	5.156063e-06	9.586037e-09	3.663675e+01	6.299494e+02
2.040000e-06	5.128182e-06	9.614254e-09	3.643864e+01	6.283981e+02
2.050000e-06	5.099106e-06	9.548381e-09	3.623204e+01	6.267557e+02
2.060000e-06	5.068245e-06	9.505366e-09	3.601275e+01	6.251393e+02
2.070000e-06	5.035844e-06	9.545649e-09	3.578253e+01	6.236084e+02
2.080000e-06	5.002227e-06	9.469837e-09	3.554366e+01	6.221311e+02
2.090000e-06	4.967153e-06	9.437939e-09	3.529444e+01	6.205987e+02
2.100000e-06	4.930903e-06	9.474513e-09	3.503686e+01	6.188826e+02
2.110000e-06	4.893213e-06	9.406426e-09	3.476905e+01	6.169004e+02
2.120000e-06	4.853768e-06	9.380028e-09	3.448877e+01	6.146572e+02
2.130000e-06	4.812934e-06	9.343359e-09	3.419862e+01	6.122392e+02
2.140000e-06	4.770673e-06	9.278499e-09	3.389833e+01	6.097650e+02
2.150000e-06	4.727155e-06	9.267813e-09	3.358912e+01	6.073223e+02
2.160000e-06	4.682428e-06	9.222256e-09	3.327131e+01	6.049246e+02
2.170000e-06	4.636089e-06	9.186694e-09	3.294204e+01	6.025088e+02
2.180000e-06	4.588309e-06	9.152685e-09	3.260254e+01	5.999730e+02
2.190000e-06	4.539212e-06	9.115913e-09	3.225368e+01	5.972317e+02
2.200000e-06	4.488779e-06	9.072634e-09	3.189532e+01	5.942580e+02
2.210000e-06	4.437063e-06	8.990264e-09	3.152785e+01	5.910914e+02
2.220000e-06	4.383690e-06	8.960256e-09	3.114860e+01	5.878104e+02
2.230000e-06	4.328593e-06	8.904771e-09	3.075711e+01	5.844880e+02
2.240000e-06	4.272137e-06	8.842805e-09	3.035596e+01	5.811550e+02
2.250000e-06	4.214585e-06	8.821905e-09	2.994701e+01	5.777893e+02
2.260000e-06	4.156029e-06	8.741196e-09	2.953094e+01	5.743336e+02
2.270000e-06	4.096477e-06	8.689783e-09	2.910779e+01	5.707294e+02
2.280000e-06	4.035790e-06	8.634219e-09	2.867657e+01	5.669455e+02
2.290000e-06	3.973609e-06	8.568056e-09	2.823475e+01	5.629884e+02
2.300000e-06	3.910121e-06	8.522883e-09	2.778363e+01	5.588915e+02
2.310000e-06	3.845735e-06	8.434769e-09	2.732613e+01	5.546918e+02
2.320000e-06	3.780377e-06	8.378540e-09	2.686172e+01	5.504092e+02
2.330000e-06	3.714004e-06	8.316541e-09	2.639010e+01	5.460386e+02
2.340000e-06	3.646677e-06	8.244953e-09	2.591170e+01	5.415564e+02
2.350000e-06	3.578396e-06	8.170480e-09	2.542653e+01	5.369344e+02
2.360000e-06	3.508956e-06	8.092995e-09	2.493312e+01	5.321522e+02
2.370000e-06	3.438298e-06	8.043023e-09	2.443106e+01	5.272026e+02
2.380000e-06	3.366709e-06	7.953679e-09	2.392238e+01	5.220881e+02
2.390000e-06	3.294267e-06	7.870552e-09	2.340764e+01	5.168142e+02
2.400000e-06	3.220962e-06	7.786872e-09	2.288676e+01	5.113842e+02
2.410000e-06	3.146803e-06	7.698475e-09	2.235982e+01	5.057990e+02
2.420000e-06	3.071778e-06	7.619142e-09	2.182672e+01	5.000598e+02
2.430000e-06	2.995869e-06	7.520924e-09	2.128735e+01	4.941701e+02
2.440000e-06	2.918909e-06	7.435216e-09	2.074050e+01	4.881361e+02
2.450000e-06	2.840817e-06	7.341014e-09	2.018562e+01	4.819623e+02
2.460000e-06	2.761699e-06	7.246586e-09	1.962344e+01	4.756471e+02
2.470000e-06	2.681818e-06	7.149284e-09	1.905583e+01	4.691802e+02
2.480000e-06	2.601228e-06	7.044984e-09	1.848320e+01	4.625436e+02
2.490000e-06	2.519812e-06	6.944321e-09	1.790469e+01	4.557152e+02
2.500000e-06	2.437702e-06	6.838168e-09	1.732125e+01	4.486746e+02
2.510000e-06	2.354947e-06	6.735915e-09	1.673323e+01	4.414072e+02
2.520000e-06	2.271598e-06	6.619931e-09	1.614099e+01	4.339074e+02
2.530000e-06	2.187777e-06	6.499368e-09	1.554540e+01	4.261789e+02
2.540000e-06	2.103459e-06	6.380117e-09	1.494627e+01	4.182325e+02
2.550000e-06	2.018453e-06	6.259044e-09	1.434225e+01	4.100821e+02
2.560000e-06	1.932611e-06	6.134533e-09	1.373230e+01	4.017373e+02
2.570000e-06	1.845952e-06	6.002284e-09	1.311654e+01	3.931969e+02
2.580000e-06	1.758653e-06	5.873981e-09	1.249622e+01	3.844440e+02
2.590000e-06	1.670915e-06	5.741756e-09	1.187280e+01	3.754487e+02
2.600000e-06	1.582847e-06	5.602052e-09	1.124703e+01	3.661777e+02
2.610000e-06	1.494480e-06	5.453727e-09	1.061913e+01	3.566078e+02
2.620000e-06	1.405723e-06	5.304587e-09	9.988456e+00	3.467375e+02
2.630000e-06	1.316594e-06	5.154396e-09	9.355147e+00	3.365879e+02
2.640000e-06	1.227182e-06	4.995346e-09	8.719825e+00	3.261924e+02
2.650000e-06	1.137438e-06	4.832644e-09	8.082143e+00	3.155759e+02
2.660000e-06	1.047347e-06	4.668703e-09	7.441995e+00	3.047375e+02
2.670000e-06	9.570011e-07	4.503246e-09	6.800035e+00	2.936446e+02
2.680000e-06	8.664545e-07	4.332240e-09	6.156650e+00	2.822443e+02
2.690000e-06	7.757840e-07	4.154852e-09	5.512385e+00	2.704877e+02
2.700000e-06	6.849865e-07	3.971118e-09	4.867218e+00	2.583536e+02
2.710000e-06	5.940422e-07	3.780354e-09	4.221007e+00	2.458574e+02
2.720000e-06	5.030005e-07	3.583586e-09	3.574103e+00	2.330391e+02
2.730000e-06	4.118449e-07	3.382946e-09	2.926392e+00	2.199349e+02
2.740000e-06	3.205738e-07	3.177417e-09	2.277858e+00	2.065496e+02
2.750000e-06	2.292405e-07	2.964702e-09	1.628884e+00	1.928443e+02
2.760000e-06	1.378875e-07	2.746892e-09	9.797687e-01	1.787501e+02
2.770000e-06	4.651460e-08	2.524022e-09	3.305126e-01	1.641990e+02
2.780000e-06	-4.485484e-08	2.295137e-09	-3.187191e-01	1.491568e+02
2.790000e-06	-1.362063e-07	2.058915e-09	-9.678230e-01	1.336363e+02
2.800000e-06	-2.275283e-07	1.814969e-09	-1.616717e+00	1.176846e+02
2.810000e-06	-3.187827e-07	1.565206e-09	-2.265132e+00	1.013500e+02
2.820000e-06	-4.099351e-07	1.309942e-09	-2.912822e+00	8.464799e+01
2.830000e-06	-5.010029e-07	1.047730e-09	-3.559910e+00	6.754843e+01
2.840000e-06	-5.919979e-07	7.774410e-10	-4.206481e+00	4.999133e+01
2.850000e-06	-6.828633e-07	4.984711e-10	-4.852131e+00	3.192411e+01
2.860000e-06	-7.734951e-07	2.139501e-10	-5.496121e+00	1.333861e+01
2.870000e-06	-8.639229e-07	-7.388516e-11	-6.138662e+00	-5.713685e+00
2.880000e-06	-9.542110e-07	-3.675061e-10	-6.780210e+00	-2.513719e+01
2.890000e-06	-1.044284e-06	-6.679245e-10	-7.420230e+00	-4.482902e+01
2.900000e-06	-1.134092e-06	-9.717972e-10	-8.058363e+00	-6.471445e+01
2.910000e-06	-1.223592e-06	-1.277816e-09	-8.694312e+00	-8.475920e+01
2.920000e-06	-1.312713e-06	-1.586221e-09	-9.327568e+00	-1.049505e+02
2.930000e-06	-1.401450e-06	-1.897069e-09	-9.958097e+00	-1.252588e+02
2.940000e-06	-1.489900e-06	-2.208270e-09	-1.058658e+01	-1.456036e+02
2.950000e-06	-1.578073e-06	-2.515762e-09	-1.121310e+01	-1.658468e+02
