# Temperatura_=_20.0
# Concentracion g/m^3_=_10000.0
# C_Vs_to_Am_M_A/Vsm_=_65563218390.804596
# pendiente_HvsI_1/m_=_3716.3
# ordenada_HvsI_A/m_=_1297.0
# frecuencia_Hz_=_269420.49926667614

Tiempo_(s)	Campo_(V.s)	Magnetizacion_(V.s)	Campo_(kA/m)	Magnetizacion_(A/m)
0.000000e+00	-5.418327e-06	-4.312390e-10	-3.828944e+01	-2.702591e+01
1.000000e-08	-5.416291e-06	-4.314060e-10	-3.827504e+01	-2.701993e+01
2.000000e-08	-5.412615e-06	-4.323823e-10	-3.824907e+01	-2.698115e+01
3.000000e-08	-5.407580e-06	-4.331358e-10	-3.821349e+01	-2.691855e+01
4.000000e-08	-5.401226e-06	-4.325008e-10	-3.816859e+01	-2.685268e+01
5.000000e-08	-5.393567e-06	-4.290466e-10	-3.811446e+01	-2.680279e+01
6.000000e-08	-5.384443e-06	-4.243901e-10	-3.804998e+01	-2.677356e+01
7.000000e-08	-5.373531e-06	-4.310054e-10	-3.797288e+01	-2.675060e+01
8.000000e-08	-5.360806e-06	-4.511238e-10	-3.788296e+01	-2.670878e+01
9.000000e-08	-5.346116e-06	-4.403791e-10	-3.777915e+01	-2.662883e+01
1.000000e-07	-5.329256e-06	-4.164070e-10	-3.766000e+01	-2.651135e+01
1.100000e-07	-5.310639e-06	-3.937401e-10	-3.752844e+01	-2.637827e+01
1.200000e-07	-5.290930e-06	-4.019494e-10	-3.738917e+01	-2.625912e+01
1.300000e-07	-5.270406e-06	-4.769807e-10	-3.724412e+01	-2.617003e+01
1.400000e-07	-5.248675e-06	-4.271499e-10	-3.709056e+01	-2.609901e+01
1.500000e-07	-5.225601e-06	-3.551243e-10	-3.692751e+01	-2.600886e+01
1.600000e-07	-5.201371e-06	-4.397285e-10	-3.675628e+01	-2.585825e+01
1.700000e-07	-5.175518e-06	-4.091086e-10	-3.657359e+01	-2.562975e+01
1.800000e-07	-5.147993e-06	-3.299235e-10	-3.637908e+01	-2.534732e+01
1.900000e-07	-5.119321e-06	-3.953832e-10	-3.617646e+01	-2.507055e+01
2.000000e-07	-5.089350e-06	-3.686720e-10	-3.596467e+01	-2.486594e+01
2.100000e-07	-5.057964e-06	-3.282714e-10	-3.574288e+01	-2.476981e+01
2.200000e-07	-5.025221e-06	-4.048267e-10	-3.551149e+01	-2.476421e+01
2.300000e-07	-4.990851e-06	-3.760459e-10	-3.526861e+01	-2.478117e+01
2.400000e-07	-4.954988e-06	-3.418508e-10	-3.501518e+01	-2.473530e+01
2.500000e-07	-4.917785e-06	-3.768699e-10	-3.475228e+01	-2.456802e+01
2.600000e-07	-4.879115e-06	-3.502842e-10	-3.447901e+01	-2.427942e+01
2.700000e-07	-4.839152e-06	-3.377197e-10	-3.419661e+01	-2.392913e+01
2.800000e-07	-4.797791e-06	-3.511248e-10	-3.390432e+01	-2.360510e+01
2.900000e-07	-4.754817e-06	-3.384996e-10	-3.360064e+01	-2.337670e+01
3.000000e-07	-4.710309e-06	-3.377124e-10	-3.328611e+01	-2.325790e+01
3.100000e-07	-4.664309e-06	-3.518182e-10	-3.296105e+01	-2.320063e+01
3.200000e-07	-4.616975e-06	-3.469005e-10	-3.262656e+01	-2.312176e+01
3.300000e-07	-4.568242e-06	-3.269170e-10	-3.228218e+01	-2.294837e+01
3.400000e-07	-4.517755e-06	-3.310929e-10	-3.192540e+01	-2.265623e+01
3.500000e-07	-4.465520e-06	-3.299698e-10	-3.155628e+01	-2.228083e+01
3.600000e-07	-4.411879e-06	-3.162242e-10	-3.117721e+01	-2.189608e+01
3.700000e-07	-4.357129e-06	-3.231597e-10	-3.079032e+01	-2.157360e+01
3.800000e-07	-4.301232e-06	-3.151132e-10	-3.039531e+01	-2.134565e+01
3.900000e-07	-4.243935e-06	-3.101005e-10	-2.999042e+01	-2.119151e+01
4.000000e-07	-4.185218e-06	-3.202488e-10	-2.957548e+01	-2.105281e+01
4.100000e-07	-4.125296e-06	-3.135899e-10	-2.915203e+01	-2.086743e+01
4.200000e-07	-4.064326e-06	-3.035785e-10	-2.872118e+01	-2.060214e+01
4.300000e-07	-4.002226e-06	-2.982043e-10	-2.828234e+01	-2.026661e+01
4.400000e-07	-3.939058e-06	-2.959094e-10	-2.783595e+01	-1.990329e+01
4.500000e-07	-3.874961e-06	-2.954467e-10	-2.738300e+01	-1.956155e+01
4.600000e-07	-3.809751e-06	-2.896229e-10	-2.692218e+01	-1.927170e+01
4.700000e-07	-3.743247e-06	-2.809683e-10	-2.645223e+01	-1.903304e+01
4.800000e-07	-3.675617e-06	-2.759629e-10	-2.597431e+01	-1.881977e+01
4.900000e-07	-3.607075e-06	-2.797901e-10	-2.548994e+01	-1.859844e+01
5.000000e-07	-3.537650e-06	-2.750085e-10	-2.499935e+01	-1.834498e+01
5.100000e-07	-3.467344e-06	-2.650716e-10	-2.450252e+01	-1.805180e+01
5.200000e-07	-3.396143e-06	-2.650272e-10	-2.399936e+01	-1.772343e+01
5.300000e-07	-3.323998e-06	-2.639058e-10	-2.348954e+01	-1.736663e+01
5.400000e-07	-3.250839e-06	-2.596707e-10	-2.297255e+01	-1.698364e+01
5.500000e-07	-3.176617e-06	-2.497797e-10	-2.244805e+01	-1.657339e+01
5.600000e-07	-3.101268e-06	-2.391963e-10	-2.191559e+01	-1.613900e+01
5.700000e-07	-3.024917e-06	-2.347732e-10	-2.137604e+01	-1.569449e+01
5.800000e-07	-2.947667e-06	-2.318448e-10	-2.083014e+01	-1.526387e+01
5.900000e-07	-2.869544e-06	-2.258619e-10	-2.027807e+01	-1.487098e+01
6.000000e-07	-2.790515e-06	-2.201086e-10	-1.971960e+01	-1.452527e+01
6.100000e-07	-2.710458e-06	-2.185825e-10	-1.915386e+01	-1.421235e+01
6.200000e-07	-2.629563e-06	-2.130193e-10	-1.858221e+01	-1.389666e+01
6.300000e-07	-2.547995e-06	-2.035337e-10	-1.800580e+01	-1.353644e+01
6.400000e-07	-2.465736e-06	-1.944585e-10	-1.742450e+01	-1.310424e+01
6.500000e-07	-2.382725e-06	-1.864414e-10	-1.683789e+01	-1.260211e+01
6.600000e-07	-2.299021e-06	-1.806688e-10	-1.624639e+01	-1.206299e+01
6.700000e-07	-2.214783e-06	-1.735336e-10	-1.565110e+01	-1.153680e+01
6.800000e-07	-2.130005e-06	-1.655557e-10	-1.505201e+01	-1.106742e+01
6.900000e-07	-2.044626e-06	-1.588338e-10	-1.444866e+01	-1.067191e+01
7.000000e-07	-1.958650e-06	-1.544522e-10	-1.384110e+01	-1.033171e+01
7.100000e-07	-1.872157e-06	-1.493316e-10	-1.322988e+01	-1.000010e+01
7.200000e-07	-1.785210e-06	-1.410320e-10	-1.261546e+01	-9.622501e+00
7.300000e-07	-1.697846e-06	-1.320541e-10	-1.199809e+01	-9.160281e+00
7.400000e-07	-1.610010e-06	-1.238275e-10	-1.137738e+01	-8.607819e+00
7.500000e-07	-1.521583e-06	-1.150984e-10	-1.075250e+01	-7.995614e+00
7.600000e-07	-1.432697e-06	-1.059249e-10	-1.012437e+01	-7.378343e+00
7.700000e-07	-1.343481e-06	-9.673831e-11	-9.493913e+00	-6.812954e+00
7.800000e-07	-1.253863e-06	-8.868815e-11	-8.860617e+00	-6.335697e+00
7.900000e-07	-1.163781e-06	-8.331916e-11	-8.224037e+00	-5.947428e+00
8.000000e-07	-1.073262e-06	-7.840950e-11	-7.584366e+00	-5.613295e+00
8.100000e-07	-9.824660e-07	-7.269108e-11	-6.942746e+00	-5.277326e+00
8.200000e-07	-8.914325e-07	-6.593259e-11	-6.299444e+00	-4.886314e+00
8.300000e-07	-8.001329e-07	-5.760665e-11	-5.654261e+00	-4.413138e+00
8.400000e-07	-7.086419e-07	-4.916153e-11	-5.007726e+00	-3.869174e+00
8.500000e-07	-6.170436e-07	-4.138388e-11	-4.360433e+00	-3.299543e+00
8.600000e-07	-5.253354e-07	-3.414397e-11	-3.712363e+00	-2.762408e+00
8.700000e-07	-4.334810e-07	-2.869618e-11	-3.063260e+00	-2.301233e+00
8.800000e-07	-3.415041e-07	-2.429243e-11	-2.413290e+00	-1.923124e+00
8.900000e-07	-2.494697e-07	-1.995743e-11	-1.762916e+00	-1.594345e+00
9.000000e-07	-1.574506e-07	-1.511011e-11	-1.112649e+00	-1.256167e+00
9.100000e-07	-6.545126e-08	-7.223143e-12	-4.625213e-01	-8.538924e-01
9.200000e-07	2.657220e-08	2.225771e-12	1.877765e-01	-3.645783e-01
9.300000e-07	1.186228e-07	1.084290e-11	8.382659e-01	1.910946e-01
9.400000e-07	2.106522e-07	1.764655e-11	1.488606e+00	7.594777e-01
9.500000e-07	3.026674e-07	2.265110e-11	2.138845e+00	1.281860e+00
9.600000e-07	3.946345e-07	2.588895e-11	2.788745e+00	1.724783e+00
9.700000e-07	4.865416e-07	2.795600e-11	3.438221e+00	2.096321e+00
9.800000e-07	5.783568e-07	3.238235e-11	4.087046e+00	2.439539e+00
9.900000e-07	6.700073e-07	4.038831e-11	4.734709e+00	2.807149e+00
1.000000e-06	7.615233e-07	4.987033e-11	5.381420e+00	3.232131e+00
1.010000e-06	8.528726e-07	5.773105e-11	6.026954e+00	3.711292e+00
1.020000e-06	9.440463e-07	6.460181e-11	6.671247e+00	4.211003e+00
1.030000e-06	1.034986e-06	6.946285e-11	7.313884e+00	4.690990e+00
1.040000e-06	1.125606e-06	7.207035e-11	7.954263e+00	5.131131e+00
1.050000e-06	1.215824e-06	7.392377e-11	8.591803e+00	5.544353e+00
1.060000e-06	1.305602e-06	7.822198e-11	9.226236e+00	5.967344e+00
1.070000e-06	1.394943e-06	8.594664e-11	9.857574e+00	6.434807e+00
1.080000e-06	1.483741e-06	9.587482e-11	1.048508e+01	6.953724e+00
1.090000e-06	1.571997e-06	1.067451e-10	1.110876e+01	7.494758e+00
1.100000e-06	1.659799e-06	1.150704e-10	1.172922e+01	8.007686e+00
1.110000e-06	1.747201e-06	1.207028e-10	1.234686e+01	8.452547e+00
1.120000e-06	1.834236e-06	1.260512e-10	1.296191e+01	8.827506e+00
1.130000e-06	1.920830e-06	1.305658e-10	1.357384e+01	9.175146e+00
1.140000e-06	2.006882e-06	1.334195e-10	1.418194e+01	9.561226e+00
1.150000e-06	2.092310e-06	1.391272e-10	1.478563e+01	1.003677e+01
1.160000e-06	2.177131e-06	1.493847e-10	1.538503e+01	1.060550e+01
1.170000e-06	2.261424e-06	1.613606e-10	1.598070e+01	1.121691e+01
1.180000e-06	2.345188e-06	1.730780e-10	1.657263e+01	1.179089e+01
1.190000e-06	2.428358e-06	1.810807e-10	1.716037e+01	1.226144e+01
1.200000e-06	2.510802e-06	1.846257e-10	1.774296e+01	1.261475e+01
1.210000e-06	2.592329e-06	1.859371e-10	1.831909e+01	1.289930e+01
1.220000e-06	2.672958e-06	1.883383e-10	1.888886e+01	1.320087e+01
1.230000e-06	2.752876e-06	1.925453e-10	1.945362e+01	1.359565e+01
1.240000e-06	2.832046e-06	1.995743e-10	2.001308e+01	1.410745e+01
1.250000e-06	2.910348e-06	2.112714e-10	2.056642e+01	1.469319e+01
1.260000e-06	2.987792e-06	2.236992e-10	2.111369e+01	1.526530e+01
1.270000e-06	3.064450e-06	2.321278e-10	2.165540e+01	1.573861e+01
1.280000e-06	3.140276e-06	2.362959e-10	2.219124e+01	1.607589e+01
1.290000e-06	3.215153e-06	2.391002e-10	2.272037e+01	1.630714e+01
1.300000e-06	3.288884e-06	2.424336e-10	2.324140e+01	1.651267e+01
1.310000e-06	3.361430e-06	2.457014e-10	2.375406e+01	1.678007e+01
1.320000e-06	3.433040e-06	2.488673e-10	2.426010e+01	1.715932e+01
1.330000e-06	3.503808e-06	2.551220e-10	2.476020e+01	1.763966e+01
1.340000e-06	3.573644e-06	2.644693e-10	2.525370e+01	1.815929e+01
1.350000e-06	3.642525e-06	2.741847e-10	2.574046e+01	1.863997e+01
1.360000e-06	3.710547e-06	2.793227e-10	2.622115e+01	1.902651e+01
1.370000e-06	3.777687e-06	2.807766e-10	2.669560e+01	1.930999e+01
1.380000e-06	3.843554e-06	2.831499e-10	2.716106e+01	1.952503e+01
1.390000e-06	3.908077e-06	2.872956e-10	2.761702e+01	1.972608e+01
1.400000e-06	3.971618e-06	2.908536e-10	2.806604e+01	1.995850e+01
1.410000e-06	4.034180e-06	2.934851e-10	2.850815e+01	2.024037e+01
1.420000e-06	4.095662e-06	2.982105e-10	2.894262e+01	2.056202e+01
1.430000e-06	4.156147e-06	3.046846e-10	2.937005e+01	2.089918e+01
1.440000e-06	4.215681e-06	3.106637e-10	2.979075e+01	2.122880e+01
1.450000e-06	4.273922e-06	3.150990e-10	3.020232e+01	2.153758e+01
1.460000e-06	4.330598e-06	3.186694e-10	3.060283e+01	2.182069e+01
1.470000e-06	4.385976e-06	3.229789e-10	3.099417e+01	2.207571e+01
1.480000e-06	4.440152e-06	3.258418e-10	3.137701e+01	2.229939e+01
1.490000e-06	4.493019e-06	3.261305e-10	3.175061e+01	2.249109e+01
1.500000e-06	4.544482e-06	3.271498e-10	3.211427e+01	2.266014e+01
1.510000e-06	4.594293e-06	3.295119e-10	3.246628e+01	2.282950e+01
1.520000e-06	4.642473e-06	3.323225e-10	3.280674e+01	2.302973e+01
1.530000e-06	4.689253e-06	3.351329e-10	3.313732e+01	2.328383e+01
1.540000e-06	4.734792e-06	3.396613e-10	3.345913e+01	2.359120e+01
1.550000e-06	4.779157e-06	3.454720e-10	3.377264e+01	2.392127e+01
1.560000e-06	4.822213e-06	3.498414e-10	3.407691e+01	2.422346e+01
1.570000e-06	4.863699e-06	3.532970e-10	3.437007e+01	2.445018e+01
1.580000e-06	4.903699e-06	3.560656e-10	3.465273e+01	2.458137e+01
1.590000e-06	4.942460e-06	3.572281e-10	3.492665e+01	2.463673e+01
1.600000e-06	4.979895e-06	3.580510e-10	3.519119e+01	2.466791e+01
1.610000e-06	5.016028e-06	3.585166e-10	3.544653e+01	2.473416e+01
1.620000e-06	5.050765e-06	3.592777e-10	3.569200e+01	2.487394e+01
1.630000e-06	5.083897e-06	3.617705e-10	3.592613e+01	2.508771e+01
1.640000e-06	5.115609e-06	3.655348e-10	3.615023e+01	2.534046e+01
1.650000e-06	5.146023e-06	3.703555e-10	3.636515e+01	2.558165e+01
1.660000e-06	5.175102e-06	3.738813e-10	3.657064e+01	2.577088e+01
1.670000e-06	5.202926e-06	3.752249e-10	3.676727e+01	2.589541e+01
1.680000e-06	5.229216e-06	3.746248e-10	3.695306e+01	2.597150e+01
1.690000e-06	5.253753e-06	3.740134e-10	3.712645e+01	2.603100e+01
1.700000e-06	5.276817e-06	3.746278e-10	3.728943e+01	2.610280e+01
1.710000e-06	5.298528e-06	3.756771e-10	3.744286e+01	2.619990e+01
1.720000e-06	5.318911e-06	3.781491e-10	3.758690e+01	2.631790e+01
1.730000e-06	5.337957e-06	3.814676e-10	3.772149e+01	2.644325e+01
1.740000e-06	5.355456e-06	3.837458e-10	3.784514e+01	2.656363e+01
1.750000e-06	5.371332e-06	3.847888e-10	3.795734e+01	2.667377e+01
1.760000e-06	5.385660e-06	3.856779e-10	3.805859e+01	2.677384e+01
1.770000e-06	5.398481e-06	3.869337e-10	3.814919e+01	2.686398e+01
1.780000e-06	5.409688e-06	3.874959e-10	3.822838e+01	2.694053e+01
1.790000e-06	5.419026e-06	3.875022e-10	3.829437e+01	2.699741e+01
1.800000e-06	5.426634e-06	3.886360e-10	3.834814e+01	2.703179e+01
1.810000e-06	5.432778e-06	3.900767e-10	3.839156e+01	2.704863e+01
1.820000e-06	5.437547e-06	3.907332e-10	3.842525e+01	2.705990e+01
1.830000e-06	5.440879e-06	3.908996e-10	3.844880e+01	2.707751e+01
1.840000e-06	5.442464e-06	3.910245e-10	3.846000e+01	2.710472e+01
1.850000e-06	5.442395e-06	3.908930e-10	3.845951e+01	2.713230e+01
1.860000e-06	5.440932e-06	3.905447e-10	3.844918e+01	2.714320e+01
1.870000e-06	5.438105e-06	3.904693e-10	3.842920e+01	2.712358e+01
1.880000e-06	5.433973e-06	3.902807e-10	3.840000e+01	2.707296e+01
1.890000e-06	5.428339e-06	3.902149e-10	3.836018e+01	2.700629e+01
1.900000e-06	5.421053e-06	3.892554e-10	3.830869e+01	2.694539e+01
1.910000e-06	5.412374e-06	3.879503e-10	3.824737e+01	2.690473e+01
1.920000e-06	5.402434e-06	3.827686e-10	3.817712e+01	2.688086e+01
1.930000e-06	5.391081e-06	3.631470e-10	3.809689e+01	2.685322e+01
1.940000e-06	5.377814e-06	3.733410e-10	3.800315e+01	2.679699e+01
1.950000e-06	5.362059e-06	3.909811e-10	3.789181e+01	2.670002e+01
1.960000e-06	5.343995e-06	4.105492e-10	3.776415e+01	2.657255e+01
1.970000e-06	5.324560e-06	3.880992e-10	3.762682e+01	2.644203e+01
1.980000e-06	5.304673e-06	3.281157e-10	3.748628e+01	2.633495e+01
1.990000e-06	5.284073e-06	3.968320e-10	3.734071e+01	2.625664e+01
2.000000e-06	5.261691e-06	4.202753e-10	3.718254e+01	2.618309e+01
2.010000e-06	5.237804e-06	3.390881e-10	3.701374e+01	2.607207e+01
2.020000e-06	5.212885e-06	4.021471e-10	3.683765e+01	2.588899e+01
2.030000e-06	5.186320e-06	4.455878e-10	3.664992e+01	2.563270e+01
2.040000e-06	5.158367e-06	3.745076e-10	3.645239e+01	2.534420e+01
2.050000e-06	5.129261e-06	4.244608e-10	3.624670e+01	2.509041e+01
2.060000e-06	5.098356e-06	4.309611e-10	3.602831e+01	2.492948e+01
2.070000e-06	5.065871e-06	3.635331e-10	3.579875e+01	2.487663e+01
2.080000e-06	5.032100e-06	4.219774e-10	3.556010e+01	2.489073e+01
2.090000e-06	4.996903e-06	4.115007e-10	3.531138e+01	2.489139e+01
2.100000e-06	4.960580e-06	3.788074e-10	3.505469e+01	2.479918e+01
2.110000e-06	4.922787e-06	4.272896e-10	3.478763e+01	2.457761e+01
2.120000e-06	4.883169e-06	3.989563e-10	3.450766e+01	2.425350e+01
2.130000e-06	4.842146e-06	3.928686e-10	3.421776e+01	2.390351e+01
2.140000e-06	4.799728e-06	4.062364e-10	3.391801e+01	2.361356e+01
2.150000e-06	4.756018e-06	3.839570e-10	3.360912e+01	2.343300e+01
2.160000e-06	4.711097e-06	3.868569e-10	3.329168e+01	2.334867e+01
2.170000e-06	4.664635e-06	3.738848e-10	3.296335e+01	2.329305e+01
2.180000e-06	4.616706e-06	3.905921e-10	3.262466e+01	2.318158e+01
2.190000e-06	4.567450e-06	3.870640e-10	3.227658e+01	2.295815e+01
2.200000e-06	4.516865e-06	3.678506e-10	3.191911e+01	2.262406e+01
2.210000e-06	4.464855e-06	3.849067e-10	3.155158e+01	2.223498e+01
2.220000e-06	4.411164e-06	3.562516e-10	3.117216e+01	2.186913e+01
2.230000e-06	4.355886e-06	3.618652e-10	3.078153e+01	2.158524e+01
2.240000e-06	4.299295e-06	3.657119e-10	3.038163e+01	2.139342e+01
2.250000e-06	4.241610e-06	3.369924e-10	2.997398e+01	2.125394e+01
2.260000e-06	4.182917e-06	3.496959e-10	2.955922e+01	2.110233e+01
2.270000e-06	4.123182e-06	3.400088e-10	2.913709e+01	2.088534e+01
2.280000e-06	4.062222e-06	3.444716e-10	2.870631e+01	2.058732e+01
2.290000e-06	3.999771e-06	3.397514e-10	2.826499e+01	2.023404e+01
2.300000e-06	3.936044e-06	3.160663e-10	2.781466e+01	1.987438e+01
2.310000e-06	3.871341e-06	3.215836e-10	2.735742e+01	1.955234e+01
2.320000e-06	3.805628e-06	3.139596e-10	2.689305e+01	1.928573e+01
2.330000e-06	3.738933e-06	3.150187e-10	2.642174e+01	1.906173e+01
2.340000e-06	3.671288e-06	3.055565e-10	2.594372e+01	1.884899e+01
2.350000e-06	3.602674e-06	3.056746e-10	2.545884e+01	1.861634e+01
2.360000e-06	3.532886e-06	3.100449e-10	2.496568e+01	1.834641e+01
2.370000e-06	3.461854e-06	2.904785e-10	2.446372e+01	1.803772e+01
2.380000e-06	3.389884e-06	2.852588e-10	2.395513e+01	1.769693e+01
2.390000e-06	3.317114e-06	2.744137e-10	2.344089e+01	1.732931e+01
2.400000e-06	3.243521e-06	2.743662e-10	2.292083e+01	1.693511e+01
2.410000e-06	3.169079e-06	2.725746e-10	2.239478e+01	1.651394e+01
2.420000e-06	3.093714e-06	2.620906e-10	2.186220e+01	1.607299e+01
2.430000e-06	3.017371e-06	2.568811e-10	2.132271e+01	1.563110e+01
2.440000e-06	2.939951e-06	2.442281e-10	2.077562e+01	1.521388e+01
2.450000e-06	2.861422e-06	2.374943e-10	2.022068e+01	1.484082e+01
2.460000e-06	2.781927e-06	2.286707e-10	1.965891e+01	1.451201e+01
2.470000e-06	2.701698e-06	2.249941e-10	1.909196e+01	1.420312e+01
2.480000e-06	2.620733e-06	2.219421e-10	1.851981e+01	1.387365e+01
2.490000e-06	2.538989e-06	2.178089e-10	1.794215e+01	1.348536e+01
2.500000e-06	2.456549e-06	2.167786e-10	1.735958e+01	1.302191e+01
2.510000e-06	2.373431e-06	2.064257e-10	1.677221e+01	1.249899e+01
2.520000e-06	2.289740e-06	1.960433e-10	1.618079e+01	1.195904e+01
2.530000e-06	2.205512e-06	1.857582e-10	1.558558e+01	1.145241e+01
2.540000e-06	2.120692e-06	1.807802e-10	1.498619e+01	1.101382e+01
2.550000e-06	2.035079e-06	1.782953e-10	1.438120e+01	1.064562e+01
2.560000e-06	1.948593e-06	1.734088e-10	1.377003e+01	1.031574e+01
2.570000e-06	1.861393e-06	1.686203e-10	1.315382e+01	9.971256e+00
2.580000e-06	1.773634e-06	1.622606e-10	1.253366e+01	9.561512e+00
2.590000e-06	1.685453e-06	1.558587e-10	1.191051e+01	9.060256e+00
2.600000e-06	1.596891e-06	1.474185e-10	1.128467e+01	8.477449e+00
2.610000e-06	1.507997e-06	1.400029e-10	1.065649e+01	7.855860e+00
2.620000e-06	1.418752e-06	1.320447e-10	1.002583e+01	7.254062e+00
2.630000e-06	1.329094e-06	1.241879e-10	9.392248e+00	6.722886e+00
2.640000e-06	1.239062e-06	1.164905e-10	8.756022e+00	6.284879e+00
2.650000e-06	1.148790e-06	1.087325e-10	8.118101e+00	5.925146e+00
2.660000e-06	1.058254e-06	1.046848e-10	7.478316e+00	5.597540e+00
2.670000e-06	9.673900e-07	1.022212e-10	6.836209e+00	5.244118e+00
2.680000e-06	8.763432e-07	9.908312e-11	6.192813e+00	4.820124e+00
2.690000e-06	7.851712e-07	9.394793e-11	5.548532e+00	4.313884e+00
2.700000e-06	6.938876e-07	8.510629e-11	4.903462e+00	3.752448e+00
2.710000e-06	6.024565e-07	7.453494e-11	4.257350e+00	3.189563e+00
2.720000e-06	5.108915e-07	6.527591e-11	3.610293e+00	2.680598e+00
2.730000e-06	4.193127e-07	5.703953e-11	2.963137e+00	2.255703e+00
2.740000e-06	3.276660e-07	5.020016e-11	2.315502e+00	1.904302e+00
2.750000e-06	2.359374e-07	4.608704e-11	1.667287e+00	1.579294e+00
2.760000e-06	1.441295e-07	4.302773e-11	1.018513e+00	1.219806e+00
2.770000e-06	5.229403e-08	3.787031e-11	3.695437e-01	7.816364e-01
2.780000e-06	-3.944699e-08	3.023846e-11	-2.787582e-01	2.598418e-01
2.790000e-06	-1.311594e-07	2.056257e-11	-9.268576e-01	-3.086230e-01
2.800000e-06	-2.228913e-07	1.018640e-11	-1.575095e+00	-8.640695e-01
2.810000e-06	-3.146571e-07	-8.824758e-13	-2.223572e+00	-1.355101e+00
2.820000e-06	-4.063983e-07	-1.116882e-11	-2.871875e+00	-1.764827e+00
2.830000e-06	-4.979578e-07	-1.846847e-11	-3.518895e+00	-2.118013e+00
2.840000e-06	-5.893321e-07	-2.399538e-11	-4.164605e+00	-2.465465e+00
2.850000e-06	-6.806696e-07	-2.965701e-11	-4.810056e+00	-2.854845e+00
2.860000e-06	-7.719678e-07	-3.420872e-11	-5.455228e+00	-3.304857e+00
2.870000e-06	-8.630628e-07	-3.827137e-11	-6.098965e+00	-3.797651e+00
2.880000e-06	-9.539481e-07	-4.561669e-11	-6.741220e+00	-4.293348e+00
2.890000e-06	-1.044633e-06	-5.634693e-11	-7.382060e+00	-4.757281e+00
2.900000e-06	-1.135077e-06	-6.826387e-11	-8.021192e+00	-5.182761e+00
2.910000e-06	-1.225156e-06	-7.916331e-11	-8.657752e+00	-5.594973e+00
2.920000e-06	-1.314780e-06	-8.837477e-11	-9.291097e+00	-6.033346e+00
2.930000e-06	-1.404055e-06	-9.515061e-11	-9.921970e+00	-6.523495e+00
2.940000e-06	-1.493061e-06	-1.003752e-10	-1.055094e+01	-7.056929e+00
2.950000e-06	-1.581679e-06	-1.059639e-10	-1.117718e+01	-7.592482e+00
