# Temperatura_=_20.0
# Concentracion g/m^3_=_10000.0
# C_Vs_to_Am_M_A/Vsm_=_65563218390.804596
# pendiente_HvsI_1/m_=_3716.3
# ordenada_HvsI_A/m_=_1297.0
# frecuencia_Hz_=_269403.0504759834

Tiempo_(s)	Campo_(V.s)	Magnetizacion_(V.s)	Campo_(kA/m)	Magnetizacion_(A/m)
0.000000e+00	-5.374716e-06	-9.847842e-09	-3.829090e+01	-6.432706e+02
1.000000e-08	-5.373977e-06	-9.844151e-09	-3.828564e+01	-6.431878e+02
2.000000e-08	-5.371605e-06	-9.840047e-09	-3.826874e+01	-6.429618e+02
3.000000e-08	-5.367684e-06	-9.834458e-09	-3.824080e+01	-6.426356e+02
4.000000e-08	-5.362478e-06	-9.828849e-09	-3.820371e+01	-6.422640e+02
5.000000e-08	-5.355918e-06	-9.822201e-09	-3.815698e+01	-6.418837e+02
6.000000e-08	-5.348017e-06	-9.816125e-09	-3.810069e+01	-6.414925e+02
7.000000e-08	-5.338657e-06	-9.807271e-09	-3.803401e+01	-6.410500e+02
8.000000e-08	-5.327537e-06	-9.793876e-09	-3.795479e+01	-6.404998e+02
9.000000e-08	-5.314569e-06	-9.794403e-09	-3.786240e+01	-6.398019e+02
1.000000e-07	-5.299575e-06	-9.801325e-09	-3.775558e+01	-6.389589e+02
1.100000e-07	-5.282433e-06	-9.780171e-09	-3.763345e+01	-6.380177e+02
1.200000e-07	-5.263616e-06	-9.743529e-09	-3.749939e+01	-6.370472e+02
1.300000e-07	-5.243824e-06	-9.686833e-09	-3.735839e+01	-6.361005e+02
1.400000e-07	-5.223230e-06	-9.703082e-09	-3.721167e+01	-6.351841e+02
1.500000e-07	-5.201358e-06	-9.742276e-09	-3.705586e+01	-6.342524e+02
1.600000e-07	-5.178149e-06	-9.646228e-09	-3.689051e+01	-6.332305e+02
1.700000e-07	-5.153793e-06	-9.644608e-09	-3.671699e+01	-6.320562e+02
1.800000e-07	-5.127740e-06	-9.691191e-09	-3.653138e+01	-6.307163e+02
1.900000e-07	-5.100112e-06	-9.587845e-09	-3.633455e+01	-6.292559e+02
2.000000e-07	-5.071448e-06	-9.564560e-09	-3.613034e+01	-6.277546e+02
2.100000e-07	-5.041467e-06	-9.599501e-09	-3.591675e+01	-6.262800e+02
2.200000e-07	-5.010136e-06	-9.499329e-09	-3.569354e+01	-6.248455e+02
2.300000e-07	-4.977443e-06	-9.485067e-09	-3.546062e+01	-6.233950e+02
2.400000e-07	-4.942953e-06	-9.535204e-09	-3.521491e+01	-6.218266e+02
2.500000e-07	-4.906971e-06	-9.451740e-09	-3.495856e+01	-6.200425e+02
2.600000e-07	-4.869814e-06	-9.402242e-09	-3.469384e+01	-6.179991e+02
2.700000e-07	-4.831165e-06	-9.390799e-09	-3.441850e+01	-6.157302e+02
2.800000e-07	-4.791201e-06	-9.348390e-09	-3.413379e+01	-6.133292e+02
2.900000e-07	-4.749902e-06	-9.319429e-09	-3.383956e+01	-6.109005e+02
3.000000e-07	-4.706965e-06	-9.282005e-09	-3.353367e+01	-6.085050e+02
3.100000e-07	-4.662526e-06	-9.237861e-09	-3.321707e+01	-6.061301e+02
3.200000e-07	-4.616711e-06	-9.202980e-09	-3.289067e+01	-6.036992e+02
3.300000e-07	-4.569629e-06	-9.169436e-09	-3.255525e+01	-6.011149e+02
3.400000e-07	-4.521209e-06	-9.120532e-09	-3.221029e+01	-5.983118e+02
3.500000e-07	-4.471038e-06	-9.055644e-09	-3.185286e+01	-5.952899e+02
3.600000e-07	-4.419079e-06	-9.025544e-09	-3.148269e+01	-5.921118e+02
3.700000e-07	-4.365731e-06	-8.996538e-09	-3.110263e+01	-5.888656e+02
3.800000e-07	-4.311174e-06	-8.941812e-09	-3.071395e+01	-5.856162e+02
3.900000e-07	-4.255415e-06	-8.890372e-09	-3.031671e+01	-5.823709e+02
4.000000e-07	-4.198392e-06	-8.827477e-09	-2.991046e+01	-5.790772e+02
4.100000e-07	-4.139927e-06	-8.780598e-09	-2.949394e+01	-5.756523e+02
4.200000e-07	-4.080222e-06	-8.733365e-09	-2.906858e+01	-5.720270e+02
4.300000e-07	-4.019526e-06	-8.669246e-09	-2.863616e+01	-5.681788e+02
4.400000e-07	-3.957728e-06	-8.606574e-09	-2.819590e+01	-5.641388e+02
4.500000e-07	-3.894819e-06	-8.545921e-09	-2.774772e+01	-5.599704e+02
4.600000e-07	-3.831060e-06	-8.487680e-09	-2.729349e+01	-5.557336e+02
4.700000e-07	-3.766376e-06	-8.419405e-09	-2.683266e+01	-5.514546e+02
4.800000e-07	-3.700322e-06	-8.347006e-09	-2.636208e+01	-5.471157e+02
4.900000e-07	-3.633033e-06	-8.276725e-09	-2.588269e+01	-5.426688e+02
5.000000e-07	-3.564876e-06	-8.211409e-09	-2.539712e+01	-5.380611e+02
5.100000e-07	-3.495870e-06	-8.145660e-09	-2.490551e+01	-5.332591e+02
5.200000e-07	-3.425962e-06	-8.060123e-09	-2.440746e+01	-5.282590e+02
5.300000e-07	-3.355153e-06	-7.971745e-09	-2.390300e+01	-5.230800e+02
5.400000e-07	-3.283540e-06	-7.899531e-09	-2.339281e+01	-5.177490e+02
5.500000e-07	-3.211108e-06	-7.822473e-09	-2.287679e+01	-5.122847e+02
5.600000e-07	-3.137597e-06	-7.736139e-09	-2.235307e+01	-5.066913e+02
5.700000e-07	-3.062811e-06	-7.646164e-09	-2.182028e+01	-5.009611e+02
5.800000e-07	-2.986996e-06	-7.556735e-09	-2.128015e+01	-4.950833e+02
5.900000e-07	-2.910358e-06	-7.467369e-09	-2.073416e+01	-4.890506e+02
6.000000e-07	-2.832816e-06	-7.370604e-09	-2.018174e+01	-4.828610e+02
6.100000e-07	-2.754420e-06	-7.268196e-09	-1.962322e+01	-4.765137e+02
6.200000e-07	-2.675124e-06	-7.165482e-09	-1.905830e+01	-4.700039e+02
6.300000e-07	-2.594837e-06	-7.068611e-09	-1.848631e+01	-4.633199e+02
6.400000e-07	-2.513700e-06	-6.967766e-09	-1.790826e+01	-4.564450e+02
6.500000e-07	-2.431840e-06	-6.859563e-09	-1.732507e+01	-4.493627e+02
6.600000e-07	-2.349231e-06	-6.745088e-09	-1.673654e+01	-4.420616e+02
6.700000e-07	-2.265959e-06	-6.628037e-09	-1.614330e+01	-4.345383e+02
6.800000e-07	-2.182227e-06	-6.512349e-09	-1.554676e+01	-4.267971e+02
6.900000e-07	-2.098116e-06	-6.389192e-09	-1.494753e+01	-4.188455e+02
7.000000e-07	-2.013466e-06	-6.258585e-09	-1.434446e+01	-4.106901e+02
7.100000e-07	-1.928138e-06	-6.127417e-09	-1.373657e+01	-4.023321e+02
7.200000e-07	-1.842262e-06	-5.999811e-09	-1.312476e+01	-3.937642e+02
7.300000e-07	-1.755920e-06	-5.868148e-09	-1.250964e+01	-3.849700e+02
7.400000e-07	-1.669059e-06	-5.726514e-09	-1.189082e+01	-3.759267e+02
7.500000e-07	-1.581667e-06	-5.579458e-09	-1.126821e+01	-3.666112e+02
7.600000e-07	-1.493868e-06	-5.433703e-09	-1.064271e+01	-3.570076e+02
7.700000e-07	-1.405821e-06	-5.286918e-09	-1.001544e+01	-3.471145e+02
7.800000e-07	-1.317547e-06	-5.128466e-09	-9.386556e+00	-3.369467e+02
7.900000e-07	-1.228929e-06	-4.963386e-09	-8.755218e+00	-3.265280e+02
8.000000e-07	-1.139899e-06	-4.800722e-09	-8.120945e+00	-3.158782e+02
8.100000e-07	-1.050427e-06	-4.639160e-09	-7.483522e+00	-3.049986e+02
8.200000e-07	-9.605594e-07	-4.469787e-09	-6.843280e+00	-2.938638e+02
8.300000e-07	-8.703237e-07	-4.290273e-09	-6.200417e+00	-2.824280e+02
8.400000e-07	-7.796929e-07	-4.106207e-09	-5.554739e+00	-2.706419e+02
8.500000e-07	-6.887849e-07	-3.920122e-09	-4.907086e+00	-2.584754e+02
8.600000e-07	-5.977332e-07	-3.730955e-09	-4.258410e+00	-2.459318e+02
8.700000e-07	-5.065519e-07	-3.534686e-09	-3.608810e+00	-2.330452e+02
8.800000e-07	-4.152358e-07	-3.331031e-09	-2.958250e+00	-2.198595e+02
8.900000e-07	-3.238350e-07	-3.125572e-09	-2.307087e+00	-2.063995e+02
9.000000e-07	-2.323580e-07	-2.920102e-09	-1.655380e+00	-1.926485e+02
9.100000e-07	-1.408192e-07	-2.707652e-09	-1.003233e+00	-1.785465e+02
9.200000e-07	-4.929046e-08	-2.484878e-09	-3.511583e-01	-1.640112e+02
9.300000e-07	4.222777e-08	-2.254637e-09	3.008418e-01	-1.489732e+02
9.400000e-07	1.337508e-07	-2.019656e-09	9.528764e-01	-1.334058e+02
9.500000e-07	2.252852e-07	-1.777091e-09	1.604992e+00	-1.173345e+02
9.600000e-07	3.168002e-07	-1.523207e-09	2.256969e+00	-1.008197e+02
9.700000e-07	4.082267e-07	-1.263094e-09	2.908315e+00	-8.392305e+01
9.800000e-07	4.995576e-07	-1.003661e-09	3.558981e+00	-6.667349e+01
9.900000e-07	5.907352e-07	-7.411630e-10	4.208554e+00	-4.905409e+01
1.000000e-06	6.817675e-07	-4.660107e-10	4.857092e+00	-3.101446e+01
1.010000e-06	7.726409e-07	-1.797850e-10	5.504498e+00	-1.250290e+01
1.020000e-06	8.633429e-07	1.106824e-10	6.150684e+00	6.499706e+00
1.030000e-06	9.538496e-07	4.061797e-10	6.795478e+00	2.596143e+01
1.040000e-06	1.043975e-06	7.090118e-10	7.437558e+00	4.580433e+01
1.050000e-06	1.133560e-06	1.017574e-09	8.075782e+00	6.592710e+01
1.060000e-06	1.222645e-06	1.327763e-09	8.710446e+00	8.623052e+01
1.070000e-06	1.311283e-06	1.638677e-09	9.341926e+00	1.066311e+02
1.080000e-06	1.399496e-06	1.950101e-09	9.970383e+00	1.270573e+02
1.090000e-06	1.487411e-06	2.262242e-09	1.059671e+01	1.474351e+02
1.100000e-06	1.575056e-06	2.572937e-09	1.122112e+01	1.676751e+02
1.110000e-06	1.662343e-06	2.877111e-09	1.184297e+01	1.876726e+02
1.120000e-06	1.749110e-06	3.175136e-09	1.246113e+01	2.073226e+02
1.130000e-06	1.835340e-06	3.470937e-09	1.307545e+01	2.265395e+02
1.140000e-06	1.921145e-06	3.759835e-09	1.368675e+01	2.452687e+02
1.150000e-06	2.006474e-06	4.037267e-09	1.429465e+01	2.634826e+02
1.160000e-06	2.091182e-06	4.303869e-09	1.489813e+01	2.811615e+02
1.170000e-06	2.175335e-06	4.562010e-09	1.549766e+01	2.982733e+02
1.180000e-06	2.259058e-06	4.812910e-09	1.609413e+01	3.147659e+02
1.190000e-06	2.342219e-06	5.052875e-09	1.668659e+01	3.305804e+02
1.200000e-06	2.424613e-06	5.281044e-09	1.727358e+01	3.456771e+02
1.210000e-06	2.506120e-06	5.498964e-09	1.785426e+01	3.600606e+02
1.220000e-06	2.586814e-06	5.708494e-09	1.842915e+01	3.737864e+02
1.230000e-06	2.666813e-06	5.908355e-09	1.899908e+01	3.869403e+02
1.240000e-06	2.745980e-06	6.097869e-09	1.956309e+01	3.996019e+02
1.250000e-06	2.824313e-06	6.279779e-09	2.012116e+01	4.118086e+02
1.260000e-06	2.901876e-06	6.457695e-09	2.067373e+01	4.235416e+02
1.270000e-06	2.978672e-06	6.629995e-09	2.122085e+01	4.347435e+02
1.280000e-06	3.054672e-06	6.791736e-09	2.176230e+01	4.453579e+02
1.290000e-06	3.129736e-06	6.943290e-09	2.229707e+01	4.553708e+02
1.300000e-06	3.203631e-06	7.088098e-09	2.282351e+01	4.648323e+02
1.310000e-06	3.276309e-06	7.228378e-09	2.334129e+01	4.738446e+02
1.320000e-06	3.348029e-06	7.361719e-09	2.385225e+01	4.825238e+02
1.330000e-06	3.418909e-06	7.488358e-09	2.435721e+01	4.909528e+02
1.340000e-06	3.488918e-06	7.612445e-09	2.485598e+01	4.991509e+02
1.350000e-06	3.557979e-06	7.736318e-09	2.534798e+01	5.070723e+02
1.360000e-06	3.626148e-06	7.856881e-09	2.583364e+01	5.146344e+02
1.370000e-06	3.693522e-06	7.966496e-09	2.631363e+01	5.217597e+02
1.380000e-06	3.759808e-06	8.062418e-09	2.678587e+01	5.284123e+02
1.390000e-06	3.824734e-06	8.153019e-09	2.724842e+01	5.346125e+02
1.400000e-06	3.888570e-06	8.242376e-09	2.770320e+01	5.404276e+02
1.410000e-06	3.951499e-06	8.327573e-09	2.815153e+01	5.459461e+02
1.420000e-06	4.013387e-06	8.406933e-09	2.859243e+01	5.512493e+02
1.430000e-06	4.074206e-06	8.483548e-09	2.902572e+01	5.563923e+02
1.440000e-06	4.134136e-06	8.561417e-09	2.945268e+01	5.613970e+02
1.450000e-06	4.192974e-06	8.635798e-09	2.987186e+01	5.662578e+02
1.460000e-06	4.250278e-06	8.704405e-09	3.028011e+01	5.709523e+02
1.470000e-06	4.306181e-06	8.770426e-09	3.067837e+01	5.754522e+02
1.480000e-06	4.360891e-06	8.835680e-09	3.106814e+01	5.797350e+02
1.490000e-06	4.414405e-06	8.898130e-09	3.144939e+01	5.837927e+02
1.500000e-06	4.466603e-06	8.955622e-09	3.182126e+01	5.876389e+02
1.510000e-06	4.517215e-06	9.009132e-09	3.218184e+01	5.913091e+02
1.520000e-06	4.566151e-06	9.060790e-09	3.253047e+01	5.948533e+02
1.530000e-06	4.613669e-06	9.111924e-09	3.286900e+01	5.983186e+02
1.540000e-06	4.659950e-06	9.163192e-09	3.319872e+01	6.017281e+02
1.550000e-06	4.704949e-06	9.212550e-09	3.351930e+01	6.050668e+02
1.560000e-06	4.748761e-06	9.259458e-09	3.383143e+01	6.082814e+02
1.570000e-06	4.791187e-06	9.305547e-09	3.413369e+01	6.112994e+02
1.580000e-06	4.831982e-06	9.348408e-09	3.442432e+01	6.140610e+02
1.590000e-06	4.871418e-06	9.384136e-09	3.470527e+01	6.165484e+02
1.600000e-06	4.909556e-06	9.413577e-09	3.497698e+01	6.188006e+02
1.610000e-06	4.946385e-06	9.442651e-09	3.523936e+01	6.209014e+02
1.620000e-06	4.982033e-06	9.473956e-09	3.549333e+01	6.229473e+02
1.630000e-06	5.016178e-06	9.505733e-09	3.573658e+01	6.250069e+02
1.640000e-06	5.048710e-06	9.536468e-09	3.596835e+01	6.270921e+02
1.650000e-06	5.079909e-06	9.566989e-09	3.619062e+01	6.291532e+02
1.660000e-06	5.109806e-06	9.596350e-09	3.640361e+01	6.311024e+02
1.670000e-06	5.138452e-06	9.620829e-09	3.660769e+01	6.328524e+02
1.680000e-06	5.165792e-06	9.640258e-09	3.680247e+01	6.343548e+02
1.690000e-06	5.191456e-06	9.656727e-09	3.698531e+01	6.356208e+02
1.700000e-06	5.215469e-06	9.671788e-09	3.715638e+01	6.367147e+02
1.710000e-06	5.238087e-06	9.686054e-09	3.731752e+01	6.377263e+02
1.720000e-06	5.259372e-06	9.700281e-09	3.746916e+01	6.387336e+02
1.730000e-06	5.279412e-06	9.714670e-09	3.761193e+01	6.397733e+02
1.740000e-06	5.298059e-06	9.731255e-09	3.774477e+01	6.408289e+02
1.750000e-06	5.315107e-06	9.746605e-09	3.786623e+01	6.418425e+02
1.760000e-06	5.330594e-06	9.758658e-09	3.797656e+01	6.427415e+02
1.770000e-06	5.344536e-06	9.768894e-09	3.807589e+01	6.434703e+02
1.780000e-06	5.356942e-06	9.776834e-09	3.816427e+01	6.440125e+02
1.790000e-06	5.367686e-06	9.783163e-09	3.824082e+01	6.443964e+02
1.800000e-06	5.376587e-06	9.787611e-09	3.830423e+01	6.446812e+02
1.810000e-06	5.383891e-06	9.790132e-09	3.835626e+01	6.449310e+02
1.820000e-06	5.389761e-06	9.791748e-09	3.839808e+01	6.451875e+02
1.830000e-06	5.394184e-06	9.794698e-09	3.842960e+01	6.454522e+02
1.840000e-06	5.397176e-06	9.800091e-09	3.845091e+01	6.456879e+02
1.850000e-06	5.398452e-06	9.804557e-09	3.846000e+01	6.458372e+02
1.860000e-06	5.398078e-06	9.804594e-09	3.845734e+01	6.458508e+02
1.870000e-06	5.396350e-06	9.802037e-09	3.844503e+01	6.457112e+02
1.880000e-06	5.393318e-06	9.799203e-09	3.842343e+01	6.454414e+02
1.890000e-06	5.388996e-06	9.794190e-09	3.839264e+01	6.450922e+02
1.900000e-06	5.383087e-06	9.786786e-09	3.835054e+01	6.447149e+02
1.910000e-06	5.375547e-06	9.779557e-09	3.829682e+01	6.443331e+02
1.920000e-06	5.366727e-06	9.777147e-09	3.823398e+01	6.439290e+02
1.930000e-06	5.356643e-06	9.780050e-09	3.816215e+01	6.434526e+02
1.940000e-06	5.345036e-06	9.766782e-09	3.807946e+01	6.428498e+02
1.950000e-06	5.331384e-06	9.723984e-09	3.798219e+01	6.420947e+02
1.960000e-06	5.315260e-06	9.713490e-09	3.786732e+01	6.412075e+02
1.970000e-06	5.296994e-06	9.720926e-09	3.773719e+01	6.402474e+02
1.980000e-06	5.277492e-06	9.757072e-09	3.759825e+01	6.392816e+02
1.990000e-06	5.257594e-06	9.703237e-09	3.745649e+01	6.383486e+02
2.000000e-06	5.236895e-06	9.630561e-09	3.730903e+01	6.374343e+02
2.010000e-06	5.214303e-06	9.720394e-09	3.714808e+01	6.364778e+02
2.020000e-06	5.190278e-06	9.681098e-09	3.697692e+01	6.354041e+02
2.030000e-06	5.165268e-06	9.596510e-09	3.679874e+01	6.341660e+02
2.040000e-06	5.138586e-06	9.674619e-09	3.660865e+01	6.327730e+02
2.050000e-06	5.110577e-06	9.632989e-09	3.640911e+01	6.312875e+02
2.060000e-06	5.081395e-06	9.550408e-09	3.620120e+01	6.297906e+02
2.070000e-06	5.050403e-06	9.634980e-09	3.598041e+01	6.283333e+02
2.080000e-06	5.017916e-06	9.589684e-09	3.574896e+01	6.269028e+02
2.090000e-06	4.984127e-06	9.495377e-09	3.550824e+01	6.254211e+02
2.100000e-06	4.948896e-06	9.550024e-09	3.525725e+01	6.237814e+02
2.110000e-06	4.912574e-06	9.523056e-09	3.499848e+01	6.219011e+02
2.120000e-06	4.874746e-06	9.470877e-09	3.472898e+01	6.197653e+02
2.130000e-06	4.835094e-06	9.450532e-09	3.444649e+01	6.174341e+02
2.140000e-06	4.794085e-06	9.385881e-09	3.415433e+01	6.150119e+02
2.150000e-06	4.751658e-06	9.373327e-09	3.385207e+01	6.125922e+02
2.160000e-06	4.708004e-06	9.330142e-09	3.354107e+01	6.102101e+02
2.170000e-06	4.663156e-06	9.283941e-09	3.322156e+01	6.078255e+02
2.180000e-06	4.616761e-06	9.266810e-09	3.289103e+01	6.053479e+02
2.190000e-06	4.569011e-06	9.208744e-09	3.255084e+01	6.026861e+02
2.200000e-06	4.519926e-06	9.204858e-09	3.220115e+01	5.997972e+02
2.210000e-06	4.469421e-06	9.130956e-09	3.184134e+01	5.967071e+02
2.220000e-06	4.417600e-06	9.045036e-09	3.147215e+01	5.934933e+02
2.230000e-06	4.364199e-06	9.026975e-09	3.109171e+01	5.902410e+02
2.240000e-06	4.309146e-06	8.957089e-09	3.069950e+01	5.869959e+02
2.250000e-06	4.252738e-06	8.935224e-09	3.029763e+01	5.837412e+02
2.260000e-06	4.195207e-06	8.880927e-09	2.988777e+01	5.804083e+02
2.270000e-06	4.136598e-06	8.804776e-09	2.947022e+01	5.769145e+02
2.280000e-06	4.076960e-06	8.774486e-09	2.904535e+01	5.732052e+02
2.290000e-06	4.016367e-06	8.692171e-09	2.861367e+01	5.692790e+02
2.300000e-06	3.954332e-06	8.635529e-09	2.817171e+01	5.651829e+02
2.310000e-06	3.890893e-06	8.569383e-09	2.771976e+01	5.609832e+02
2.320000e-06	3.826534e-06	8.495684e-09	2.726124e+01	5.567300e+02
2.330000e-06	3.761239e-06	8.447620e-09	2.679606e+01	5.524327e+02
2.340000e-06	3.694935e-06	8.370767e-09	2.632369e+01	5.480599e+02
2.350000e-06	3.627614e-06	8.304482e-09	2.584409e+01	5.435584e+02
2.360000e-06	3.559343e-06	8.221144e-09	2.535770e+01	5.388802e+02
2.370000e-06	3.489943e-06	8.161366e-09	2.486328e+01	5.340029e+02
2.380000e-06	3.419325e-06	8.096819e-09	2.436018e+01	5.289328e+02
2.390000e-06	3.347787e-06	7.996602e-09	2.385052e+01	5.236939e+02
2.400000e-06	3.275493e-06	7.919223e-09	2.333548e+01	5.183115e+02
2.410000e-06	3.202386e-06	7.826769e-09	2.281465e+01	5.127991e+02
2.420000e-06	3.128381e-06	7.744760e-09	2.228741e+01	5.071557e+02
2.430000e-06	3.053515e-06	7.654843e-09	2.175405e+01	5.013714e+02
2.440000e-06	2.977742e-06	7.560125e-09	2.121422e+01	4.954362e+02
2.450000e-06	2.900969e-06	7.478842e-09	2.066727e+01	4.893448e+02
2.460000e-06	2.823019e-06	7.383474e-09	2.011194e+01	4.830963e+02
2.470000e-06	2.743922e-06	7.288338e-09	1.954842e+01	4.766891e+02
2.480000e-06	2.664085e-06	7.178371e-09	1.897965e+01	4.701157e+02
2.490000e-06	2.583575e-06	7.072818e-09	1.840608e+01	4.633623e+02
2.500000e-06	2.502363e-06	6.967478e-09	1.782750e+01	4.564115e+02
2.510000e-06	2.420441e-06	6.860175e-09	1.724386e+01	4.492480e+02
2.520000e-06	2.337852e-06	6.752135e-09	1.665548e+01	4.418636e+02
2.530000e-06	2.254689e-06	6.632257e-09	1.606300e+01	4.342579e+02
2.540000e-06	2.171005e-06	6.517679e-09	1.546681e+01	4.264369e+02
2.550000e-06	2.086868e-06	6.396811e-09	1.486740e+01	4.184084e+02
2.560000e-06	2.002165e-06	6.274159e-09	1.426396e+01	4.101774e+02
2.570000e-06	1.916670e-06	6.143607e-09	1.365487e+01	4.017421e+02
2.580000e-06	1.830272e-06	6.011041e-09	1.303934e+01	3.930917e+02
2.590000e-06	1.743148e-06	5.880890e-09	1.241865e+01	3.842070e+02
2.600000e-06	1.655520e-06	5.742082e-09	1.179437e+01	3.750643e+02
2.610000e-06	1.567506e-06	5.599200e-09	1.116733e+01	3.656419e+02
2.620000e-06	1.479186e-06	5.450534e-09	1.053811e+01	3.559291e+02
2.630000e-06	1.390558e-06	5.303577e-09	9.906703e+00	3.459306e+02
2.640000e-06	1.301632e-06	5.149808e-09	9.273172e+00	3.356659e+02
2.650000e-06	1.212388e-06	4.987532e-09	8.637373e+00	3.251590e+02
2.660000e-06	1.122792e-06	4.823326e-09	7.999068e+00	3.144243e+02
2.670000e-06	1.032877e-06	4.658560e-09	7.358491e+00	3.034534e+02
2.680000e-06	9.427387e-07	4.490767e-09	6.716320e+00	2.922119e+02
2.690000e-06	8.524462e-07	4.315187e-09	6.073052e+00	2.806500e+02
2.700000e-06	7.619724e-07	4.135903e-09	5.428493e+00	2.687232e+02
2.710000e-06	6.713442e-07	3.950295e-09	4.782834e+00	2.564131e+02
2.720000e-06	5.806142e-07	3.757136e-09	4.136449e+00	2.437357e+02
2.730000e-06	4.897777e-07	3.557689e-09	3.489306e+00	2.307322e+02
2.740000e-06	3.988627e-07	3.356672e-09	2.841604e+00	2.174428e+02
2.750000e-06	3.078675e-07	3.151735e-09	2.193330e+00	2.038782e+02
2.760000e-06	2.167956e-07	2.937917e-09	1.544509e+00	1.900046e+02
2.770000e-06	1.256974e-07	2.717766e-09	8.955017e-01	1.757499e+02
2.780000e-06	3.456002e-08	2.490951e-09	2.462148e-01	1.610325e+02
2.790000e-06	-5.661348e-08	2.257727e-09	-4.033295e-01	1.457963e+02
2.800000e-06	-1.477763e-07	2.017640e-09	-1.052798e+00	1.300345e+02
2.810000e-06	-2.389005e-07	1.770690e-09	-1.701990e+00	1.137890e+02
2.820000e-06	-3.299538e-07	1.517382e-09	-2.350678e+00	9.712502e+01
2.830000e-06	-4.209203e-07	1.257573e-09	-2.998748e+00	8.009510e+01
2.840000e-06	-5.118045e-07	9.913650e-10	-3.646231e+00	6.271124e+01
2.850000e-06	-6.025490e-07	7.182381e-10	-4.292719e+00	4.494111e+01
2.860000e-06	-6.931276e-07	4.370903e-10	-4.938025e+00	2.672952e+01
2.870000e-06	-7.835496e-07	1.509927e-10	-5.582215e+00	8.033544e+00
2.880000e-06	-8.737735e-07	-1.390842e-10	-6.224994e+00	-1.114772e+01
2.890000e-06	-9.637995e-07	-4.354742e-10	-6.866363e+00	-3.076331e+01
2.900000e-06	-1.053617e-06	-7.382348e-10	-7.506246e+00	-5.072334e+01
2.910000e-06	-1.143146e-06	-1.046311e-09	-8.144073e+00	-7.092469e+01
2.920000e-06	-1.232364e-06	-1.357643e-09	-8.779687e+00	-9.127336e+01
2.930000e-06	-1.321212e-06	-1.671260e-09	-9.412667e+00	-1.116916e+02
2.940000e-06	-1.409716e-06	-1.983594e-09	-1.004319e+01	-1.321090e+02
2.950000e-06	-1.497920e-06	-2.292034e-09	-1.067158e+01	-1.524465e+02
