# Temperatura_=_20.0
# Concentracion g/m^3_=_10000.0
# C_Vs_to_Am_M_A/Vsm_=_65563218390.804596
# pendiente_HvsI_1/m_=_3716.3
# ordenada_HvsI_A/m_=_1297.0
# frecuencia_Hz_=_269410.99520684994

Tiempo_(s)	Campo_(V.s)	Magnetizacion_(V.s)	Campo_(kA/m)	Magnetizacion_(A/m)
0.000000e+00	-5.398657e-06	-9.800083e-09	-3.828872e+01	-6.404192e+02
1.000000e-08	-5.396483e-06	-9.796104e-09	-3.827330e+01	-6.402970e+02
2.000000e-08	-5.392740e-06	-9.789992e-09	-3.824675e+01	-6.400502e+02
3.000000e-08	-5.387691e-06	-9.785188e-09	-3.821095e+01	-6.397002e+02
4.000000e-08	-5.381304e-06	-9.780998e-09	-3.816565e+01	-6.392796e+02
5.000000e-08	-5.373615e-06	-9.774250e-09	-3.811112e+01	-6.388162e+02
6.000000e-08	-5.364447e-06	-9.761440e-09	-3.804609e+01	-6.383186e+02
7.000000e-08	-5.353506e-06	-9.746780e-09	-3.796850e+01	-6.377709e+02
8.000000e-08	-5.340796e-06	-9.754546e-09	-3.787835e+01	-6.371416e+02
9.000000e-08	-5.325985e-06	-9.744958e-09	-3.777331e+01	-6.364013e+02
1.000000e-07	-5.308995e-06	-9.722008e-09	-3.765282e+01	-6.355403e+02
1.100000e-07	-5.290330e-06	-9.699155e-09	-3.752043e+01	-6.345752e+02
1.200000e-07	-5.270580e-06	-9.652880e-09	-3.738036e+01	-6.335418e+02
1.300000e-07	-5.250018e-06	-9.688813e-09	-3.723454e+01	-6.324757e+02
1.400000e-07	-5.228171e-06	-9.677134e-09	-3.707959e+01	-6.313946e+02
1.500000e-07	-5.204945e-06	-9.582397e-09	-3.691486e+01	-6.302910e+02
1.600000e-07	-5.180644e-06	-9.638617e-09	-3.674252e+01	-6.291399e+02
1.700000e-07	-5.154736e-06	-9.630291e-09	-3.655877e+01	-6.279164e+02
1.800000e-07	-5.127150e-06	-9.524848e-09	-3.636312e+01	-6.266114e+02
1.900000e-07	-5.098451e-06	-9.570223e-09	-3.615958e+01	-6.252351e+02
2.000000e-07	-5.068449e-06	-9.551464e-09	-3.594680e+01	-6.238050e+02
2.100000e-07	-5.037041e-06	-9.463228e-09	-3.572404e+01	-6.223264e+02
2.200000e-07	-5.004323e-06	-9.495275e-09	-3.549200e+01	-6.207790e+02
2.300000e-07	-4.969976e-06	-9.471758e-09	-3.524840e+01	-6.191195e+02
2.400000e-07	-4.934118e-06	-9.415695e-09	-3.499409e+01	-6.173012e+02
2.500000e-07	-4.896954e-06	-9.398673e-09	-3.473051e+01	-6.153002e+02
2.600000e-07	-4.858297e-06	-9.335320e-09	-3.445635e+01	-6.131311e+02
2.700000e-07	-4.818363e-06	-9.320534e-09	-3.417312e+01	-6.108437e+02
2.800000e-07	-4.777061e-06	-9.308089e-09	-3.388020e+01	-6.084981e+02
2.900000e-07	-4.734104e-06	-9.247417e-09	-3.357553e+01	-6.061327e+02
3.000000e-07	-4.689645e-06	-9.218031e-09	-3.326022e+01	-6.037433e+02
3.100000e-07	-4.643751e-06	-9.188804e-09	-3.293472e+01	-6.012850e+02
3.200000e-07	-4.596555e-06	-9.142404e-09	-3.260000e+01	-5.986972e+02
3.300000e-07	-4.548081e-06	-9.095526e-09	-3.225621e+01	-5.959374e+02
3.400000e-07	-4.497866e-06	-9.050226e-09	-3.190007e+01	-5.930047e+02
3.500000e-07	-4.445822e-06	-9.006190e-09	-3.153096e+01	-5.899395e+02
3.600000e-07	-4.392362e-06	-8.968058e-09	-3.115181e+01	-5.867994e+02
3.700000e-07	-4.337718e-06	-8.929565e-09	-3.076426e+01	-5.836256e+02
3.800000e-07	-4.281918e-06	-8.866759e-09	-3.036851e+01	-5.804186e+02
3.900000e-07	-4.224822e-06	-8.810339e-09	-2.996357e+01	-5.771376e+02
4.000000e-07	-4.166232e-06	-8.769291e-09	-2.954803e+01	-5.737230e+02
4.100000e-07	-4.106356e-06	-8.709110e-09	-2.912337e+01	-5.701290e+02
4.200000e-07	-4.045457e-06	-8.650265e-09	-2.869146e+01	-5.663472e+02
4.300000e-07	-3.983477e-06	-8.590482e-09	-2.825189e+01	-5.624088e+02
4.400000e-07	-3.920401e-06	-8.525458e-09	-2.780453e+01	-5.583647e+02
4.500000e-07	-3.856418e-06	-8.470662e-09	-2.735075e+01	-5.542562e+02
4.600000e-07	-3.791495e-06	-8.405481e-09	-2.689030e+01	-5.500925e+02
4.700000e-07	-3.725250e-06	-8.338225e-09	-2.642047e+01	-5.458474e+02
4.800000e-07	-3.657716e-06	-8.268887e-09	-2.594150e+01	-5.414751e+02
4.900000e-07	-3.589276e-06	-8.202315e-09	-2.545611e+01	-5.369343e+02
5.000000e-07	-3.520095e-06	-8.131405e-09	-2.496546e+01	-5.322062e+02
5.100000e-07	-3.450021e-06	-8.045454e-09	-2.446847e+01	-5.272980e+02
5.200000e-07	-3.378992e-06	-7.962235e-09	-2.396472e+01	-5.222311e+02
5.300000e-07	-3.307122e-06	-7.887152e-09	-2.345499e+01	-5.170240e+02
5.400000e-07	-3.234390e-06	-7.817502e-09	-2.293916e+01	-5.116811e+02
5.500000e-07	-3.160585e-06	-7.733658e-09	-2.241572e+01	-5.061930e+02
5.600000e-07	-3.085557e-06	-7.641282e-09	-2.188360e+01	-5.005474e+02
5.700000e-07	-3.009523e-06	-7.552703e-09	-2.134434e+01	-4.947398e+02
5.800000e-07	-2.932667e-06	-7.462788e-09	-2.079926e+01	-4.887783e+02
5.900000e-07	-2.855012e-06	-7.366390e-09	-2.024851e+01	-4.826764e+02
6.000000e-07	-2.776500e-06	-7.264261e-09	-1.969168e+01	-4.764405e+02
6.100000e-07	-2.696947e-06	-7.165628e-09	-1.912747e+01	-4.700597e+02
6.200000e-07	-2.616400e-06	-7.070789e-09	-1.855621e+01	-4.635049e+02
6.300000e-07	-2.535067e-06	-6.971270e-09	-1.797938e+01	-4.567403e+02
6.400000e-07	-2.452976e-06	-6.861023e-09	-1.739716e+01	-4.497389e+02
6.500000e-07	-2.370070e-06	-6.744410e-09	-1.680917e+01	-4.424955e+02
6.600000e-07	-2.286505e-06	-6.628640e-09	-1.621651e+01	-4.350280e+02
6.700000e-07	-2.202479e-06	-6.513944e-09	-1.562057e+01	-4.273670e+02
6.800000e-07	-2.117979e-06	-6.393373e-09	-1.502127e+01	-4.195394e+02
6.900000e-07	-2.032933e-06	-6.266422e-09	-1.441811e+01	-4.115536e+02
7.000000e-07	-1.947274e-06	-6.139087e-09	-1.381059e+01	-4.033941e+02
7.100000e-07	-1.861012e-06	-6.013313e-09	-1.319880e+01	-3.950265e+02
7.200000e-07	-1.774233e-06	-5.882104e-09	-1.258334e+01	-3.864102e+02
7.300000e-07	-1.687020e-06	-5.740299e-09	-1.196479e+01	-3.775128e+02
7.400000e-07	-1.599396e-06	-5.595543e-09	-1.134335e+01	-3.683198e+02
7.500000e-07	-1.511389e-06	-5.452868e-09	-1.071917e+01	-3.588367e+02
7.600000e-07	-1.423089e-06	-5.308661e-09	-1.009293e+01	-3.490849e+02
7.700000e-07	-1.334475e-06	-5.154735e-09	-9.464456e+00	-3.390912e+02
7.800000e-07	-1.245448e-06	-4.993704e-09	-8.833053e+00	-3.288759e+02
7.900000e-07	-1.155986e-06	-4.833275e-09	-8.198563e+00	-3.184425e+02
8.000000e-07	-1.066054e-06	-4.671905e-09	-7.560741e+00	-3.077718e+02
8.100000e-07	-9.756875e-07	-4.503712e-09	-6.919837e+00	-2.968244e+02
8.200000e-07	-8.849352e-07	-4.326968e-09	-6.276197e+00	-2.855521e+02
8.300000e-07	-7.938771e-07	-4.146130e-09	-5.630389e+00	-2.739155e+02
8.400000e-07	-7.026306e-07	-3.961791e-09	-4.983244e+00	-2.619009e+02
8.500000e-07	-6.112418e-07	-3.775388e-09	-4.335091e+00	-2.495277e+02
8.600000e-07	-5.197138e-07	-3.584376e-09	-3.685949e+00	-2.368408e+02
8.700000e-07	-4.280801e-07	-3.387292e-09	-3.036059e+00	-2.238880e+02
8.800000e-07	-3.363826e-07	-3.186424e-09	-2.385716e+00	-2.106919e+02
8.900000e-07	-2.446101e-07	-2.982281e-09	-1.734840e+00	-1.972304e+02
9.000000e-07	-1.528333e-07	-2.771960e-09	-1.083935e+00	-1.834360e+02
9.100000e-07	-6.105304e-08	-2.551936e-09	-4.330045e-01	-1.692189e+02
9.200000e-07	3.073402e-08	-2.326222e-09	2.179739e-01	-1.545021e+02
9.300000e-07	1.224840e-07	-2.097658e-09	8.686892e-01	-1.392541e+02
9.400000e-07	2.142264e-07	-1.861981e-09	1.519351e+00	-1.234989e+02
9.500000e-07	3.059707e-07	-1.615009e-09	2.170026e+00	-1.073000e+02
9.600000e-07	3.976901e-07	-1.360514e-09	2.820525e+00	-9.072363e+01
9.700000e-07	4.893789e-07	-1.103870e-09	3.470806e+00	-7.380140e+01
9.800000e-07	5.810210e-07	-8.439024e-10	4.120757e+00	-5.651206e+01
9.900000e-07	6.725457e-07	-5.723652e-10	4.769874e+00	-3.879309e+01
1.000000e-06	7.638517e-07	-2.896742e-10	5.417441e+00	-2.057645e+01
1.010000e-06	8.549272e-07	-3.121895e-12	6.063373e+00	-1.830402e+00
1.020000e-06	9.458471e-07	2.869192e-10	6.708201e+00	1.741415e+01
1.030000e-06	1.036498e-06	5.839765e-10	7.351120e+00	3.706558e+01
1.040000e-06	1.126735e-06	8.886947e-10	7.991109e+00	5.699919e+01
1.050000e-06	1.216490e-06	1.196502e-09	8.627670e+00	7.709465e+01
1.060000e-06	1.305747e-06	1.505732e-09	9.260707e+00	9.726320e+01
1.070000e-06	1.394543e-06	1.815371e-09	9.890470e+00	1.174519e+02
1.080000e-06	1.482930e-06	2.125116e-09	1.051733e+01	1.376255e+02
1.090000e-06	1.570929e-06	2.434471e-09	1.114145e+01	1.577397e+02
1.100000e-06	1.658535e-06	2.739579e-09	1.176277e+01	1.777213e+02
1.110000e-06	1.745716e-06	3.040362e-09	1.238109e+01	1.974683e+02
1.120000e-06	1.832476e-06	3.337592e-09	1.299641e+01	2.168659e+02
1.130000e-06	1.918743e-06	3.629588e-09	1.360824e+01	2.358107e+02
1.140000e-06	2.004424e-06	3.910293e-09	1.421591e+01	2.542273e+02
1.150000e-06	2.089591e-06	4.178962e-09	1.481994e+01	2.720708e+02
1.160000e-06	2.174203e-06	4.439438e-09	1.542003e+01	2.893172e+02
1.170000e-06	2.258298e-06	4.693475e-09	1.601645e+01	3.059500e+02
1.180000e-06	2.341897e-06	4.938845e-09	1.660936e+01	3.219542e+02
1.190000e-06	2.424754e-06	5.172633e-09	1.719701e+01	3.373189e+02
1.200000e-06	2.506762e-06	5.395288e-09	1.777863e+01	3.520453e+02
1.210000e-06	2.587986e-06	5.609022e-09	1.835469e+01	3.661525e+02
1.220000e-06	2.668436e-06	5.814509e-09	1.892526e+01	3.796724e+02
1.230000e-06	2.748088e-06	6.009172e-09	1.949017e+01	3.926372e+02
1.240000e-06	2.826897e-06	6.193584e-09	2.004911e+01	4.050655e+02
1.250000e-06	2.904900e-06	6.371871e-09	2.060233e+01	4.169566e+02
1.260000e-06	2.982104e-06	6.545875e-09	2.114988e+01	4.282983e+02
1.270000e-06	3.058502e-06	6.711581e-09	2.169171e+01	4.390837e+02
1.280000e-06	3.134015e-06	6.869101e-09	2.222728e+01	4.493272e+02
1.290000e-06	3.208413e-06	7.021020e-09	2.275492e+01	4.590705e+02
1.300000e-06	3.281639e-06	7.167175e-09	2.327426e+01	4.683736e+02
1.310000e-06	3.353888e-06	7.304928e-09	2.378667e+01	4.772968e+02
1.320000e-06	3.425262e-06	7.432596e-09	2.429288e+01	4.858824e+02
1.330000e-06	3.495733e-06	7.553614e-09	2.479268e+01	4.941462e+02
1.340000e-06	3.565227e-06	7.673174e-09	2.528554e+01	5.020818e+02
1.350000e-06	3.633801e-06	7.792603e-09	2.577189e+01	5.096720e+02
1.360000e-06	3.701587e-06	7.905661e-09	2.625265e+01	5.169006e+02
1.370000e-06	3.768384e-06	8.010242e-09	2.672639e+01	5.237572e+02
1.380000e-06	3.833964e-06	8.110213e-09	2.719150e+01	5.302374e+02
1.390000e-06	3.898364e-06	8.205718e-09	2.764824e+01	5.363418e+02
1.400000e-06	3.961669e-06	8.293427e-09	2.809722e+01	5.420803e+02
1.410000e-06	4.023921e-06	8.371294e-09	2.853873e+01	5.474818e+02
1.420000e-06	4.085118e-06	8.443555e-09	2.897275e+01	5.526009e+02
1.430000e-06	4.145390e-06	8.516279e-09	2.940022e+01	5.575144e+02
1.440000e-06	4.204571e-06	8.590131e-09	2.981994e+01	5.623011e+02
1.450000e-06	4.262289e-06	8.662758e-09	3.022930e+01	5.670123e+02
1.460000e-06	4.318658e-06	8.733871e-09	3.062908e+01	5.716467e+02
1.470000e-06	4.373862e-06	8.804822e-09	3.102060e+01	5.761469e+02
1.480000e-06	4.427836e-06	8.871665e-09	3.140340e+01	5.804244e+02
1.490000e-06	4.480423e-06	8.930815e-09	3.177636e+01	5.844053e+02
1.500000e-06	4.531397e-06	8.982831e-09	3.213788e+01	5.880742e+02
1.510000e-06	4.580700e-06	9.030129e-09	3.248755e+01	5.914915e+02
1.520000e-06	4.628579e-06	9.077030e-09	3.282712e+01	5.947725e+02
1.530000e-06	4.675215e-06	9.124603e-09	3.315788e+01	5.980346e+02
1.540000e-06	4.720611e-06	9.173206e-09	3.347984e+01	6.013382e+02
1.550000e-06	4.764780e-06	9.223658e-09	3.379310e+01	6.046532e+02
1.560000e-06	4.807549e-06	9.275054e-09	3.409643e+01	6.078700e+02
1.570000e-06	4.848746e-06	9.323410e-09	3.438860e+01	6.108514e+02
1.580000e-06	4.888517e-06	9.363485e-09	3.467067e+01	6.135019e+02
1.590000e-06	4.927027e-06	9.394938e-09	3.494379e+01	6.158163e+02
1.600000e-06	4.964282e-06	9.423022e-09	3.520802e+01	6.178856e+02
1.610000e-06	5.000279e-06	9.451258e-09	3.546332e+01	6.198537e+02
1.620000e-06	5.034792e-06	9.480601e-09	3.570810e+01	6.218497e+02
1.630000e-06	5.067682e-06	9.510155e-09	3.594136e+01	6.239276e+02
1.640000e-06	5.099165e-06	9.539899e-09	3.616465e+01	6.260443e+02
1.650000e-06	5.129361e-06	9.571001e-09	3.637880e+01	6.280853e+02
1.660000e-06	5.158300e-06	9.599162e-09	3.658404e+01	6.299227e+02
1.670000e-06	5.185889e-06	9.621644e-09	3.677971e+01	6.314761e+02
1.680000e-06	5.211889e-06	9.638857e-09	3.696411e+01	6.327473e+02
1.690000e-06	5.236301e-06	9.654292e-09	3.713725e+01	6.338145e+02
1.700000e-06	5.259258e-06	9.669763e-09	3.730007e+01	6.347926e+02
1.710000e-06	5.280802e-06	9.683210e-09	3.745287e+01	6.357820e+02
1.720000e-06	5.301082e-06	9.696207e-09	3.759669e+01	6.368294e+02
1.730000e-06	5.319971e-06	9.711522e-09	3.773066e+01	6.379176e+02
1.740000e-06	5.337281e-06	9.727223e-09	3.785342e+01	6.389825e+02
1.750000e-06	5.353029e-06	9.741728e-09	3.796512e+01	6.399471e+02
1.760000e-06	5.367205e-06	9.754866e-09	3.806566e+01	6.407532e+02
1.770000e-06	5.379842e-06	9.765543e-09	3.815528e+01	6.413797e+02
1.780000e-06	5.390795e-06	9.774075e-09	3.823296e+01	6.418436e+02
1.790000e-06	5.399976e-06	9.780789e-09	3.829807e+01	6.421868e+02
1.800000e-06	5.407537e-06	9.784924e-09	3.835170e+01	6.424578e+02
1.810000e-06	5.413575e-06	9.786565e-09	3.839452e+01	6.426948e+02
1.820000e-06	5.418225e-06	9.788183e-09	3.842750e+01	6.429154e+02
1.830000e-06	5.421382e-06	9.791803e-09	3.844989e+01	6.431130e+02
1.840000e-06	5.422807e-06	9.795488e-09	3.846000e+01	6.432619e+02
1.850000e-06	5.422648e-06	9.797474e-09	3.845887e+01	6.433273e+02
1.860000e-06	5.421065e-06	9.797671e-09	3.844764e+01	6.432789e+02
1.870000e-06	5.418165e-06	9.798397e-09	3.842708e+01	6.431033e+02
1.880000e-06	5.413975e-06	9.795675e-09	3.839736e+01	6.428097e+02
1.890000e-06	5.408197e-06	9.788549e-09	3.835638e+01	6.424259e+02
1.900000e-06	5.400830e-06	9.780545e-09	3.830413e+01	6.419848e+02
1.910000e-06	5.392103e-06	9.776371e-09	3.824224e+01	6.415073e+02
1.920000e-06	5.382068e-06	9.778555e-09	3.817107e+01	6.409918e+02
1.930000e-06	5.370642e-06	9.748805e-09	3.809003e+01	6.404140e+02
1.940000e-06	5.357287e-06	9.737647e-09	3.799532e+01	6.397411e+02
1.950000e-06	5.341474e-06	9.730635e-09	3.788316e+01	6.389499e+02
1.960000e-06	5.323402e-06	9.728780e-09	3.775499e+01	6.380419e+02
1.970000e-06	5.304040e-06	9.735459e-09	3.761767e+01	6.370434e+02
1.980000e-06	5.284301e-06	9.664895e-09	3.747768e+01	6.359924e+02
1.990000e-06	5.263751e-06	9.670811e-09	3.733194e+01	6.349192e+02
2.000000e-06	5.241308e-06	9.699671e-09	3.717276e+01	6.338308e+02
2.010000e-06	5.217431e-06	9.595386e-09	3.700341e+01	6.327107e+02
2.020000e-06	5.192570e-06	9.599704e-09	3.682709e+01	6.315315e+02
2.030000e-06	5.166034e-06	9.647052e-09	3.663890e+01	6.302737e+02
2.040000e-06	5.138074e-06	9.538276e-09	3.644060e+01	6.289368e+02
2.050000e-06	5.108838e-06	9.546849e-09	3.623325e+01	6.275360e+02
2.060000e-06	5.077860e-06	9.582539e-09	3.601354e+01	6.260862e+02
2.070000e-06	5.045416e-06	9.476403e-09	3.578344e+01	6.245827e+02
2.080000e-06	5.011662e-06	9.482264e-09	3.554405e+01	6.229944e+02
2.090000e-06	4.976547e-06	9.460361e-09	3.529500e+01	6.212735e+02
2.100000e-06	4.940355e-06	9.408679e-09	3.503832e+01	6.193798e+02
2.110000e-06	4.902592e-06	9.458460e-09	3.477049e+01	6.173043e+02
2.120000e-06	4.863023e-06	9.358823e-09	3.448986e+01	6.150784e+02
2.130000e-06	4.822105e-06	9.303931e-09	3.419966e+01	6.127598e+02
2.140000e-06	4.779765e-06	9.336332e-09	3.389938e+01	6.104032e+02
2.150000e-06	4.736260e-06	9.242689e-09	3.359083e+01	6.080308e+02
2.160000e-06	4.691481e-06	9.210288e-09	3.327324e+01	6.056196e+02
2.170000e-06	4.644982e-06	9.193818e-09	3.294345e+01	6.031142e+02
2.180000e-06	4.597063e-06	9.141074e-09	3.260360e+01	6.004576e+02
2.190000e-06	4.547888e-06	9.117841e-09	3.225484e+01	5.976230e+02
2.200000e-06	4.497362e-06	9.052228e-09	3.189650e+01	5.946283e+02
2.210000e-06	4.445370e-06	9.003973e-09	3.152775e+01	5.915249e+02
2.220000e-06	4.391682e-06	8.950510e-09	3.114699e+01	5.883675e+02
2.230000e-06	4.336442e-06	8.904868e-09	3.075521e+01	5.851822e+02
2.240000e-06	4.279966e-06	8.872283e-09	3.035467e+01	5.819509e+02
2.250000e-06	4.222397e-06	8.792337e-09	2.994637e+01	5.786213e+02
2.260000e-06	4.163770e-06	8.757186e-09	2.953057e+01	5.751355e+02
2.270000e-06	4.104113e-06	8.696132e-09	2.910747e+01	5.714615e+02
2.280000e-06	4.043287e-06	8.631863e-09	2.867608e+01	5.676087e+02
2.290000e-06	3.980993e-06	8.590206e-09	2.823427e+01	5.636197e+02
2.300000e-06	3.917478e-06	8.505658e-09	2.778381e+01	5.595451e+02
2.310000e-06	3.853021e-06	8.458773e-09	2.732666e+01	5.554144e+02
2.320000e-06	3.787535e-06	8.392049e-09	2.686221e+01	5.512214e+02
2.330000e-06	3.721024e-06	8.319172e-09	2.639050e+01	5.469290e+02
2.340000e-06	3.653574e-06	8.251712e-09	2.591212e+01	5.424903e+02
2.350000e-06	3.585154e-06	8.170028e-09	2.542687e+01	5.378719e+02
2.360000e-06	3.515476e-06	8.120606e-09	2.493270e+01	5.330665e+02
2.370000e-06	3.444580e-06	8.047396e-09	2.442989e+01	5.280892e+02
2.380000e-06	3.372809e-06	7.966198e-09	2.392086e+01	5.229621e+02
2.390000e-06	3.300256e-06	7.878142e-09	2.340630e+01	5.176986e+02
2.400000e-06	3.226848e-06	7.794175e-09	2.288567e+01	5.122966e+02
2.410000e-06	3.152513e-06	7.719177e-09	2.235847e+01	5.067439e+02
2.420000e-06	3.077312e-06	7.619197e-09	2.182512e+01	5.010304e+02
2.430000e-06	3.001238e-06	7.532340e-09	2.128559e+01	4.951569e+02
2.440000e-06	2.924012e-06	7.447634e-09	2.073788e+01	4.891351e+02
2.450000e-06	2.845568e-06	7.359603e-09	2.018153e+01	4.829773e+02
2.460000e-06	2.766205e-06	7.263508e-09	1.961867e+01	4.766833e+02
2.470000e-06	2.686179e-06	7.157217e-09	1.905110e+01	4.702340e+02
2.480000e-06	2.605458e-06	7.057019e-09	1.847860e+01	4.635958e+02
2.490000e-06	2.524006e-06	6.953259e-09	1.790093e+01	4.567345e+02
2.500000e-06	2.441894e-06	6.851745e-09	1.731856e+01	4.496313e+02
2.510000e-06	2.359076e-06	6.742000e-09	1.673120e+01	4.422911e+02
2.520000e-06	2.275684e-06	6.627370e-09	1.613976e+01	4.347388e+02
2.530000e-06	2.191860e-06	6.512843e-09	1.554526e+01	4.270058e+02
2.540000e-06	2.107407e-06	6.394277e-09	1.494629e+01	4.191124e+02
2.550000e-06	2.022004e-06	6.273813e-09	1.434059e+01	4.110572e+02
2.560000e-06	1.935677e-06	6.144716e-09	1.372834e+01	4.028157e+02
2.570000e-06	1.848697e-06	6.017638e-09	1.311145e+01	3.943490e+02
2.580000e-06	1.761273e-06	5.889445e-09	1.249142e+01	3.856184e+02
2.590000e-06	1.673486e-06	5.754243e-09	1.186881e+01	3.765982e+02
2.600000e-06	1.585305e-06	5.613356e-09	1.124341e+01	3.672824e+02
2.610000e-06	1.496698e-06	5.468434e-09	1.061498e+01	3.576840e+02
2.620000e-06	1.407672e-06	5.322884e-09	9.983587e+00	3.478280e+02
2.630000e-06	1.318290e-06	5.169006e-09	9.349663e+00	3.377401e+02
2.640000e-06	1.228608e-06	5.007951e-09	8.713617e+00	3.274345e+02
2.650000e-06	1.138622e-06	4.845338e-09	8.075414e+00	3.169057e+02
2.660000e-06	1.048344e-06	4.684453e-09	7.435133e+00	3.061251e+02
2.670000e-06	9.578486e-07	4.519991e-09	6.793319e+00	2.950479e+02
2.680000e-06	8.671110e-07	4.349245e-09	6.149783e+00	2.836272e+02
2.690000e-06	7.761633e-07	4.174601e-09	5.504758e+00	2.718327e+02
2.700000e-06	6.851248e-07	3.990578e-09	4.859089e+00	2.596643e+02
2.710000e-06	5.939999e-07	3.799406e-09	4.212806e+00	2.471540e+02
2.720000e-06	5.027875e-07	3.601529e-09	3.565904e+00	2.343511e+02
2.730000e-06	4.115245e-07	3.399209e-09	2.918642e+00	2.212962e+02
2.740000e-06	3.202122e-07	3.194712e-09	2.271031e+00	2.079949e+02
2.750000e-06	2.288714e-07	2.985225e-09	1.623217e+00	1.944047e+02
2.760000e-06	1.375104e-07	2.772488e-09	9.752605e-01	1.804450e+02
2.770000e-06	4.613072e-08	2.554369e-09	3.271714e-01	1.660268e+02
2.780000e-06	-4.524129e-08	2.327673e-09	-3.208633e-01	1.510890e+02
2.790000e-06	-1.366245e-07	2.090972e-09	-9.689774e-01	1.356236e+02
2.800000e-06	-2.280099e-07	1.846313e-09	-1.617108e+00	1.196745e+02
2.810000e-06	-3.193580e-07	1.593773e-09	-2.264973e+00	1.033114e+02
2.820000e-06	-4.106517e-07	1.335626e-09	-2.912452e+00	8.658978e+01
2.830000e-06	-5.018874e-07	1.074536e-09	-3.559520e+00	6.951992e+01
2.840000e-06	-5.930403e-07	8.077460e-10	-4.206001e+00	5.206026e+01
2.850000e-06	-6.840836e-07	5.327776e-10	-4.851704e+00	3.414078e+01
2.860000e-06	-7.749780e-07	2.518305e-10	-5.496351e+00	1.570392e+01
2.870000e-06	-8.657236e-07	-3.229385e-11	-6.139944e+00	-3.257654e+00
2.880000e-06	-9.562839e-07	-3.255612e-10	-6.782221e+00	-2.268581e+01
2.890000e-06	-1.046533e-06	-6.280589e-10	-7.422292e+00	-4.247075e+01
2.900000e-06	-1.136463e-06	-9.337862e-10	-8.060101e+00	-6.248522e+01
2.910000e-06	-1.226110e-06	-1.241311e-09	-8.695902e+00	-8.261989e+01
2.920000e-06	-1.315388e-06	-1.551353e-09	-9.329087e+00	-1.028019e+02
2.930000e-06	-1.404304e-06	-1.861951e-09	-9.959699e+00	-1.229887e+02
2.940000e-06	-1.492846e-06	-2.168983e-09	-1.058766e+01	-1.431445e+02
2.950000e-06	-1.580986e-06	-2.471092e-09	-1.121278e+01	-1.632144e+02
