# Temperatura_=_20.0
# Concentracion g/m^3_=_10000.0
# C_Vs_to_Am_M_A/Vsm_=_65563218390.804596
# pendiente_HvsI_1/m_=_3716.3
# ordenada_HvsI_A/m_=_1297.0
# frecuencia_Hz_=_269417.6895715087

Tiempo_(s)	Campo_(V.s)	Magnetizacion_(V.s)	Campo_(kA/m)	Magnetizacion_(A/m)
0.000000e+00	-5.415974e-06	-3.749600e-10	-3.828603e+01	-2.352470e+01
1.000000e-08	-5.414067e-06	-3.751587e-10	-3.827255e+01	-2.360892e+01
2.000000e-08	-5.410544e-06	-3.742414e-10	-3.824764e+01	-2.362254e+01
3.000000e-08	-5.405681e-06	-3.732817e-10	-3.821327e+01	-2.355739e+01
4.000000e-08	-5.399469e-06	-3.737825e-10	-3.816935e+01	-2.344585e+01
5.000000e-08	-5.391895e-06	-3.743560e-10	-3.811581e+01	-2.334160e+01
6.000000e-08	-5.382859e-06	-3.735315e-10	-3.805193e+01	-2.328810e+01
7.000000e-08	-5.372074e-06	-3.711837e-10	-3.797569e+01	-2.329309e+01
8.000000e-08	-5.359523e-06	-3.786164e-10	-3.788697e+01	-2.332450e+01
9.000000e-08	-5.345016e-06	-3.968257e-10	-3.778442e+01	-2.333002e+01
1.000000e-07	-5.328275e-06	-3.817541e-10	-3.766607e+01	-2.326872e+01
1.100000e-07	-5.309711e-06	-3.619116e-10	-3.753484e+01	-2.313566e+01
1.200000e-07	-5.290036e-06	-3.323351e-10	-3.739576e+01	-2.296469e+01
1.300000e-07	-5.269587e-06	-3.497783e-10	-3.725120e+01	-2.280778e+01
1.400000e-07	-5.247971e-06	-4.157460e-10	-3.709840e+01	-2.270344e+01
1.500000e-07	-5.224939e-06	-3.378996e-10	-3.693558e+01	-2.265362e+01
1.600000e-07	-5.200774e-06	-3.128065e-10	-3.676476e+01	-2.262328e+01
1.700000e-07	-5.175050e-06	-3.929796e-10	-3.658291e+01	-2.256322e+01
1.800000e-07	-5.147619e-06	-3.266490e-10	-3.638900e+01	-2.244213e+01
1.900000e-07	-5.119038e-06	-2.923151e-10	-3.618696e+01	-2.226814e+01
2.000000e-07	-5.089172e-06	-3.550117e-10	-3.597583e+01	-2.208590e+01
2.100000e-07	-5.057923e-06	-2.870659e-10	-3.575493e+01	-2.194994e+01
2.200000e-07	-5.025391e-06	-2.810811e-10	-3.552496e+01	-2.188980e+01
2.300000e-07	-4.991194e-06	-3.598462e-10	-3.528322e+01	-2.188791e+01
2.400000e-07	-4.955417e-06	-3.112766e-10	-3.503031e+01	-2.188468e+01
2.500000e-07	-4.918337e-06	-3.085193e-10	-3.476818e+01	-2.180930e+01
2.600000e-07	-4.879821e-06	-3.314378e-10	-3.449591e+01	-2.161964e+01
2.700000e-07	-4.840012e-06	-2.955967e-10	-3.421449e+01	-2.132850e+01
2.800000e-07	-4.798782e-06	-3.029613e-10	-3.392304e+01	-2.100031e+01
2.900000e-07	-4.755907e-06	-2.998075e-10	-3.361995e+01	-2.071896e+01
3.000000e-07	-4.711548e-06	-2.817738e-10	-3.330638e+01	-2.054345e+01
3.100000e-07	-4.665784e-06	-3.044505e-10	-3.298286e+01	-2.047553e+01
3.200000e-07	-4.618724e-06	-3.143316e-10	-3.265019e+01	-2.045713e+01
3.300000e-07	-4.570311e-06	-3.064388e-10	-3.230795e+01	-2.039955e+01
3.400000e-07	-4.520128e-06	-2.937123e-10	-3.195321e+01	-2.022908e+01
3.500000e-07	-4.468139e-06	-2.840630e-10	-3.158569e+01	-1.992502e+01
3.600000e-07	-4.414725e-06	-2.779072e-10	-3.120811e+01	-1.953031e+01
3.700000e-07	-4.360115e-06	-2.813419e-10	-3.082206e+01	-1.912954e+01
3.800000e-07	-4.304299e-06	-2.852258e-10	-3.042749e+01	-1.880629e+01
3.900000e-07	-4.247082e-06	-2.684767e-10	-3.002302e+01	-1.860195e+01
4.000000e-07	-4.188427e-06	-2.780743e-10	-2.960839e+01	-1.849696e+01
4.100000e-07	-4.128593e-06	-2.855115e-10	-2.918541e+01	-1.842274e+01
4.200000e-07	-4.067746e-06	-2.670787e-10	-2.875528e+01	-1.829733e+01
4.300000e-07	-4.005805e-06	-2.549502e-10	-2.831741e+01	-1.806578e+01
4.400000e-07	-3.942743e-06	-2.521482e-10	-2.787162e+01	-1.772537e+01
4.500000e-07	-3.878761e-06	-2.600920e-10	-2.741932e+01	-1.732431e+01
4.600000e-07	-3.813782e-06	-2.624495e-10	-2.695998e+01	-1.693638e+01
4.700000e-07	-3.747462e-06	-2.483387e-10	-2.649116e+01	-1.662500e+01
4.800000e-07	-3.679939e-06	-2.355196e-10	-2.601383e+01	-1.641468e+01
4.900000e-07	-3.611564e-06	-2.346303e-10	-2.553048e+01	-1.628222e+01
5.000000e-07	-3.542314e-06	-2.372352e-10	-2.504095e+01	-1.617007e+01
5.100000e-07	-3.472108e-06	-2.301308e-10	-2.454466e+01	-1.601352e+01
5.200000e-07	-3.400982e-06	-2.240243e-10	-2.404186e+01	-1.576837e+01
5.300000e-07	-3.329046e-06	-2.298652e-10	-2.353334e+01	-1.542661e+01
5.400000e-07	-3.256211e-06	-2.300058e-10	-2.301846e+01	-1.501509e+01
5.500000e-07	-3.182167e-06	-2.188440e-10	-2.249504e+01	-1.457991e+01
5.600000e-07	-3.106941e-06	-2.014164e-10	-2.196326e+01	-1.416525e+01
5.700000e-07	-3.030764e-06	-1.922677e-10	-2.142476e+01	-1.379664e+01
5.800000e-07	-2.953690e-06	-1.921873e-10	-2.087991e+01	-1.347481e+01
5.900000e-07	-2.875736e-06	-1.908876e-10	-2.032884e+01	-1.318092e+01
6.000000e-07	-2.796865e-06	-1.869557e-10	-1.977130e+01	-1.288868e+01
6.100000e-07	-2.716919e-06	-1.790967e-10	-1.920616e+01	-1.257672e+01
6.200000e-07	-2.636094e-06	-1.738259e-10	-1.863480e+01	-1.223584e+01
6.300000e-07	-2.554558e-06	-1.669173e-10	-1.805841e+01	-1.186911e+01
6.400000e-07	-2.472274e-06	-1.590406e-10	-1.747673e+01	-1.148662e+01
6.500000e-07	-2.389272e-06	-1.512671e-10	-1.688999e+01	-1.109893e+01
6.600000e-07	-2.305637e-06	-1.461716e-10	-1.629876e+01	-1.071282e+01
6.700000e-07	-2.221512e-06	-1.444187e-10	-1.570408e+01	-1.033102e+01
6.800000e-07	-2.136913e-06	-1.373565e-10	-1.510604e+01	-9.954576e+00
6.900000e-07	-2.051713e-06	-1.269317e-10	-1.450375e+01	-9.585249e+00
7.000000e-07	-1.965813e-06	-1.186355e-10	-1.389652e+01	-9.225488e+00
7.100000e-07	-1.879259e-06	-1.158035e-10	-1.328466e+01	-8.875793e+00
7.200000e-07	-1.792226e-06	-1.134426e-10	-1.266941e+01	-8.531441e+00
7.300000e-07	-1.704893e-06	-1.078383e-10	-1.205205e+01	-8.181573e+00
7.400000e-07	-1.617181e-06	-9.976744e-11	-1.143201e+01	-7.812500e+00
7.500000e-07	-1.528935e-06	-9.273832e-11	-1.080819e+01	-7.414347e+00
7.600000e-07	-1.440195e-06	-8.603175e-11	-1.018087e+01	-6.987538e+00
7.700000e-07	-1.351141e-06	-7.700188e-11	-9.551343e+00	-6.544882e+00
7.800000e-07	-1.261701e-06	-6.823869e-11	-8.919086e+00	-6.106983e+00
7.900000e-07	-1.171677e-06	-6.222376e-11	-8.282695e+00	-5.692474e+00
8.000000e-07	-1.081158e-06	-6.059865e-11	-7.642805e+00	-5.308056e+00
8.100000e-07	-9.903464e-07	-5.846609e-11	-7.000851e+00	-4.944146e+00
8.200000e-07	-8.992824e-07	-5.042198e-11	-6.357111e+00	-4.579358e+00
8.300000e-07	-8.079626e-07	-3.872250e-11	-5.711563e+00	-4.192110e+00
8.400000e-07	-7.164876e-07	-3.183321e-11	-5.064918e+00	-3.773220e+00
8.500000e-07	-6.248929e-07	-2.906108e-11	-4.417426e+00	-3.332188e+00
8.600000e-07	-5.332012e-07	-2.456656e-11	-3.769249e+00	-2.892921e+00
8.700000e-07	-4.414197e-07	-1.866953e-11	-3.120437e+00	-2.480639e+00
8.800000e-07	-3.495482e-07	-1.436813e-11	-2.470989e+00	-2.107022e+00
8.900000e-07	-2.576255e-07	-1.180441e-11	-1.821179e+00	-1.762212e+00
9.000000e-07	-1.656668e-07	-6.828545e-12	-1.171114e+00	-1.418806e+00
9.100000e-07	-7.371070e-08	2.109645e-12	-5.210678e-01	-1.046194e+00
9.200000e-07	1.824256e-08	1.001529e-11	1.289583e-01	-6.274429e-01
9.300000e-07	1.101806e-07	1.373321e-11	7.788773e-01	-1.691065e-01
9.400000e-07	2.021308e-07	1.744384e-11	1.428882e+00	3.018934e-01
9.500000e-07	2.940606e-07	2.394611e-11	2.078742e+00	7.527950e-01
9.600000e-07	3.859242e-07	3.124632e-11	2.728134e+00	1.162742e+00
9.700000e-07	4.777510e-07	3.605281e-11	3.377266e+00	1.533597e+00
9.800000e-07	5.695094e-07	3.956848e-11	4.025915e+00	1.887699e+00
9.900000e-07	6.611691e-07	4.459274e-11	4.673866e+00	2.254132e+00
1.000000e-06	7.526297e-07	5.031216e-11	5.320410e+00	2.651853e+00
1.010000e-06	8.439341e-07	5.439823e-11	5.965849e+00	3.079751e+00
1.020000e-06	9.351311e-07	5.764651e-11	6.610529e+00	3.519340e+00
1.030000e-06	1.026139e-06	6.106597e-11	7.253875e+00	3.947942e+00
1.040000e-06	1.116855e-06	6.559879e-11	7.895151e+00	4.353773e+00
1.050000e-06	1.207159e-06	7.123826e-11	8.533517e+00	4.743254e+00
1.060000e-06	1.297026e-06	7.752190e-11	9.168797e+00	5.135970e+00
1.070000e-06	1.386389e-06	8.299415e-11	9.800516e+00	5.550648e+00
1.080000e-06	1.475167e-06	8.895732e-11	1.042809e+01	5.991493e+00
1.090000e-06	1.563392e-06	9.601694e-11	1.105176e+01	6.444140e+00
1.100000e-06	1.651171e-06	1.015887e-10	1.167228e+01	6.884439e+00
1.110000e-06	1.738629e-06	1.055470e-10	1.229053e+01	7.294839e+00
1.120000e-06	1.825758e-06	1.113804e-10	1.290646e+01	7.677774e+00
1.130000e-06	1.912401e-06	1.173821e-10	1.351894e+01	8.056707e+00
1.140000e-06	1.998430e-06	1.219192e-10	1.412709e+01	8.462905e+00
1.150000e-06	2.083859e-06	1.288594e-10	1.473099e+01	8.915168e+00
1.160000e-06	2.168721e-06	1.379640e-10	1.533089e+01	9.404853e+00
1.170000e-06	2.253002e-06	1.467931e-10	1.592668e+01	9.896250e+00
1.180000e-06	2.336765e-06	1.543439e-10	1.651881e+01	1.034360e+01
1.190000e-06	2.419996e-06	1.600080e-10	1.710718e+01	1.071596e+01
1.200000e-06	2.502493e-06	1.622878e-10	1.769036e+01	1.101588e+01
1.210000e-06	2.584086e-06	1.641604e-10	1.826715e+01	1.128056e+01
1.220000e-06	2.664818e-06	1.684231e-10	1.883785e+01	1.156391e+01
1.230000e-06	2.744779e-06	1.733690e-10	1.940310e+01	1.190883e+01
1.240000e-06	2.823950e-06	1.790881e-10	1.996276e+01	1.232464e+01
1.250000e-06	2.902280e-06	1.877106e-10	2.051649e+01	1.278207e+01
1.260000e-06	2.979798e-06	1.972337e-10	2.106447e+01	1.322844e+01
1.270000e-06	3.056473e-06	2.041847e-10	2.160649e+01	1.361465e+01
1.280000e-06	3.132317e-06	2.085411e-10	2.214265e+01	1.391930e+01
1.290000e-06	3.207293e-06	2.126969e-10	2.267265e+01	1.415774e+01
1.300000e-06	3.281055e-06	2.167052e-10	2.319408e+01	1.437227e+01
1.310000e-06	3.353581e-06	2.192196e-10	2.370678e+01	1.461014e+01
1.320000e-06	3.425254e-06	2.209116e-10	2.421344e+01	1.490179e+01
1.330000e-06	3.496092e-06	2.246739e-10	2.471420e+01	1.525008e+01
1.340000e-06	3.565965e-06	2.306439e-10	2.520814e+01	1.563428e+01
1.350000e-06	3.634886e-06	2.382791e-10	2.569535e+01	1.602400e+01
1.360000e-06	3.702929e-06	2.447717e-10	2.617635e+01	1.639386e+01
1.370000e-06	3.770083e-06	2.497134e-10	2.665107e+01	1.673142e+01
1.380000e-06	3.836064e-06	2.550318e-10	2.711750e+01	1.703614e+01
1.390000e-06	3.900731e-06	2.591348e-10	2.757463e+01	1.731343e+01
1.400000e-06	3.964357e-06	2.619155e-10	2.802441e+01	1.756947e+01
1.410000e-06	4.027025e-06	2.645349e-10	2.846741e+01	1.781049e+01
1.420000e-06	4.088559e-06	2.679024e-10	2.890240e+01	1.804521e+01
1.430000e-06	4.149003e-06	2.718954e-10	2.932969e+01	1.828629e+01
1.440000e-06	4.208549e-06	2.757013e-10	2.975063e+01	1.854704e+01
1.450000e-06	4.266888e-06	2.788207e-10	3.016303e+01	1.883372e+01
1.460000e-06	4.323630e-06	2.819423e-10	3.056415e+01	1.913831e+01
1.470000e-06	4.379115e-06	2.853271e-10	3.095637e+01	1.943776e+01
1.480000e-06	4.433447e-06	2.870717e-10	3.134045e+01	1.970239e+01
1.490000e-06	4.486464e-06	2.884215e-10	3.171523e+01	1.991035e+01
1.500000e-06	4.538090e-06	2.907821e-10	3.208019e+01	2.006033e+01
1.510000e-06	4.588000e-06	2.928377e-10	3.243300e+01	2.017433e+01
1.520000e-06	4.636242e-06	2.945276e-10	3.277403e+01	2.028791e+01
1.530000e-06	4.683180e-06	2.961477e-10	3.310584e+01	2.043231e+01
1.540000e-06	4.728871e-06	2.988949e-10	3.342884e+01	2.061827e+01
1.550000e-06	4.773333e-06	3.012247e-10	3.374314e+01	2.083086e+01
1.560000e-06	4.816537e-06	3.023805e-10	3.404855e+01	2.103831e+01
1.570000e-06	4.858170e-06	3.037149e-10	3.434286e+01	2.120998e+01
1.580000e-06	4.898227e-06	3.057567e-10	3.462603e+01	2.133293e+01
1.590000e-06	4.937005e-06	3.074499e-10	3.490015e+01	2.141800e+01
1.600000e-06	4.974510e-06	3.085021e-10	3.516528e+01	2.149226e+01
1.610000e-06	5.010746e-06	3.099809e-10	3.542143e+01	2.158316e+01
1.620000e-06	5.045623e-06	3.118077e-10	3.566798e+01	2.170414e+01
1.630000e-06	5.078872e-06	3.136556e-10	3.590302e+01	2.184983e+01
1.640000e-06	5.110670e-06	3.143190e-10	3.612781e+01	2.200279e+01
1.650000e-06	5.141213e-06	3.147531e-10	3.634372e+01	2.214597e+01
1.660000e-06	5.170397e-06	3.163558e-10	3.655002e+01	2.227254e+01
1.670000e-06	5.198323e-06	3.185963e-10	3.674743e+01	2.238670e+01
1.680000e-06	5.224711e-06	3.200604e-10	3.693397e+01	2.249625e+01
1.690000e-06	5.249344e-06	3.218093e-10	3.710811e+01	2.260328e+01
1.700000e-06	5.272522e-06	3.241511e-10	3.727195e+01	2.270064e+01
1.710000e-06	5.294374e-06	3.254895e-10	3.742642e+01	2.277754e+01
1.720000e-06	5.314961e-06	3.251067e-10	3.757196e+01	2.283042e+01
1.730000e-06	5.334250e-06	3.239816e-10	3.770831e+01	2.287084e+01
1.740000e-06	5.351958e-06	3.245120e-10	3.783350e+01	2.292306e+01
1.750000e-06	5.368012e-06	3.270826e-10	3.794698e+01	2.301081e+01
1.760000e-06	5.382497e-06	3.302430e-10	3.804937e+01	2.314060e+01
1.770000e-06	5.395462e-06	3.339266e-10	3.814103e+01	2.329268e+01
1.780000e-06	5.406792e-06	3.372692e-10	3.822112e+01	2.342722e+01
1.790000e-06	5.416247e-06	3.385387e-10	3.828795e+01	2.350428e+01
1.800000e-06	5.424022e-06	3.380619e-10	3.834292e+01	2.350699e+01
1.810000e-06	5.430322e-06	3.359911e-10	3.838745e+01	2.345383e+01
1.820000e-06	5.435188e-06	3.331930e-10	3.842185e+01	2.339143e+01
1.830000e-06	5.438678e-06	3.316559e-10	3.844653e+01	2.337031e+01
1.840000e-06	5.440498e-06	3.331102e-10	3.845939e+01	2.341674e+01
1.850000e-06	5.440584e-06	3.372750e-10	3.846000e+01	2.351698e+01
1.860000e-06	5.439206e-06	3.413720e-10	3.845026e+01	2.362391e+01
1.870000e-06	5.436430e-06	3.431869e-10	3.843063e+01	2.368293e+01
1.880000e-06	5.432421e-06	3.438121e-10	3.840230e+01	2.366273e+01
1.890000e-06	5.426998e-06	3.433029e-10	3.836396e+01	2.357295e+01
1.900000e-06	5.419859e-06	3.400000e-10	3.831349e+01	2.345829e+01
1.910000e-06	5.411292e-06	3.372571e-10	3.825293e+01	2.337208e+01
1.920000e-06	5.401488e-06	3.398386e-10	3.818363e+01	2.334500e+01
1.930000e-06	5.390302e-06	3.438758e-10	3.810455e+01	2.336723e+01
1.940000e-06	5.377229e-06	3.161037e-10	3.801213e+01	2.339481e+01
1.950000e-06	5.361687e-06	3.253833e-10	3.790227e+01	2.337627e+01
1.960000e-06	5.343779e-06	3.341096e-10	3.777568e+01	2.328374e+01
1.970000e-06	5.324380e-06	3.746742e-10	3.763854e+01	2.312957e+01
1.980000e-06	5.304499e-06	3.575526e-10	3.749800e+01	2.295872e+01
1.990000e-06	5.284052e-06	2.671447e-10	3.735346e+01	2.282133e+01
2.000000e-06	5.261827e-06	3.632016e-10	3.719635e+01	2.274239e+01
2.010000e-06	5.237895e-06	3.755730e-10	3.702717e+01	2.270698e+01
2.020000e-06	5.213060e-06	2.775265e-10	3.685161e+01	2.267044e+01
2.030000e-06	5.186692e-06	3.670945e-10	3.666521e+01	2.258726e+01
2.040000e-06	5.158785e-06	3.859551e-10	3.646794e+01	2.244119e+01
2.050000e-06	5.129764e-06	3.065081e-10	3.626278e+01	2.225749e+01
2.060000e-06	5.098989e-06	3.955014e-10	3.604523e+01	2.208911e+01
2.070000e-06	5.066612e-06	3.789399e-10	3.581635e+01	2.198413e+01
2.080000e-06	5.033027e-06	3.119348e-10	3.557894e+01	2.195377e+01
2.090000e-06	4.997990e-06	3.848615e-10	3.533126e+01	2.196063e+01
2.100000e-06	4.961812e-06	3.392440e-10	3.507551e+01	2.193567e+01
2.110000e-06	4.924236e-06	3.311142e-10	3.480989e+01	2.181547e+01
2.120000e-06	4.884763e-06	3.854862e-10	3.453085e+01	2.157909e+01
2.130000e-06	4.843869e-06	3.114607e-10	3.424176e+01	2.126310e+01
2.140000e-06	4.801652e-06	3.488513e-10	3.394333e+01	2.094519e+01
2.150000e-06	4.758139e-06	3.696797e-10	3.363573e+01	2.070411e+01
2.160000e-06	4.713385e-06	3.066248e-10	3.331936e+01	2.057750e+01
2.170000e-06	4.667024e-06	3.364478e-10	3.299163e+01	2.054049e+01
2.180000e-06	4.619237e-06	3.088576e-10	3.265382e+01	2.051727e+01
2.190000e-06	4.570146e-06	3.228354e-10	3.230679e+01	2.041971e+01
2.200000e-06	4.519660e-06	3.459230e-10	3.194990e+01	2.019282e+01
2.210000e-06	4.467777e-06	3.102629e-10	3.158314e+01	1.984308e+01
2.220000e-06	4.414243e-06	3.210307e-10	3.120470e+01	1.943507e+01
2.230000e-06	4.359092e-06	2.962064e-10	3.081483e+01	1.905861e+01
2.240000e-06	4.302609e-06	3.052900e-10	3.041554e+01	1.878380e+01
2.250000e-06	4.245036e-06	2.966800e-10	3.000856e+01	1.862716e+01
2.260000e-06	4.186445e-06	2.627909e-10	2.959437e+01	1.854557e+01
2.270000e-06	4.126794e-06	3.021166e-10	2.917270e+01	1.845979e+01
2.280000e-06	4.065989e-06	2.963543e-10	2.874286e+01	1.829466e+01
2.290000e-06	4.003718e-06	2.890765e-10	2.830266e+01	1.801533e+01
2.300000e-06	3.940117e-06	2.737456e-10	2.785305e+01	1.764207e+01
2.310000e-06	3.875532e-06	2.477119e-10	2.739650e+01	1.723781e+01
2.320000e-06	3.809978e-06	2.679552e-10	2.693309e+01	1.687634e+01
2.330000e-06	3.743479e-06	2.551488e-10	2.646300e+01	1.660740e+01
2.340000e-06	3.676029e-06	2.562691e-10	2.598620e+01	1.643535e+01
2.350000e-06	3.607652e-06	2.606333e-10	2.550283e+01	1.631996e+01
2.360000e-06	3.538141e-06	2.592554e-10	2.501145e+01	1.619706e+01
2.370000e-06	3.467288e-06	2.586417e-10	2.451059e+01	1.600758e+01
2.380000e-06	3.395390e-06	2.318493e-10	2.400233e+01	1.572144e+01
2.390000e-06	3.322680e-06	2.299074e-10	2.348834e+01	1.534630e+01
2.400000e-06	3.249208e-06	2.257274e-10	2.296895e+01	1.491947e+01
2.410000e-06	3.174904e-06	2.279335e-10	2.244370e+01	1.448878e+01
2.420000e-06	3.099678e-06	2.270086e-10	2.191192e+01	1.409214e+01
2.430000e-06	3.023475e-06	2.131481e-10	2.137322e+01	1.374479e+01
2.440000e-06	2.946161e-06	2.109364e-10	2.082669e+01	1.343815e+01
2.450000e-06	2.867720e-06	2.018880e-10	2.027218e+01	1.314862e+01
2.460000e-06	2.788295e-06	1.999566e-10	1.971072e+01	1.285066e+01
2.470000e-06	2.708106e-06	1.938734e-10	1.914385e+01	1.252750e+01
2.480000e-06	2.627217e-06	1.896065e-10	1.857204e+01	1.217544e+01
2.490000e-06	2.545621e-06	1.871420e-10	1.799523e+01	1.180127e+01
2.500000e-06	2.463366e-06	1.830250e-10	1.741376e+01	1.141601e+01
2.510000e-06	2.380372e-06	1.777950e-10	1.682708e+01	1.102893e+01
2.520000e-06	2.296771e-06	1.652734e-10	1.623609e+01	1.064497e+01
2.530000e-06	2.212702e-06	1.639561e-10	1.564179e+01	1.026578e+01
2.540000e-06	2.128045e-06	1.630620e-10	1.504335e+01	9.892532e+00
2.550000e-06	2.042517e-06	1.613993e-10	1.443875e+01	9.527440e+00
2.560000e-06	1.956013e-06	1.549732e-10	1.382724e+01	9.172566e+00
2.570000e-06	1.868764e-06	1.456799e-10	1.321047e+01	8.826562e+00
2.580000e-06	1.781012e-06	1.417691e-10	1.259014e+01	8.482032e+00
2.590000e-06	1.692903e-06	1.356545e-10	1.196729e+01	8.126293e+00
2.600000e-06	1.604405e-06	1.312803e-10	1.134169e+01	7.746345e+00
2.610000e-06	1.515501e-06	1.280319e-10	1.071322e+01	7.335983e+00
2.620000e-06	1.426198e-06	1.264372e-10	1.008193e+01	6.900905e+00
2.630000e-06	1.336489e-06	1.230211e-10	9.447764e+00	6.458103e+00
2.640000e-06	1.246486e-06	1.146830e-10	8.811525e+00	6.028696e+00
2.650000e-06	1.156255e-06	1.051897e-10	8.173676e+00	5.627354e+00
2.660000e-06	1.065767e-06	9.939045e-11	7.534005e+00	5.254039e+00
2.670000e-06	9.749801e-07	9.858692e-11	6.892226e+00	4.893200e+00
2.680000e-06	8.839439e-07	9.583102e-11	6.248682e+00	4.521729e+00
2.690000e-06	7.927788e-07	8.976637e-11	5.604228e+00	4.121891e+00
2.700000e-06	7.015080e-07	8.336197e-11	4.959026e+00	3.692093e+00
2.710000e-06	6.100476e-07	7.715809e-11	4.312484e+00	3.248972e+00
2.720000e-06	5.184266e-07	7.019960e-11	3.664807e+00	2.818877e+00
2.730000e-06	4.268049e-07	6.111685e-11	3.017124e+00	2.422977e+00
2.740000e-06	3.351769e-07	5.372542e-11	2.369397e+00	2.064312e+00
2.750000e-06	2.434970e-07	5.063788e-11	1.721303e+00	1.724518e+00
2.760000e-06	1.517325e-07	4.714695e-11	1.072611e+00	1.372743e+00
2.770000e-06	5.989390e-08	3.872044e-11	4.233956e-01	9.822248e-01
2.780000e-06	-3.189447e-08	2.919297e-11	-2.254650e-01	5.453082e-01
2.790000e-06	-1.235977e-07	2.157292e-11	-8.737240e-01	7.818926e-02
2.800000e-06	-2.152746e-07	1.325475e-11	-1.521796e+00	-3.875903e-01
2.810000e-06	-3.069620e-07	4.966731e-12	-2.169943e+00	-8.222578e-01
2.820000e-06	-3.985852e-07	-1.725624e-12	-2.817636e+00	-1.213796e+00
2.830000e-06	-4.901026e-07	-6.576472e-12	-3.464581e+00	-1.573656e+00
2.840000e-06	-5.815590e-07	-1.116402e-11	-4.111095e+00	-1.929076e+00
2.850000e-06	-6.729630e-07	-2.109330e-11	-4.757239e+00	-2.306781e+00
2.860000e-06	-7.642763e-07	-3.251749e-11	-5.402741e+00	-2.717898e+00
2.870000e-06	-8.554087e-07	-4.028301e-11	-6.046964e+00	-3.153008e+00
2.880000e-06	-9.462815e-07	-4.716502e-11	-6.689353e+00	-3.589931e+00
2.890000e-06	-1.036954e-06	-5.486125e-11	-7.330327e+00	-4.008952e+00
2.900000e-06	-1.127410e-06	-6.421865e-11	-7.969767e+00	-4.405671e+00
2.910000e-06	-1.217515e-06	-7.262076e-11	-8.606731e+00	-4.793287e+00
2.920000e-06	-1.307191e-06	-7.924963e-11	-9.240658e+00	-5.192956e+00
2.930000e-06	-1.396471e-06	-8.596132e-11	-9.871782e+00	-5.618629e+00
2.940000e-06	-1.485466e-06	-9.364300e-11	-1.050090e+01	-6.066509e+00
2.950000e-06	-1.574087e-06	-1.019333e-10	-1.112737e+01	-6.516446e+00
