# Temperatura_=_20.0
# Concentracion g/m^3_=_10000.0
# C_Vs_to_Am_M_A/Vsm_=_65563218390.804596
# pendiente_HvsI_1/m_=_3716.3
# ordenada_HvsI_A/m_=_1297.0
# frecuencia_Hz_=_269420.7602366052

Tiempo_(s)	Campo_(V.s)	Magnetizacion_(V.s)	Campo_(kA/m)	Magnetizacion_(A/m)
0.000000e+00	-5.400527e-06	-4.144350e-10	-3.828496e+01	-2.622706e+01
1.000000e-08	-5.398606e-06	-4.143761e-10	-3.827134e+01	-2.630484e+01
2.000000e-08	-5.395093e-06	-4.145805e-10	-3.824644e+01	-2.630743e+01
3.000000e-08	-5.390238e-06	-4.148575e-10	-3.821202e+01	-2.624333e+01
4.000000e-08	-5.384060e-06	-4.149764e-10	-3.816822e+01	-2.615079e+01
5.000000e-08	-5.376511e-06	-4.140551e-10	-3.811471e+01	-2.607362e+01
6.000000e-08	-5.367506e-06	-4.131734e-10	-3.805087e+01	-2.603514e+01
7.000000e-08	-5.356791e-06	-4.197318e-10	-3.797491e+01	-2.602594e+01
8.000000e-08	-5.344301e-06	-4.252321e-10	-3.788637e+01	-2.601257e+01
9.000000e-08	-5.329801e-06	-4.128500e-10	-3.778357e+01	-2.596124e+01
1.000000e-07	-5.313114e-06	-3.981648e-10	-3.766528e+01	-2.586111e+01
1.100000e-07	-5.294664e-06	-3.811553e-10	-3.753448e+01	-2.573191e+01
1.200000e-07	-5.275066e-06	-4.013920e-10	-3.739555e+01	-2.561058e+01
1.300000e-07	-5.254623e-06	-4.430194e-10	-3.725063e+01	-2.552510e+01
1.400000e-07	-5.233029e-06	-3.995041e-10	-3.709755e+01	-2.547266e+01
1.500000e-07	-5.210101e-06	-3.797834e-10	-3.693500e+01	-2.541761e+01
1.600000e-07	-5.186025e-06	-4.180610e-10	-3.676433e+01	-2.531227e+01
1.700000e-07	-5.160367e-06	-3.817107e-10	-3.658244e+01	-2.512919e+01
1.800000e-07	-5.132983e-06	-3.579169e-10	-3.638831e+01	-2.488455e+01
1.900000e-07	-5.104442e-06	-3.818807e-10	-3.618598e+01	-2.463649e+01
2.000000e-07	-5.074674e-06	-3.455291e-10	-3.597495e+01	-2.445618e+01
2.100000e-07	-5.043464e-06	-3.397796e-10	-3.575370e+01	-2.438671e+01
2.200000e-07	-5.010910e-06	-3.838260e-10	-3.552292e+01	-2.441357e+01
2.300000e-07	-4.976761e-06	-3.684932e-10	-3.528084e+01	-2.446550e+01
2.400000e-07	-4.941053e-06	-3.563798e-10	-3.502769e+01	-2.444803e+01
2.500000e-07	-4.904023e-06	-3.661553e-10	-3.476518e+01	-2.429269e+01
2.600000e-07	-4.865571e-06	-3.582513e-10	-3.449259e+01	-2.399493e+01
2.700000e-07	-4.825834e-06	-3.515043e-10	-3.421089e+01	-2.361887e+01
2.800000e-07	-4.784688e-06	-3.350607e-10	-3.391920e+01	-2.326488e+01
2.900000e-07	-4.741910e-06	-3.232056e-10	-3.361594e+01	-2.301690e+01
3.000000e-07	-4.697658e-06	-3.384047e-10	-3.330224e+01	-2.289813e+01
3.100000e-07	-4.651965e-06	-3.483432e-10	-3.297831e+01	-2.285931e+01
3.200000e-07	-4.604956e-06	-3.396466e-10	-3.264506e+01	-2.280608e+01
3.300000e-07	-4.556604e-06	-3.382516e-10	-3.230229e+01	-2.265005e+01
3.400000e-07	-4.506493e-06	-3.409077e-10	-3.194705e+01	-2.235565e+01
3.500000e-07	-4.454609e-06	-3.237145e-10	-3.157924e+01	-2.195727e+01
3.600000e-07	-4.401329e-06	-3.117022e-10	-3.120153e+01	-2.153844e+01
3.700000e-07	-4.346839e-06	-3.114254e-10	-3.081524e+01	-2.118549e+01
3.800000e-07	-4.291264e-06	-3.060529e-10	-3.042127e+01	-2.094177e+01
3.900000e-07	-4.234426e-06	-3.122472e-10	-3.001833e+01	-2.078725e+01
4.000000e-07	-4.176028e-06	-3.179618e-10	-2.960434e+01	-2.065302e+01
4.100000e-07	-4.116342e-06	-3.124407e-10	-2.918122e+01	-2.046117e+01
4.200000e-07	-4.055683e-06	-3.024246e-10	-2.875120e+01	-2.016701e+01
4.300000e-07	-3.993907e-06	-2.909911e-10	-2.831326e+01	-1.978110e+01
4.400000e-07	-3.930989e-06	-2.881306e-10	-2.786723e+01	-1.936068e+01
4.500000e-07	-3.867203e-06	-2.871345e-10	-2.741504e+01	-1.897763e+01
4.600000e-07	-3.802428e-06	-2.812996e-10	-2.695585e+01	-1.868153e+01
4.700000e-07	-3.736290e-06	-2.734966e-10	-2.648699e+01	-1.847743e+01
4.800000e-07	-3.668927e-06	-2.718237e-10	-2.600945e+01	-1.832795e+01
4.900000e-07	-3.600668e-06	-2.739409e-10	-2.552555e+01	-1.817533e+01
5.000000e-07	-3.531579e-06	-2.672920e-10	-2.503577e+01	-1.796943e+01
5.100000e-07	-3.461574e-06	-2.590427e-10	-2.453949e+01	-1.768678e+01
5.200000e-07	-3.390611e-06	-2.589494e-10	-2.403644e+01	-1.733319e+01
5.300000e-07	-3.318869e-06	-2.604845e-10	-2.352785e+01	-1.693258e+01
5.400000e-07	-3.246300e-06	-2.528005e-10	-2.301339e+01	-1.651163e+01
5.500000e-07	-3.172573e-06	-2.374786e-10	-2.249074e+01	-1.608949e+01
5.600000e-07	-3.097645e-06	-2.276086e-10	-2.195956e+01	-1.567631e+01
5.700000e-07	-3.021672e-06	-2.231442e-10	-2.142098e+01	-1.527752e+01
5.800000e-07	-2.944750e-06	-2.170323e-10	-2.087567e+01	-1.489751e+01
5.900000e-07	-2.867028e-06	-2.107517e-10	-2.032469e+01	-1.453838e+01
6.000000e-07	-2.788501e-06	-2.078856e-10	-1.976800e+01	-1.419478e+01
6.100000e-07	-2.708895e-06	-2.057621e-10	-1.920367e+01	-1.384999e+01
6.200000e-07	-2.628260e-06	-1.974515e-10	-1.863204e+01	-1.347872e+01
6.300000e-07	-2.546923e-06	-1.854097e-10	-1.805543e+01	-1.305762e+01
6.400000e-07	-2.464822e-06	-1.742342e-10	-1.747341e+01	-1.257885e+01
6.500000e-07	-2.381914e-06	-1.666566e-10	-1.688567e+01	-1.205843e+01
6.600000e-07	-2.298395e-06	-1.617580e-10	-1.629359e+01	-1.153312e+01
6.700000e-07	-2.214395e-06	-1.548350e-10	-1.569810e+01	-1.104539e+01
6.800000e-07	-2.129974e-06	-1.465477e-10	-1.509963e+01	-1.062335e+01
6.900000e-07	-2.044972e-06	-1.405546e-10	-1.449704e+01	-1.026581e+01
7.000000e-07	-1.959300e-06	-1.377113e-10	-1.388971e+01	-9.940877e+00
7.100000e-07	-1.873025e-06	-1.326142e-10	-1.327809e+01	-9.599534e+00
7.200000e-07	-1.786214e-06	-1.237954e-10	-1.266268e+01	-9.198042e+00
7.300000e-07	-1.698991e-06	-1.155868e-10	-1.204435e+01	-8.718307e+00
7.400000e-07	-1.611455e-06	-1.084976e-10	-1.142379e+01	-8.176403e+00
7.500000e-07	-1.523490e-06	-9.979631e-11	-1.080020e+01	-7.615327e+00
7.600000e-07	-1.435121e-06	-8.936920e-11	-1.017374e+01	-7.085618e+00
7.700000e-07	-1.346479e-06	-7.997350e-11	-9.545342e+00	-6.623043e+00
7.800000e-07	-1.257337e-06	-7.374073e-11	-8.913404e+00	-6.233402e+00
7.900000e-07	-1.167588e-06	-7.065875e-11	-8.277163e+00	-5.890831e+00
8.000000e-07	-1.077407e-06	-6.820712e-11	-7.637864e+00	-5.549756e+00
8.100000e-07	-9.869057e-07	-6.390781e-11	-6.996288e+00	-5.164859e+00
8.200000e-07	-8.960826e-07	-5.595418e-11	-6.352433e+00	-4.710440e+00
8.300000e-07	-8.049789e-07	-4.563859e-11	-5.706588e+00	-4.191225e+00
8.400000e-07	-7.136731e-07	-3.536409e-11	-5.059311e+00	-3.640403e+00
8.500000e-07	-6.222136e-07	-2.705808e-11	-4.410944e+00	-3.105831e+00
8.600000e-07	-5.306427e-07	-2.082932e-11	-3.761788e+00	-2.629963e+00
8.700000e-07	-4.389787e-07	-1.668301e-11	-3.111970e+00	-2.231683e+00
8.800000e-07	-3.472205e-07	-1.414396e-11	-2.461486e+00	-1.897678e+00
8.900000e-07	-2.554179e-07	-1.061695e-11	-1.810687e+00	-1.587440e+00
9.000000e-07	-1.636625e-07	-5.544873e-12	-1.160222e+00	-1.250383e+00
9.100000e-07	-7.193363e-08	1.525558e-12	-5.099458e-01	-8.481131e-01
9.200000e-07	1.983794e-08	8.078845e-12	1.406335e-01	-3.719829e-01
9.300000e-07	1.116303e-07	1.394766e-11	7.913599e-01	1.525709e-01
9.400000e-07	2.034015e-07	2.094799e-11	1.441937e+00	6.777283e-01
9.500000e-07	2.951408e-07	2.905003e-11	2.092287e+00	1.156237e+00
9.600000e-07	3.868576e-07	3.589075e-11	2.742478e+00	1.564858e+00
9.700000e-07	4.785410e-07	3.985864e-11	3.392432e+00	1.916575e+00
9.800000e-07	5.701436e-07	4.393268e-11	4.041814e+00	2.254893e+00
9.900000e-07	6.616126e-07	4.915371e-11	4.690248e+00	2.632466e+00
1.000000e-06	7.529412e-07	5.339360e-11	5.337687e+00	3.084598e+00
1.010000e-06	8.441202e-07	5.765579e-11	5.984066e+00	3.611236e+00
1.020000e-06	9.351014e-07	6.647155e-11	6.629042e+00	4.176974e+00
1.030000e-06	1.025828e-06	7.641531e-11	7.272211e+00	4.729159e+00
1.040000e-06	1.116187e-06	8.405955e-11	7.912779e+00	5.224519e+00
1.050000e-06	1.206100e-06	8.818989e-11	8.550179e+00	5.650061e+00
1.060000e-06	1.295492e-06	9.222963e-11	9.183889e+00	6.027260e+00
1.070000e-06	1.384355e-06	9.699170e-11	9.813854e+00	6.397824e+00
1.080000e-06	1.472784e-06	1.018407e-10	1.044074e+01	6.799578e+00
1.090000e-06	1.560784e-06	1.086036e-10	1.106458e+01	7.246334e+00
1.100000e-06	1.648395e-06	1.155341e-10	1.168566e+01	7.722914e+00
1.110000e-06	1.735656e-06	1.235154e-10	1.230427e+01	8.197447e+00
1.120000e-06	1.822498e-06	1.324723e-10	1.291990e+01	8.642889e+00
1.130000e-06	1.908814e-06	1.385302e-10	1.353180e+01	9.054464e+00
1.140000e-06	1.994596e-06	1.424208e-10	1.413992e+01	9.452416e+00
1.150000e-06	2.079868e-06	1.488357e-10	1.474442e+01	9.868511e+00
1.160000e-06	2.164550e-06	1.571636e-10	1.534474e+01	1.032463e+01
1.170000e-06	2.248624e-06	1.652724e-10	1.594076e+01	1.081676e+01
1.180000e-06	2.332187e-06	1.724531e-10	1.653314e+01	1.131442e+01
1.190000e-06	2.415179e-06	1.784584e-10	1.712148e+01	1.177665e+01
1.200000e-06	2.497349e-06	1.834155e-10	1.770400e+01	1.217538e+01
1.210000e-06	2.578585e-06	1.883457e-10	1.827989e+01	1.251271e+01
1.220000e-06	2.659002e-06	1.939544e-10	1.884997e+01	1.282168e+01
1.230000e-06	2.738708e-06	2.000721e-10	1.941502e+01	1.314973e+01
1.240000e-06	2.817621e-06	2.067265e-10	1.997444e+01	1.353368e+01
1.250000e-06	2.895685e-06	2.140011e-10	2.052785e+01	1.398014e+01
1.260000e-06	2.972959e-06	2.225474e-10	2.107565e+01	1.446180e+01
1.270000e-06	3.049469e-06	2.300389e-10	2.161803e+01	1.493166e+01
1.280000e-06	3.125201e-06	2.357718e-10	2.215491e+01	1.534693e+01
1.290000e-06	3.200009e-06	2.405715e-10	2.268523e+01	1.569013e+01
1.300000e-06	3.273577e-06	2.447607e-10	2.320677e+01	1.597644e+01
1.310000e-06	3.345909e-06	2.490470e-10	2.371954e+01	1.624455e+01
1.320000e-06	3.417369e-06	2.529020e-10	2.422613e+01	1.653661e+01
1.330000e-06	3.488001e-06	2.584997e-10	2.472684e+01	1.687819e+01
1.340000e-06	3.557656e-06	2.646103e-10	2.522063e+01	1.726755e+01
1.350000e-06	3.626357e-06	2.714025e-10	2.570766e+01	1.767848e+01
1.360000e-06	3.694198e-06	2.775020e-10	2.618860e+01	1.807351e+01
1.370000e-06	3.761113e-06	2.808791e-10	2.666296e+01	1.842039e+01
1.380000e-06	3.826796e-06	2.826177e-10	2.712860e+01	1.870448e+01
1.390000e-06	3.891176e-06	2.838002e-10	2.758499e+01	1.893292e+01
1.400000e-06	3.954556e-06	2.861936e-10	2.803430e+01	1.913066e+01
1.410000e-06	4.016968e-06	2.905721e-10	2.847675e+01	1.933112e+01
1.420000e-06	4.078350e-06	2.956988e-10	2.891190e+01	1.956516e+01
1.430000e-06	4.138752e-06	3.007155e-10	2.934009e+01	1.985135e+01
1.440000e-06	4.198163e-06	3.052030e-10	2.976126e+01	2.018951e+01
1.450000e-06	4.256286e-06	3.094992e-10	3.017330e+01	2.055948e+01
1.460000e-06	4.312859e-06	3.136498e-10	3.057436e+01	2.092617e+01
1.470000e-06	4.368175e-06	3.165619e-10	3.096650e+01	2.125062e+01
1.480000e-06	4.422331e-06	3.182159e-10	3.135041e+01	2.150459e+01
1.490000e-06	4.475213e-06	3.207688e-10	3.172530e+01	2.168306e+01
1.500000e-06	4.526679e-06	3.247380e-10	3.209015e+01	2.180898e+01
1.510000e-06	4.576445e-06	3.272988e-10	3.244295e+01	2.192623e+01
1.520000e-06	4.624586e-06	3.282660e-10	3.278422e+01	2.208250e+01
1.530000e-06	4.671378e-06	3.294748e-10	3.311593e+01	2.230862e+01
1.540000e-06	4.716868e-06	3.322466e-10	3.343842e+01	2.260407e+01
1.550000e-06	4.761145e-06	3.355421e-10	3.375231e+01	2.293600e+01
1.560000e-06	4.804194e-06	3.392809e-10	3.405749e+01	2.325302e+01
1.570000e-06	4.845714e-06	3.439308e-10	3.435183e+01	2.350763e+01
1.580000e-06	4.885682e-06	3.481450e-10	3.463516e+01	2.367675e+01
1.590000e-06	4.924307e-06	3.498403e-10	3.490898e+01	2.377073e+01
1.600000e-06	4.961655e-06	3.492693e-10	3.517375e+01	2.382713e+01
1.610000e-06	4.997795e-06	3.482941e-10	3.542994e+01	2.389296e+01
1.620000e-06	5.032581e-06	3.478655e-10	3.567655e+01	2.400470e+01
1.630000e-06	5.065725e-06	3.491071e-10	3.591151e+01	2.417509e+01
1.640000e-06	5.097398e-06	3.515790e-10	3.613604e+01	2.439165e+01
1.650000e-06	5.127794e-06	3.557371e-10	3.635153e+01	2.462532e+01
1.660000e-06	5.156882e-06	3.608929e-10	3.655773e+01	2.484352e+01
1.670000e-06	5.184718e-06	3.642615e-10	3.675507e+01	2.502118e+01
1.680000e-06	5.211013e-06	3.646934e-10	3.694147e+01	2.514645e+01
1.690000e-06	5.235572e-06	3.641653e-10	3.711557e+01	2.522139e+01
1.700000e-06	5.258655e-06	3.638223e-10	3.727921e+01	2.525998e+01
1.710000e-06	5.280380e-06	3.637944e-10	3.743323e+01	2.528511e+01
1.720000e-06	5.300830e-06	3.649351e-10	3.757819e+01	2.532425e+01
1.730000e-06	5.319984e-06	3.662872e-10	3.771398e+01	2.540261e+01
1.740000e-06	5.337545e-06	3.684267e-10	3.783847e+01	2.553376e+01
1.750000e-06	5.353467e-06	3.725939e-10	3.795135e+01	2.571118e+01
1.760000e-06	5.367854e-06	3.775144e-10	3.805334e+01	2.590580e+01
1.770000e-06	5.380711e-06	3.820597e-10	3.814448e+01	2.607385e+01
1.780000e-06	5.391933e-06	3.846737e-10	3.822403e+01	2.617412e+01
1.790000e-06	5.401309e-06	3.841594e-10	3.829050e+01	2.618772e+01
1.800000e-06	5.409030e-06	3.824838e-10	3.834524e+01	2.612993e+01
1.810000e-06	5.415307e-06	3.801240e-10	3.838974e+01	2.604630e+01
1.820000e-06	5.420125e-06	3.768095e-10	3.842389e+01	2.599283e+01
1.830000e-06	5.423474e-06	3.764265e-10	3.844763e+01	2.600908e+01
1.840000e-06	5.425160e-06	3.799867e-10	3.845958e+01	2.609827e+01
1.850000e-06	5.425219e-06	3.846261e-10	3.846000e+01	2.622560e+01
1.860000e-06	5.423848e-06	3.888609e-10	3.845028e+01	2.633643e+01
1.870000e-06	5.421102e-06	3.909735e-10	3.843081e+01	2.638486e+01
1.880000e-06	5.417134e-06	3.896575e-10	3.840269e+01	2.635704e+01
1.890000e-06	5.411767e-06	3.862736e-10	3.836464e+01	2.627599e+01
1.900000e-06	5.404705e-06	3.830807e-10	3.831458e+01	2.618573e+01
1.910000e-06	5.396163e-06	3.807844e-10	3.825402e+01	2.612421e+01
1.920000e-06	5.386316e-06	3.736759e-10	3.818421e+01	2.610140e+01
1.930000e-06	5.375094e-06	3.703947e-10	3.810466e+01	2.609569e+01
1.940000e-06	5.362067e-06	3.851760e-10	3.801231e+01	2.607024e+01
1.950000e-06	5.346584e-06	3.951517e-10	3.790255e+01	2.599859e+01
1.960000e-06	5.328694e-06	4.041047e-10	3.777573e+01	2.588297e+01
1.970000e-06	5.309361e-06	3.716810e-10	3.763867e+01	2.575297e+01
1.980000e-06	5.289554e-06	3.551709e-10	3.749826e+01	2.564514e+01
1.990000e-06	5.269108e-06	4.012027e-10	3.735332e+01	2.557641e+01
2.000000e-06	5.246977e-06	3.748795e-10	3.719643e+01	2.552912e+01
2.010000e-06	5.223231e-06	3.490063e-10	3.702809e+01	2.545901e+01
2.020000e-06	5.198431e-06	3.933817e-10	3.685228e+01	2.532294e+01
2.030000e-06	5.172093e-06	3.852906e-10	3.666557e+01	2.511000e+01
2.040000e-06	5.144268e-06	3.717858e-10	3.646831e+01	2.485575e+01
2.050000e-06	5.115209e-06	4.147006e-10	3.626231e+01	2.462848e+01
2.060000e-06	5.084405e-06	3.866290e-10	3.604393e+01	2.449256e+01
2.070000e-06	5.052036e-06	3.566109e-10	3.581447e+01	2.446919e+01
2.080000e-06	5.018455e-06	3.888610e-10	3.557640e+01	2.451806e+01
2.090000e-06	4.983460e-06	3.845427e-10	3.532832e+01	2.455272e+01
2.100000e-06	4.947284e-06	3.754033e-10	3.507187e+01	2.448355e+01
2.110000e-06	4.909666e-06	3.671637e-10	3.480519e+01	2.426567e+01
2.120000e-06	4.870232e-06	3.653554e-10	3.452564e+01	2.392486e+01
2.130000e-06	4.829403e-06	3.852664e-10	3.423619e+01	2.354603e+01
2.140000e-06	4.787209e-06	3.682474e-10	3.393707e+01	2.322929e+01
2.150000e-06	4.743757e-06	3.560836e-10	3.362904e+01	2.303719e+01
2.160000e-06	4.699144e-06	3.656315e-10	3.331277e+01	2.296183e+01
2.170000e-06	4.652911e-06	3.544215e-10	3.298502e+01	2.292992e+01
2.180000e-06	4.605154e-06	3.503252e-10	3.264647e+01	2.284292e+01
2.190000e-06	4.556121e-06	3.438424e-10	3.229887e+01	2.263003e+01
2.200000e-06	4.505741e-06	3.485468e-10	3.194172e+01	2.228498e+01
2.210000e-06	4.454018e-06	3.479961e-10	3.157505e+01	2.186711e+01
2.220000e-06	4.400721e-06	3.320084e-10	3.119722e+01	2.146738e+01
2.230000e-06	4.345786e-06	3.364925e-10	3.080778e+01	2.115876e+01
2.240000e-06	4.289455e-06	3.281828e-10	3.040844e+01	2.095867e+01
2.250000e-06	4.231963e-06	3.190703e-10	3.000087e+01	2.082307e+01
2.260000e-06	4.173431e-06	3.074142e-10	2.958594e+01	2.067375e+01
2.270000e-06	4.113892e-06	3.044801e-10	2.916386e+01	2.044223e+01
2.280000e-06	4.053281e-06	3.190617e-10	2.873417e+01	2.010588e+01
2.290000e-06	3.991224e-06	3.028084e-10	2.829425e+01	1.969743e+01
2.300000e-06	3.927798e-06	2.893084e-10	2.784461e+01	1.928490e+01
2.310000e-06	3.863383e-06	2.842424e-10	2.738797e+01	1.893489e+01
2.320000e-06	3.797978e-06	2.833186e-10	2.692430e+01	1.867979e+01
2.330000e-06	3.731566e-06	2.837683e-10	2.645350e+01	1.850533e+01
2.340000e-06	3.664232e-06	2.724158e-10	2.597616e+01	1.836225e+01
2.350000e-06	3.596023e-06	2.838341e-10	2.549262e+01	1.819278e+01
2.360000e-06	3.526699e-06	2.819458e-10	2.500118e+01	1.795647e+01
2.370000e-06	3.456040e-06	2.615817e-10	2.450026e+01	1.764270e+01
2.380000e-06	3.384363e-06	2.481488e-10	2.399214e+01	1.726665e+01
2.390000e-06	3.311888e-06	2.431217e-10	2.347835e+01	1.685514e+01
2.400000e-06	3.238618e-06	2.500648e-10	2.295894e+01	1.643247e+01
2.410000e-06	3.164512e-06	2.431317e-10	2.243359e+01	1.601374e+01
2.420000e-06	3.089464e-06	2.389390e-10	2.190157e+01	1.560653e+01
2.430000e-06	3.013448e-06	2.374884e-10	2.136268e+01	1.521560e+01
2.440000e-06	2.936375e-06	2.274571e-10	2.081630e+01	1.484485e+01
2.450000e-06	2.858182e-06	2.168658e-10	2.026198e+01	1.449399e+01
2.460000e-06	2.778974e-06	2.062736e-10	1.970047e+01	1.415310e+01
2.470000e-06	2.699003e-06	2.058112e-10	1.913354e+01	1.380108e+01
2.480000e-06	2.618320e-06	2.041326e-10	1.856157e+01	1.341181e+01
2.490000e-06	2.536950e-06	2.011365e-10	1.798473e+01	1.296687e+01
2.500000e-06	2.454903e-06	1.971076e-10	1.740309e+01	1.246792e+01
2.510000e-06	2.372102e-06	1.881239e-10	1.681611e+01	1.194076e+01
2.520000e-06	2.288656e-06	1.807948e-10	1.622454e+01	1.142684e+01
2.530000e-06	2.204752e-06	1.751594e-10	1.562974e+01	1.096506e+01
2.540000e-06	2.120408e-06	1.707787e-10	1.503182e+01	1.057247e+01
2.550000e-06	2.035277e-06	1.632979e-10	1.442831e+01	1.023435e+01
2.560000e-06	1.949149e-06	1.576814e-10	1.381774e+01	9.909302e+00
2.570000e-06	1.862260e-06	1.543385e-10	1.320178e+01	9.547637e+00
2.580000e-06	1.774765e-06	1.477789e-10	1.258151e+01	9.114330e+00
2.590000e-06	1.686782e-06	1.380317e-10	1.195779e+01	8.605388e+00
2.600000e-06	1.598442e-06	1.318531e-10	1.133154e+01	8.049841e+00
2.610000e-06	1.509783e-06	1.317550e-10	1.070302e+01	7.496595e+00
2.620000e-06	1.420794e-06	1.290587e-10	1.007217e+01	6.992545e+00
2.630000e-06	1.331454e-06	1.211714e-10	9.438829e+00	6.562124e+00
2.640000e-06	1.241728e-06	1.098789e-10	8.802754e+00	6.197294e+00
2.650000e-06	1.151718e-06	1.011257e-10	8.164660e+00	5.861886e+00
2.660000e-06	1.061484e-06	9.685865e-11	7.524981e+00	5.507837e+00
2.670000e-06	9.709375e-07	9.258861e-11	6.883088e+00	5.095991e+00
2.680000e-06	8.801535e-07	8.828858e-11	6.239510e+00	4.612701e+00
2.690000e-06	7.892186e-07	8.267286e-11	5.594862e+00	4.075551e+00
2.700000e-06	6.981499e-07	7.597358e-11	4.949265e+00	3.526045e+00
2.710000e-06	6.069243e-07	6.925214e-11	4.302556e+00	3.012314e+00
2.720000e-06	5.155777e-07	6.198420e-11	3.654990e+00	2.568800e+00
2.730000e-06	4.241881e-07	5.448265e-11	3.007118e+00	2.201274e+00
2.740000e-06	3.327674e-07	4.779908e-11	2.359027e+00	1.883690e+00
2.750000e-06	2.412963e-07	4.327748e-11	1.710577e+00	1.568754e+00
2.760000e-06	1.497478e-07	3.732911e-11	1.061579e+00	1.208295e+00
2.770000e-06	5.816321e-08	2.799408e-11	4.123257e-01	7.747903e-01
2.780000e-06	-3.337855e-08	2.048332e-11	-2.366244e-01	2.742051e-01
2.790000e-06	-1.248815e-07	1.483223e-11	-8.852990e-01	-2.564386e-01
2.800000e-06	-2.163992e-07	7.904710e-12	-1.534079e+00	-7.664555e-01
2.810000e-06	-3.079075e-07	-9.343279e-14	-2.182792e+00	-1.216157e+00
2.820000e-06	-3.993219e-07	-7.534612e-12	-2.830839e+00	-1.596877e+00
2.830000e-06	-4.906461e-07	-1.321383e-11	-3.478247e+00	-1.936067e+00
2.840000e-06	-5.819140e-07	-2.071669e-11	-4.125255e+00	-2.284240e+00
2.850000e-06	-6.730844e-07	-3.204678e-11	-4.771573e+00	-2.689853e+00
2.860000e-06	-7.641434e-07	-4.207977e-11	-5.417101e+00	-3.174761e+00
2.870000e-06	-8.550081e-07	-4.894293e-11	-6.061251e+00	-3.723025e+00
2.880000e-06	-9.455680e-07	-5.621791e-11	-6.703241e+00	-4.289059e+00
2.890000e-06	-1.035891e-06	-6.433854e-11	-7.343549e+00	-4.820888e+00
2.900000e-06	-1.126038e-06	-7.265544e-11	-7.982612e+00	-5.286106e+00
2.910000e-06	-1.215878e-06	-8.083614e-11	-8.619500e+00	-5.686715e+00
2.920000e-06	-1.305303e-06	-8.961518e-11	-9.253442e+00	-6.055205e+00
2.930000e-06	-1.394379e-06	-9.837430e-11	-9.884913e+00	-6.434692e+00
2.940000e-06	-1.483206e-06	-1.057875e-10	-1.051462e+01	-6.854748e+00
2.950000e-06	-1.571698e-06	-1.124317e-10	-1.114195e+01	-7.316644e+00
