# Temperatura_=_20.0
# Concentracion g/m^3_=_10000.0
# C_Vs_to_Am_M_A/Vsm_=_65563218390.804596
# pendiente_HvsI_1/m_=_3716.3
# ordenada_HvsI_A/m_=_1297.0
# frecuencia_Hz_=_212866.47198668332

Tiempo_(s)	Campo_(V.s)	Magnetizacion_(V.s)	Campo_(kA/m)	Magnetizacion_(A/m)
0.000000e+00	-4.400734e-06	-8.729278e-09	-3.099417e+01	-5.689690e+02
1.000000e-08	-4.400525e-06	-8.730164e-09	-3.099269e+01	-5.689754e+02
2.000000e-08	-4.399520e-06	-8.732598e-09	-3.098562e+01	-5.689888e+02
3.000000e-08	-4.397756e-06	-8.735424e-09	-3.097320e+01	-5.690040e+02
4.000000e-08	-4.395301e-06	-8.737381e-09	-3.095590e+01	-5.689968e+02
5.000000e-08	-4.392146e-06	-8.738359e-09	-3.093368e+01	-5.689305e+02
6.000000e-08	-4.388190e-06	-8.735145e-09	-3.090582e+01	-5.687687e+02
7.000000e-08	-4.383374e-06	-8.724839e-09	-3.087190e+01	-5.684887e+02
8.000000e-08	-4.377750e-06	-8.706092e-09	-3.083229e+01	-5.680918e+02
9.000000e-08	-4.371183e-06	-8.710424e-09	-3.078604e+01	-5.676071e+02
1.000000e-07	-4.363637e-06	-8.734809e-09	-3.073289e+01	-5.670856e+02
1.100000e-07	-4.355254e-06	-8.733715e-09	-3.067385e+01	-5.665873e+02
1.200000e-07	-4.346272e-06	-8.647227e-09	-3.061060e+01	-5.661639e+02
1.300000e-07	-4.336815e-06	-8.639256e-09	-3.054398e+01	-5.658435e+02
1.400000e-07	-4.326598e-06	-8.722770e-09	-3.047203e+01	-5.656216e+02
1.500000e-07	-4.315513e-06	-8.695710e-09	-3.039396e+01	-5.654614e+02
1.600000e-07	-4.303913e-06	-8.607893e-09	-3.031226e+01	-5.653032e+02
1.700000e-07	-4.291660e-06	-8.640125e-09	-3.022596e+01	-5.650806e+02
1.800000e-07	-4.278317e-06	-8.697649e-09	-3.013199e+01	-5.647368e+02
1.900000e-07	-4.264220e-06	-8.566046e-09	-3.003271e+01	-5.642384e+02
2.000000e-07	-4.249719e-06	-8.568109e-09	-2.993058e+01	-5.635801e+02
2.100000e-07	-4.234471e-06	-8.632153e-09	-2.982319e+01	-5.627816e+02
2.200000e-07	-4.218357e-06	-8.527371e-09	-2.970970e+01	-5.618774e+02
2.300000e-07	-4.201510e-06	-8.529969e-09	-2.959104e+01	-5.609039e+02
2.400000e-07	-4.183816e-06	-8.611888e-09	-2.946642e+01	-5.598883e+02
2.500000e-07	-4.165391e-06	-8.552631e-09	-2.933666e+01	-5.588421e+02
2.600000e-07	-4.146267e-06	-8.468440e-09	-2.920197e+01	-5.577620e+02
2.700000e-07	-4.126143e-06	-8.520522e-09	-2.906024e+01	-5.566349e+02
2.800000e-07	-4.105083e-06	-8.500583e-09	-2.891191e+01	-5.554457e+02
2.900000e-07	-4.083340e-06	-8.452594e-09	-2.875878e+01	-5.541843e+02
3.000000e-07	-4.060774e-06	-8.458980e-09	-2.859984e+01	-5.528487e+02
3.100000e-07	-4.037337e-06	-8.403505e-09	-2.843478e+01	-5.514434e+02
3.200000e-07	-4.013276e-06	-8.406329e-09	-2.826531e+01	-5.499758e+02
3.300000e-07	-3.988554e-06	-8.396459e-09	-2.809120e+01	-5.484506e+02
3.400000e-07	-3.963093e-06	-8.316871e-09	-2.791188e+01	-5.468673e+02
3.500000e-07	-3.936909e-06	-8.296214e-09	-2.772747e+01	-5.452197e+02
3.600000e-07	-3.909947e-06	-8.290152e-09	-2.753758e+01	-5.435002e+02
3.700000e-07	-3.882267e-06	-8.260909e-09	-2.734263e+01	-5.417041e+02
3.800000e-07	-3.853931e-06	-8.228229e-09	-2.714306e+01	-5.398340e+02
3.900000e-07	-3.824903e-06	-8.200518e-09	-2.693862e+01	-5.379013e+02
4.000000e-07	-3.795113e-06	-8.159988e-09	-2.672881e+01	-5.359228e+02
4.100000e-07	-3.764569e-06	-8.136647e-09	-2.651369e+01	-5.339156e+02
4.200000e-07	-3.733297e-06	-8.126862e-09	-2.629344e+01	-5.318904e+02
4.300000e-07	-3.701253e-06	-8.065365e-09	-2.606776e+01	-5.298477e+02
4.400000e-07	-3.668517e-06	-8.030474e-09	-2.583720e+01	-5.277765e+02
4.500000e-07	-3.635234e-06	-8.010371e-09	-2.560278e+01	-5.256591e+02
4.600000e-07	-3.601439e-06	-7.980313e-09	-2.536477e+01	-5.234773e+02
4.700000e-07	-3.567052e-06	-7.951158e-09	-2.512258e+01	-5.212201e+02
4.800000e-07	-3.532038e-06	-7.899386e-09	-2.487598e+01	-5.188873e+02
4.900000e-07	-3.496444e-06	-7.869931e-09	-2.462529e+01	-5.164905e+02
5.000000e-07	-3.460246e-06	-7.840066e-09	-2.437035e+01	-5.140471e+02
5.100000e-07	-3.423434e-06	-7.801566e-09	-2.411109e+01	-5.115735e+02
5.200000e-07	-3.386009e-06	-7.752001e-09	-2.384750e+01	-5.090769e+02
5.300000e-07	-3.348011e-06	-7.704180e-09	-2.357989e+01	-5.065510e+02
5.400000e-07	-3.309497e-06	-7.685169e-09	-2.330864e+01	-5.039770e+02
5.500000e-07	-3.270377e-06	-7.647956e-09	-2.303311e+01	-5.013286e+02
5.600000e-07	-3.230606e-06	-7.602819e-09	-2.275301e+01	-4.985813e+02
5.700000e-07	-3.190282e-06	-7.553470e-09	-2.246901e+01	-4.957203e+02
5.800000e-07	-3.149443e-06	-7.506108e-09	-2.218138e+01	-4.927458e+02
5.900000e-07	-3.108093e-06	-7.470856e-09	-2.189015e+01	-4.896726e+02
6.000000e-07	-3.066189e-06	-7.411610e-09	-2.159503e+01	-4.865245e+02
6.100000e-07	-3.023645e-06	-7.358349e-09	-2.129539e+01	-4.833256e+02
6.200000e-07	-2.980514e-06	-7.313180e-09	-2.099162e+01	-4.800922e+02
6.300000e-07	-2.936875e-06	-7.270494e-09	-2.068427e+01	-4.768274e+02
6.400000e-07	-2.892745e-06	-7.224495e-09	-2.037347e+01	-4.735212e+02
6.500000e-07	-2.848107e-06	-7.159730e-09	-2.005909e+01	-4.701553e+02
6.600000e-07	-2.802936e-06	-7.107778e-09	-1.974095e+01	-4.667103e+02
6.700000e-07	-2.757157e-06	-7.056730e-09	-1.941853e+01	-4.631736e+02
6.800000e-07	-2.710744e-06	-7.009206e-09	-1.909165e+01	-4.595428e+02
6.900000e-07	-2.663804e-06	-6.952883e-09	-1.876105e+01	-4.558256e+02
7.000000e-07	-2.616414e-06	-6.883629e-09	-1.842728e+01	-4.520350e+02
7.100000e-07	-2.568610e-06	-6.831680e-09	-1.809060e+01	-4.481825e+02
7.200000e-07	-2.520350e-06	-6.776606e-09	-1.775071e+01	-4.442720e+02
7.300000e-07	-2.471538e-06	-6.715888e-09	-1.740693e+01	-4.402975e+02
7.400000e-07	-2.422213e-06	-6.647088e-09	-1.705953e+01	-4.362444e+02
7.500000e-07	-2.372470e-06	-6.582700e-09	-1.670919e+01	-4.320951e+02
7.600000e-07	-2.322326e-06	-6.530958e-09	-1.635604e+01	-4.278355e+02
7.700000e-07	-2.271790e-06	-6.464496e-09	-1.600011e+01	-4.234603e+02
7.800000e-07	-2.220913e-06	-6.392964e-09	-1.564179e+01	-4.189745e+02
7.900000e-07	-2.169704e-06	-6.317466e-09	-1.528112e+01	-4.143908e+02
8.000000e-07	-2.118069e-06	-6.244138e-09	-1.491746e+01	-4.097241e+02
8.100000e-07	-2.066000e-06	-6.173743e-09	-1.455074e+01	-4.049851e+02
8.200000e-07	-2.013549e-06	-6.094530e-09	-1.418133e+01	-4.001754e+02
8.300000e-07	-1.960749e-06	-6.021561e-09	-1.380946e+01	-3.952875e+02
8.400000e-07	-1.907650e-06	-5.949590e-09	-1.343549e+01	-3.903072e+02
8.500000e-07	-1.854284e-06	-5.879930e-09	-1.305964e+01	-3.852203e+02
8.600000e-07	-1.800619e-06	-5.804383e-09	-1.268168e+01	-3.800178e+02
8.700000e-07	-1.746675e-06	-5.715789e-09	-1.230175e+01	-3.747000e+02
8.800000e-07	-1.692474e-06	-5.628138e-09	-1.192002e+01	-3.692755e+02
8.900000e-07	-1.637977e-06	-5.538441e-09	-1.153620e+01	-3.637572e+02
9.000000e-07	-1.583154e-06	-5.452897e-09	-1.115008e+01	-3.581564e+02
9.100000e-07	-1.527990e-06	-5.366158e-09	-1.076156e+01	-3.524766e+02
9.200000e-07	-1.472504e-06	-5.279234e-09	-1.037078e+01	-3.467113e+02
9.300000e-07	-1.416724e-06	-5.197221e-09	-9.977923e+00	-3.408455e+02
9.400000e-07	-1.360683e-06	-5.109166e-09	-9.583224e+00	-3.348607e+02
9.500000e-07	-1.304380e-06	-5.016584e-09	-9.186685e+00	-3.287413e+02
9.600000e-07	-1.247824e-06	-4.913216e-09	-8.788367e+00	-3.224806e+02
9.700000e-07	-1.191010e-06	-4.808382e-09	-8.388230e+00	-3.160816e+02
9.800000e-07	-1.133945e-06	-4.706851e-09	-7.986320e+00	-3.095553e+02
9.900000e-07	-1.076664e-06	-4.601600e-09	-7.582892e+00	-3.029146e+02
1.000000e-06	-1.019144e-06	-4.500124e-09	-7.177787e+00	-2.961672e+02
1.010000e-06	-9.614021e-07	-4.399088e-09	-6.771111e+00	-2.893108e+02
1.020000e-06	-9.034762e-07	-4.299705e-09	-6.363141e+00	-2.823324e+02
1.030000e-06	-8.453848e-07	-4.192086e-09	-5.954006e+00	-2.752117e+02
1.040000e-06	-7.871515e-07	-4.072163e-09	-5.543872e+00	-2.679282e+02
1.050000e-06	-7.287517e-07	-3.952315e-09	-5.132564e+00	-2.604685e+02
1.060000e-06	-6.702024e-07	-3.831349e-09	-4.720204e+00	-2.528313e+02
1.070000e-06	-6.115733e-07	-3.711789e-09	-4.307282e+00	-2.450281e+02
1.080000e-06	-5.528504e-07	-3.589572e-09	-3.893700e+00	-2.370780e+02
1.090000e-06	-4.940382e-07	-3.467212e-09	-3.479488e+00	-2.290004e+02
1.100000e-06	-4.351449e-07	-3.347274e-09	-3.064706e+00	-2.208067e+02
1.110000e-06	-3.761822e-07	-3.222258e-09	-2.649434e+00	-2.124944e+02
1.120000e-06	-3.171693e-07	-3.094838e-09	-2.233809e+00	-2.040471e+02
1.130000e-06	-2.581064e-07	-2.959925e-09	-1.817831e+00	-1.954391e+02
1.140000e-06	-1.990154e-07	-2.819801e-09	-1.401656e+00	-1.866436e+02
1.150000e-06	-1.399161e-07	-2.678679e-09	-9.854229e-01	-1.776413e+02
1.160000e-06	-8.081393e-08	-2.534913e-09	-5.691688e-01	-1.684272e+02
1.170000e-06	-2.170223e-08	-2.392009e-09	-1.528478e-01	-1.590106e+02
1.180000e-06	3.740217e-08	-2.245889e-09	2.634218e-01	-1.494118e+02
1.190000e-06	9.648384e-08	-2.099005e-09	6.795313e-01	-1.396538e+02
1.200000e-06	1.555386e-07	-1.951140e-09	1.095451e+00	-1.297538e+02
1.210000e-06	2.145604e-07	-1.797807e-09	1.511139e+00	-1.197167e+02
1.220000e-06	2.735505e-07	-1.639833e-09	1.926604e+00	-1.095337e+02
1.230000e-06	3.324976e-07	-1.476852e-09	2.341765e+00	-9.918492e+01
1.240000e-06	3.913739e-07	-1.314008e-09	2.756429e+00	-8.864654e+01
1.250000e-06	4.501815e-07	-1.148863e-09	3.170607e+00	-7.789828e+01
1.260000e-06	5.089224e-07	-9.795233e-10	3.584317e+00	-6.692947e+01
1.270000e-06	5.675829e-07	-8.083147e-10	3.997460e+00	-5.574152e+01
1.280000e-06	6.261225e-07	-6.327527e-10	4.409752e+00	-4.434631e+01
1.290000e-06	6.845334e-07	-4.566166e-10	4.821137e+00	-3.276187e+01
1.300000e-06	7.427868e-07	-2.763023e-10	5.231413e+00	-2.100707e+01
1.310000e-06	8.008732e-07	-9.149241e-11	5.640513e+00	-9.097678e+00
1.320000e-06	8.588357e-07	9.377318e-11	6.048741e+00	2.955164e+00
1.330000e-06	9.166479e-07	2.800345e-10	6.455909e+00	1.514371e+01
1.340000e-06	9.743016e-07	4.676106e-10	6.861961e+00	2.746084e+01
1.350000e-06	1.031806e-06	6.613005e-10	7.266961e+00	3.989711e+01
1.360000e-06	1.089118e-06	8.567888e-10	7.670605e+00	5.243930e+01
1.370000e-06	1.146185e-06	1.051447e-09	8.072529e+00	6.507062e+01
1.380000e-06	1.203022e-06	1.245550e-09	8.472825e+00	7.777259e+01
1.390000e-06	1.259657e-06	1.438273e-09	8.871708e+00	9.052705e+01
1.400000e-06	1.316091e-06	1.632097e-09	9.269166e+00	1.033173e+02
1.410000e-06	1.372313e-06	1.825906e-09	9.665135e+00	1.161272e+02
1.420000e-06	1.428320e-06	2.022053e-09	1.005959e+01	1.289393e+02
1.430000e-06	1.484072e-06	2.221001e-09	1.045225e+01	1.417314e+02
1.440000e-06	1.539531e-06	2.419520e-09	1.084285e+01	1.544751e+02
1.450000e-06	1.594643e-06	2.615242e-09	1.123100e+01	1.671360e+02
1.460000e-06	1.649368e-06	2.804607e-09	1.161642e+01	1.796765e+02
1.470000e-06	1.703753e-06	2.989298e-09	1.199945e+01	1.920608e+02
1.480000e-06	1.757846e-06	3.169640e-09	1.238043e+01	2.042601e+02
1.490000e-06	1.811673e-06	3.347219e-09	1.275953e+01	2.162552e+02
1.500000e-06	1.865215e-06	3.525593e-09	1.313663e+01	2.280373e+02
1.510000e-06	1.918433e-06	3.703992e-09	1.351143e+01	2.396043e+02
1.520000e-06	1.971314e-06	3.881857e-09	1.388387e+01	2.509561e+02
1.530000e-06	2.023875e-06	4.057023e-09	1.425406e+01	2.620882e+02
1.540000e-06	2.076070e-06	4.225877e-09	1.462167e+01	2.729890e+02
1.550000e-06	2.127805e-06	4.386667e-09	1.498604e+01	2.836400e+02
1.560000e-06	2.179097e-06	4.540304e-09	1.534728e+01	2.940188e+02
1.570000e-06	2.229993e-06	4.690384e-09	1.570574e+01	3.041062e+02
1.580000e-06	2.280496e-06	4.837626e-09	1.606143e+01	3.138915e+02
1.590000e-06	2.330622e-06	4.984213e-09	1.641446e+01	3.233762e+02
1.600000e-06	2.380387e-06	5.130784e-09	1.676495e+01	3.325733e+02
1.610000e-06	2.429796e-06	5.272883e-09	1.711294e+01	3.415028e+02
1.620000e-06	2.478776e-06	5.407613e-09	1.745791e+01	3.501841e+02
1.630000e-06	2.527212e-06	5.532820e-09	1.779904e+01	3.586291e+02
1.640000e-06	2.575134e-06	5.651883e-09	1.813655e+01	3.668376e+02
1.650000e-06	2.622603e-06	5.769919e-09	1.847087e+01	3.747975e+02
1.660000e-06	2.669616e-06	5.888023e-09	1.880198e+01	3.824897e+02
1.670000e-06	2.716178e-06	6.004232e-09	1.912992e+01	3.898953e+02
1.680000e-06	2.762222e-06	6.114758e-09	1.945420e+01	3.970041e+02
1.690000e-06	2.807630e-06	6.220043e-09	1.977401e+01	4.038198e+02
1.700000e-06	2.852463e-06	6.320208e-09	2.008976e+01	4.103613e+02
1.710000e-06	2.896858e-06	6.414704e-09	2.040243e+01	4.166586e+02
1.720000e-06	2.940776e-06	6.504287e-09	2.071175e+01	4.227459e+02
1.730000e-06	2.984210e-06	6.590162e-09	2.101765e+01	4.286535e+02
1.740000e-06	3.027217e-06	6.676676e-09	2.132055e+01	4.344016e+02
1.750000e-06	3.069695e-06	6.761816e-09	2.161972e+01	4.399977e+02
1.760000e-06	3.111529e-06	6.843487e-09	2.191435e+01	4.454386e+02
1.770000e-06	3.152786e-06	6.922955e-09	2.220493e+01	4.507155e+02
1.780000e-06	3.193533e-06	7.001080e-09	2.249190e+01	4.558208e+02
1.790000e-06	3.233768e-06	7.077709e-09	2.277528e+01	4.607524e+02
1.800000e-06	3.273485e-06	7.150665e-09	2.305501e+01	4.655167e+02
1.810000e-06	3.312564e-06	7.220183e-09	2.333023e+01	4.701270e+02
1.820000e-06	3.350962e-06	7.286225e-09	2.360067e+01	4.745995e+02
1.830000e-06	3.388768e-06	7.349777e-09	2.386694e+01	4.789483e+02
1.840000e-06	3.426026e-06	7.410629e-09	2.412934e+01	4.831819e+02
1.850000e-06	3.462786e-06	7.468018e-09	2.438824e+01	4.873011e+02
1.860000e-06	3.498958e-06	7.525560e-09	2.464300e+01	4.913006e+02
1.870000e-06	3.534422e-06	7.582922e-09	2.489277e+01	4.951724e+02
1.880000e-06	3.569243e-06	7.639515e-09	2.513802e+01	4.989098e+02
1.890000e-06	3.603450e-06	7.694375e-09	2.537893e+01	5.025103e+02
1.900000e-06	3.637072e-06	7.745373e-09	2.561573e+01	5.059768e+02
1.910000e-06	3.670096e-06	7.793504e-09	2.584832e+01	5.093165e+02
1.920000e-06	3.702415e-06	7.838847e-09	2.607594e+01	5.125374e+02
1.930000e-06	3.734022e-06	7.882482e-09	2.629854e+01	5.156458e+02
1.940000e-06	3.764978e-06	7.924151e-09	2.651657e+01	5.186434e+02
1.950000e-06	3.795257e-06	7.963788e-09	2.672982e+01	5.215272e+02
1.960000e-06	3.824757e-06	8.002546e-09	2.693759e+01	5.242908e+02
1.970000e-06	3.853493e-06	8.040512e-09	2.713997e+01	5.269277e+02
1.980000e-06	3.881542e-06	8.078218e-09	2.733752e+01	5.294346e+02
1.990000e-06	3.908944e-06	8.113548e-09	2.753051e+01	5.318136e+02
2.000000e-06	3.935676e-06	8.146083e-09	2.771878e+01	5.340730e+02
2.010000e-06	3.961657e-06	8.176660e-09	2.790177e+01	5.362266e+02
2.020000e-06	3.986920e-06	8.204971e-09	2.807970e+01	5.382903e+02
2.030000e-06	4.011537e-06	8.231591e-09	2.825307e+01	5.402787e+02
2.040000e-06	4.035536e-06	8.255588e-09	2.842209e+01	5.422025e+02
2.050000e-06	4.058820e-06	8.280367e-09	2.858608e+01	5.440658e+02
2.060000e-06	4.081318e-06	8.308388e-09	2.874454e+01	5.458663e+02
2.070000e-06	4.103114e-06	8.335909e-09	2.889804e+01	5.475968e+02
2.080000e-06	4.124158e-06	8.360575e-09	2.904626e+01	5.492479e+02
2.090000e-06	4.144341e-06	8.383037e-09	2.918841e+01	5.508111e+02
2.100000e-06	4.163694e-06	8.404820e-09	2.932471e+01	5.522821e+02
2.110000e-06	4.182318e-06	8.424298e-09	2.945587e+01	5.536625e+02
2.120000e-06	4.200292e-06	8.440154e-09	2.958246e+01	5.549601e+02
2.130000e-06	4.217598e-06	8.455097e-09	2.970435e+01	5.561870e+02
2.140000e-06	4.234088e-06	8.472336e-09	2.982049e+01	5.573569e+02
2.150000e-06	4.249785e-06	8.491820e-09	2.993104e+01	5.584812e+02
2.160000e-06	4.264791e-06	8.510462e-09	3.003672e+01	5.595659e+02
2.170000e-06	4.279113e-06	8.526332e-09	3.013759e+01	5.606096e+02
2.180000e-06	4.292673e-06	8.541125e-09	3.023310e+01	5.616041e+02
2.190000e-06	4.305459e-06	8.555252e-09	3.032315e+01	5.625369e+02
2.200000e-06	4.317534e-06	8.566559e-09	3.040820e+01	5.633958e+02
2.210000e-06	4.328911e-06	8.576143e-09	3.048832e+01	5.641731e+02
2.220000e-06	4.339531e-06	8.585953e-09	3.056312e+01	5.648695e+02
2.230000e-06	4.349301e-06	8.597335e-09	3.063192e+01	5.654947e+02
2.240000e-06	4.358283e-06	8.608120e-09	3.069519e+01	5.660653e+02
2.250000e-06	4.366555e-06	8.617720e-09	3.075345e+01	5.665993e+02
2.260000e-06	4.374112e-06	8.627061e-09	3.080667e+01	5.671106e+02
2.270000e-06	4.380875e-06	8.635508e-09	3.085430e+01	5.676030e+02
2.280000e-06	4.386806e-06	8.642111e-09	3.089607e+01	5.680688e+02
2.290000e-06	4.391931e-06	8.646530e-09	3.093217e+01	5.684902e+02
2.300000e-06	4.396172e-06	8.650649e-09	3.096204e+01	5.688456e+02
2.310000e-06	4.399534e-06	8.656016e-09	3.098572e+01	5.691174e+02
2.320000e-06	4.402126e-06	8.659902e-09	3.100397e+01	5.692993e+02
2.330000e-06	4.404006e-06	8.663227e-09	3.101721e+01	5.694001e+02
2.340000e-06	4.405149e-06	8.667796e-09	3.102526e+01	5.694418e+02
2.350000e-06	4.405453e-06	8.673327e-09	3.102740e+01	5.694533e+02
2.360000e-06	4.404954e-06	8.677677e-09	3.102389e+01	5.694601e+02
2.370000e-06	4.403785e-06	8.675938e-09	3.101566e+01	5.694743e+02
2.380000e-06	4.401941e-06	8.670590e-09	3.100266e+01	5.694886e+02
2.390000e-06	4.399277e-06	8.667438e-09	3.098390e+01	5.694772e+02
2.400000e-06	4.395817e-06	8.665867e-09	3.095954e+01	5.694029e+02
2.410000e-06	4.391687e-06	8.662061e-09	3.093045e+01	5.692300e+02
2.420000e-06	4.386835e-06	8.666509e-09	3.089628e+01	5.689378e+02
2.430000e-06	4.381127e-06	8.666416e-09	3.085608e+01	5.685303e+02
2.440000e-06	4.374531e-06	8.622112e-09	3.080962e+01	5.680394e+02
2.450000e-06	4.366849e-06	8.590327e-09	3.075552e+01	5.675176e+02
2.460000e-06	4.357957e-06	8.670188e-09	3.069289e+01	5.670247e+02
2.470000e-06	4.348489e-06	8.684188e-09	3.062621e+01	5.666108e+02
2.480000e-06	4.338960e-06	8.590808e-09	3.055910e+01	5.663011e+02
2.490000e-06	4.328743e-06	8.549331e-09	3.048714e+01	5.660875e+02
2.500000e-06	4.317278e-06	8.648060e-09	3.040639e+01	5.659304e+02
2.510000e-06	4.305350e-06	8.648600e-09	3.032238e+01	5.657688e+02
2.520000e-06	4.293154e-06	8.581539e-09	3.023649e+01	5.655362e+02
2.530000e-06	4.279823e-06	8.699684e-09	3.014259e+01	5.651781e+02
2.540000e-06	4.265564e-06	8.703964e-09	3.004217e+01	5.646634e+02
2.550000e-06	4.250954e-06	8.556318e-09	2.993927e+01	5.639899e+02
2.560000e-06	4.235513e-06	8.607598e-09	2.983052e+01	5.631792e+02
2.570000e-06	4.219055e-06	8.676054e-09	2.971461e+01	5.622665e+02
2.580000e-06	4.202034e-06	8.493778e-09	2.959473e+01	5.612878e+02
2.590000e-06	4.184244e-06	8.488100e-09	2.946943e+01	5.602688e+02
2.600000e-06	4.165645e-06	8.592618e-09	2.933844e+01	5.592197e+02
2.610000e-06	4.146506e-06	8.494785e-09	2.920365e+01	5.581356e+02
2.620000e-06	4.126474e-06	8.458061e-09	2.906256e+01	5.570029e+02
2.630000e-06	4.105419e-06	8.473017e-09	2.891427e+01	5.558068e+02
2.640000e-06	4.083722e-06	8.436912e-09	2.876147e+01	5.545380e+02
2.650000e-06	4.061253e-06	8.438033e-09	2.860322e+01	5.531951e+02
2.660000e-06	4.037905e-06	8.386240e-09	2.843878e+01	5.517833e+02
2.670000e-06	4.013898e-06	8.325240e-09	2.826970e+01	5.503098e+02
2.680000e-06	3.989102e-06	8.359581e-09	2.809506e+01	5.487789e+02
2.690000e-06	3.963559e-06	8.350767e-09	2.791516e+01	5.471895e+02
2.700000e-06	3.937339e-06	8.262110e-09	2.773050e+01	5.455351e+02
2.710000e-06	3.910345e-06	8.268169e-09	2.754038e+01	5.438080e+02
2.720000e-06	3.882704e-06	8.243902e-09	2.734571e+01	5.420042e+02
2.730000e-06	3.854322e-06	8.184281e-09	2.714581e+01	5.401273e+02
2.740000e-06	3.825096e-06	8.205852e-09	2.693997e+01	5.381892e+02
2.750000e-06	3.795241e-06	8.143819e-09	2.672971e+01	5.362071e+02
2.760000e-06	3.764685e-06	8.107526e-09	2.651450e+01	5.341977e+02
2.770000e-06	3.733280e-06	8.100753e-09	2.629332e+01	5.321710e+02
2.780000e-06	3.701183e-06	8.046275e-09	2.606726e+01	5.301261e+02
2.790000e-06	3.668487e-06	8.029165e-09	2.583698e+01	5.280511e+02
2.800000e-06	3.635213e-06	7.976366e-09	2.560264e+01	5.259281e+02
2.810000e-06	3.601384e-06	7.947439e-09	2.536438e+01	5.237391e+02
2.820000e-06	3.566861e-06	7.936370e-09	2.512124e+01	5.214741e+02
2.830000e-06	3.531650e-06	7.885407e-09	2.487325e+01	5.191343e+02
2.840000e-06	3.495834e-06	7.851420e-09	2.462100e+01	5.167320e+02
2.850000e-06	3.459438e-06	7.802595e-09	2.436466e+01	5.142850e+02
2.860000e-06	3.422529e-06	7.781410e-09	2.410471e+01	5.118089e+02
2.870000e-06	3.385000e-06	7.751319e-09	2.384040e+01	5.093099e+02
2.880000e-06	3.346820e-06	7.689804e-09	2.357150e+01	5.067803e+02
2.890000e-06	3.308083e-06	7.654295e-09	2.329868e+01	5.042000e+02
2.900000e-06	3.268816e-06	7.616691e-09	2.302212e+01	5.015427e+02
2.910000e-06	3.229031e-06	7.584506e-09	2.274192e+01	4.987845e+02
2.920000e-06	3.188665e-06	7.533948e-09	2.245762e+01	4.959119e+02
2.930000e-06	3.147676e-06	7.479422e-09	2.216894e+01	4.929267e+02
2.940000e-06	3.106094e-06	7.446526e-09	2.187608e+01	4.898449e+02
