# Temperatura_=_20.0
# Concentracion g/m^3_=_10000.0
# C_Vs_to_Am_M_A/Vsm_=_65563218390.804596
# pendiente_HvsI_1/m_=_3716.3
# ordenada_HvsI_A/m_=_1297.0
# frecuencia_Hz_=_212864.97616798893

Tiempo_(s)	Campo_(V.s)	Magnetizacion_(V.s)	Campo_(kA/m)	Magnetizacion_(A/m)
0.000000e+00	-4.353444e-06	-2.701934e-10	-3.099644e+01	-1.618803e+01
1.000000e-08	-4.353166e-06	-2.722377e-10	-3.099446e+01	-1.606427e+01
2.000000e-08	-4.352079e-06	-2.736171e-10	-3.098672e+01	-1.601595e+01
3.000000e-08	-4.350236e-06	-2.764562e-10	-3.097360e+01	-1.605546e+01
4.000000e-08	-4.347717e-06	-2.804408e-10	-3.095567e+01	-1.616279e+01
5.000000e-08	-4.344538e-06	-2.837968e-10	-3.093303e+01	-1.629140e+01
6.000000e-08	-4.340555e-06	-2.827330e-10	-3.090467e+01	-1.638475e+01
7.000000e-08	-4.335725e-06	-2.763590e-10	-3.087028e+01	-1.639738e+01
8.000000e-08	-4.330081e-06	-2.722936e-10	-3.083010e+01	-1.631278e+01
9.000000e-08	-4.323454e-06	-2.909341e-10	-3.078291e+01	-1.615109e+01
1.000000e-07	-4.315869e-06	-3.044692e-10	-3.072891e+01	-1.596304e+01
1.100000e-07	-4.307531e-06	-2.690280e-10	-3.066954e+01	-1.581223e+01
1.200000e-07	-4.298648e-06	-2.241439e-10	-3.060630e+01	-1.575185e+01
1.300000e-07	-4.289252e-06	-2.970026e-10	-3.053940e+01	-1.580464e+01
1.400000e-07	-4.279046e-06	-3.611110e-10	-3.046673e+01	-1.595370e+01
1.500000e-07	-4.268017e-06	-2.785307e-10	-3.038821e+01	-1.614795e+01
1.600000e-07	-4.256496e-06	-2.440227e-10	-3.030617e+01	-1.632043e+01
1.700000e-07	-4.244264e-06	-3.129765e-10	-3.021908e+01	-1.641276e+01
1.800000e-07	-4.230943e-06	-3.030944e-10	-3.012424e+01	-1.639672e+01
1.900000e-07	-4.216889e-06	-2.147044e-10	-3.002417e+01	-1.628475e+01
2.000000e-07	-4.202430e-06	-2.730395e-10	-2.992123e+01	-1.612529e+01
2.100000e-07	-4.187244e-06	-2.801280e-10	-2.981310e+01	-1.598475e+01
2.200000e-07	-4.171266e-06	-1.925496e-10	-2.969934e+01	-1.592267e+01
2.300000e-07	-4.154570e-06	-2.603861e-10	-2.958047e+01	-1.596951e+01
2.400000e-07	-4.137015e-06	-2.962081e-10	-2.945547e+01	-1.611530e+01
2.500000e-07	-4.118733e-06	-2.193781e-10	-2.932531e+01	-1.631348e+01
2.600000e-07	-4.099742e-06	-2.221912e-10	-2.919009e+01	-1.649828e+01
2.700000e-07	-4.079767e-06	-2.813978e-10	-2.904787e+01	-1.660912e+01
2.800000e-07	-4.058896e-06	-2.412959e-10	-2.889926e+01	-1.661259e+01
2.900000e-07	-4.037355e-06	-2.290729e-10	-2.874589e+01	-1.651412e+01
3.000000e-07	-4.014994e-06	-2.475070e-10	-2.858669e+01	-1.635472e+01
3.100000e-07	-3.991748e-06	-2.204599e-10	-2.842117e+01	-1.619461e+01
3.200000e-07	-3.967843e-06	-2.553101e-10	-2.825097e+01	-1.609003e+01
3.300000e-07	-3.943273e-06	-2.507086e-10	-2.807603e+01	-1.607217e+01
3.400000e-07	-3.917990e-06	-2.067380e-10	-2.789602e+01	-1.613627e+01
3.500000e-07	-3.892010e-06	-2.279758e-10	-2.771104e+01	-1.624465e+01
3.600000e-07	-3.865269e-06	-2.321593e-10	-2.752065e+01	-1.634227e+01
3.700000e-07	-3.837850e-06	-2.253175e-10	-2.732543e+01	-1.637856e+01
3.800000e-07	-3.809764e-06	-2.378959e-10	-2.712545e+01	-1.632687e+01
3.900000e-07	-3.780990e-06	-2.235294e-10	-2.692058e+01	-1.619423e+01
4.000000e-07	-3.751479e-06	-2.121980e-10	-2.671046e+01	-1.601786e+01
4.100000e-07	-3.721190e-06	-2.434500e-10	-2.649481e+01	-1.585014e+01
4.200000e-07	-3.690190e-06	-2.355310e-10	-2.627409e+01	-1.573817e+01
4.300000e-07	-3.658430e-06	-1.885616e-10	-2.604796e+01	-1.570590e+01
4.400000e-07	-3.625933e-06	-2.119921e-10	-2.581658e+01	-1.574576e+01
4.500000e-07	-3.592861e-06	-2.333714e-10	-2.558111e+01	-1.582280e+01
4.600000e-07	-3.559297e-06	-2.219443e-10	-2.534213e+01	-1.588919e+01
4.700000e-07	-3.525198e-06	-2.184429e-10	-2.509935e+01	-1.590335e+01
4.800000e-07	-3.490512e-06	-2.087080e-10	-2.485238e+01	-1.584598e+01
4.900000e-07	-3.455267e-06	-2.159902e-10	-2.460144e+01	-1.572682e+01
5.000000e-07	-3.419387e-06	-2.178894e-10	-2.434597e+01	-1.557983e+01
5.100000e-07	-3.382857e-06	-2.077380e-10	-2.408588e+01	-1.544887e+01
5.200000e-07	-3.345766e-06	-2.001614e-10	-2.382180e+01	-1.536988e+01
5.300000e-07	-3.308143e-06	-2.086887e-10	-2.355392e+01	-1.535655e+01
5.400000e-07	-3.270000e-06	-2.231378e-10	-2.328234e+01	-1.539504e+01
5.500000e-07	-3.231252e-06	-2.126139e-10	-2.300646e+01	-1.544960e+01
5.600000e-07	-3.191859e-06	-2.074267e-10	-2.272598e+01	-1.547653e+01
5.700000e-07	-3.151879e-06	-2.056302e-10	-2.244133e+01	-1.544089e+01
5.800000e-07	-3.111367e-06	-2.081651e-10	-2.215287e+01	-1.532936e+01
5.900000e-07	-3.070350e-06	-2.153512e-10	-2.186083e+01	-1.515434e+01
6.000000e-07	-3.028815e-06	-2.025262e-10	-2.156511e+01	-1.494807e+01
6.100000e-07	-2.986706e-06	-1.985683e-10	-2.126529e+01	-1.474945e+01
6.200000e-07	-2.943997e-06	-2.017943e-10	-2.096121e+01	-1.458891e+01
6.300000e-07	-2.900768e-06	-2.032087e-10	-2.065342e+01	-1.447737e+01
6.400000e-07	-2.857054e-06	-1.988386e-10	-2.034217e+01	-1.440340e+01
6.500000e-07	-2.812828e-06	-1.875382e-10	-2.002729e+01	-1.433930e+01
6.600000e-07	-2.768123e-06	-1.919914e-10	-1.970898e+01	-1.425330e+01
6.700000e-07	-2.722902e-06	-1.966422e-10	-1.938701e+01	-1.412280e+01
6.800000e-07	-2.677069e-06	-1.970697e-10	-1.906068e+01	-1.394321e+01
6.900000e-07	-2.630619e-06	-1.885911e-10	-1.872996e+01	-1.372923e+01
7.000000e-07	-2.583640e-06	-1.803058e-10	-1.839547e+01	-1.350830e+01
7.100000e-07	-2.536206e-06	-1.885538e-10	-1.805774e+01	-1.330909e+01
7.200000e-07	-2.488390e-06	-1.893846e-10	-1.771729e+01	-1.315013e+01
7.300000e-07	-2.440120e-06	-1.855660e-10	-1.737361e+01	-1.303281e+01
7.400000e-07	-2.391301e-06	-1.802322e-10	-1.702602e+01	-1.294167e+01
7.500000e-07	-2.342034e-06	-1.803155e-10	-1.667524e+01	-1.285133e+01
7.600000e-07	-2.292405e-06	-1.871371e-10	-1.632188e+01	-1.273716e+01
7.700000e-07	-2.242404e-06	-1.830976e-10	-1.596588e+01	-1.258504e+01
7.800000e-07	-2.192014e-06	-1.789832e-10	-1.560710e+01	-1.239648e+01
7.900000e-07	-2.141265e-06	-1.766983e-10	-1.524577e+01	-1.218710e+01
8.000000e-07	-2.090209e-06	-1.787492e-10	-1.488225e+01	-1.197941e+01
8.100000e-07	-2.038808e-06	-1.790786e-10	-1.451628e+01	-1.179315e+01
8.200000e-07	-1.986945e-06	-1.699054e-10	-1.414702e+01	-1.163722e+01
8.300000e-07	-1.934655e-06	-1.667222e-10	-1.377471e+01	-1.150643e+01
8.400000e-07	-1.882058e-06	-1.675780e-10	-1.340022e+01	-1.138429e+01
8.500000e-07	-1.829204e-06	-1.707630e-10	-1.302390e+01	-1.125041e+01
8.600000e-07	-1.776082e-06	-1.675557e-10	-1.264567e+01	-1.108930e+01
8.700000e-07	-1.722648e-06	-1.597582e-10	-1.226523e+01	-1.089688e+01
8.800000e-07	-1.668938e-06	-1.597566e-10	-1.188281e+01	-1.068210e+01
8.900000e-07	-1.614981e-06	-1.579179e-10	-1.149864e+01	-1.046311e+01
9.000000e-07	-1.560784e-06	-1.535005e-10	-1.111276e+01	-1.025980e+01
9.100000e-07	-1.506325e-06	-1.469402e-10	-1.072500e+01	-1.008585e+01
9.200000e-07	-1.451527e-06	-1.459262e-10	-1.033485e+01	-9.943503e+00
9.300000e-07	-1.396372e-06	-1.509061e-10	-9.942144e+00	-9.823205e+00
9.400000e-07	-1.340893e-06	-1.495593e-10	-9.547137e+00	-9.707868e+00
9.500000e-07	-1.285152e-06	-1.455791e-10	-9.150260e+00	-9.579907e+00
9.600000e-07	-1.229200e-06	-1.398799e-10	-8.751883e+00	-9.427946e+00
9.700000e-07	-1.173035e-06	-1.372489e-10	-8.351992e+00	-9.250458e+00
9.800000e-07	-1.116634e-06	-1.365043e-10	-7.950416e+00	-9.055001e+00
9.900000e-07	-1.060009e-06	-1.297951e-10	-7.547243e+00	-8.853650e+00
1.000000e-06	-1.003167e-06	-1.257468e-10	-7.142535e+00	-8.656817e+00
1.010000e-06	-9.461041e-07	-1.260638e-10	-6.736245e+00	-8.468260e+00
1.020000e-06	-8.888154e-07	-1.283187e-10	-6.328350e+00	-8.283459e+00
1.030000e-06	-8.313343e-07	-1.238598e-10	-5.919085e+00	-8.091991e+00
1.040000e-06	-7.737111e-07	-1.142593e-10	-5.508810e+00	-7.882744e+00
1.050000e-06	-7.159234e-07	-1.086637e-10	-5.097362e+00	-7.649578e+00
1.060000e-06	-6.579886e-07	-1.052227e-10	-4.684867e+00	-7.394834e+00
1.070000e-06	-5.999459e-07	-1.039953e-10	-4.271604e+00	-7.129072e+00
1.080000e-06	-5.417749e-07	-1.004002e-10	-3.857428e+00	-6.867057e+00
1.090000e-06	-4.835304e-07	-9.691587e-11	-3.442728e+00	-6.621682e+00
1.100000e-06	-4.252203e-07	-9.591519e-11	-3.027561e+00	-6.398428e+00
1.110000e-06	-3.668070e-07	-9.241261e-11	-2.611659e+00	-6.192770e+00
1.120000e-06	-3.083352e-07	-8.731892e-11	-2.195341e+00	-5.991716e+00
1.130000e-06	-2.498234e-07	-8.049903e-11	-1.778738e+00	-5.778905e+00
1.140000e-06	-1.912896e-07	-7.527978e-11	-1.361979e+00	-5.541200e+00
1.150000e-06	-1.327160e-07	-7.289557e-11	-9.449354e-01	-5.274062e+00
1.160000e-06	-7.411924e-08	-6.925976e-11	-5.277277e-01	-4.983472e+00
1.170000e-06	-1.554170e-08	-6.630653e-11	-1.106566e-01	-4.683613e+00
1.180000e-06	4.303867e-08	-6.138940e-11	3.064346e-01	-4.391260e+00
1.190000e-06	1.015767e-07	-5.707681e-11	7.232244e-01	-4.119162e+00
1.200000e-06	1.600666e-07	-5.501556e-11	1.139671e+00	-3.871096e+00
1.210000e-06	2.185631e-07	-5.293102e-11	1.556166e+00	-3.640545e+00
1.220000e-06	2.770016e-07	-5.006340e-11	1.972247e+00	-3.413436e+00
1.230000e-06	3.353523e-07	-4.610041e-11	2.387703e+00	-3.173711e+00
1.240000e-06	3.936360e-07	-4.300547e-11	2.802682e+00	-2.909390e+00
1.250000e-06	4.518376e-07	-3.779439e-11	3.217076e+00	-2.616656e+00
1.260000e-06	5.099650e-07	-3.060279e-11	3.630942e+00	-2.300414e+00
1.270000e-06	5.679746e-07	-2.550599e-11	4.043969e+00	-1.971281e+00
1.280000e-06	6.258486e-07	-2.186682e-11	4.456031e+00	-1.640467e+00
1.290000e-06	6.835924e-07	-1.926755e-11	4.867165e+00	-1.314834e+00
1.300000e-06	7.411849e-07	-1.449653e-11	5.277224e+00	-9.942355e-01
1.310000e-06	7.986516e-07	-9.070197e-12	5.686385e+00	-6.722025e-01
1.320000e-06	8.559609e-07	-3.137225e-12	6.094427e+00	-3.395238e-01
1.330000e-06	9.130742e-07	3.608059e-12	6.501072e+00	1.095833e-02
1.340000e-06	9.700330e-07	8.625204e-12	6.906618e+00	3.805196e-01
1.350000e-06	1.026864e-06	1.312242e-11	7.311255e+00	7.633943e-01
1.360000e-06	1.083506e-06	1.613088e-11	7.714546e+00	1.148771e+00
1.370000e-06	1.139920e-06	2.008208e-11	8.116210e+00	1.525023e+00
1.380000e-06	1.196125e-06	2.564585e-11	8.516390e+00	1.884254e+00
1.390000e-06	1.252147e-06	3.248836e-11	8.915264e+00	2.225137e+00
1.400000e-06	1.307972e-06	3.793560e-11	9.312738e+00	2.552787e+00
1.410000e-06	1.363556e-06	4.102652e-11	9.708492e+00	2.875745e+00
1.420000e-06	1.418864e-06	4.506411e-11	1.010229e+01	3.201495e+00
1.430000e-06	1.473859e-06	5.083064e-11	1.049385e+01	3.532581e+00
1.440000e-06	1.528533e-06	5.765269e-11	1.088313e+01	3.865166e+00
1.450000e-06	1.582910e-06	6.212567e-11	1.127029e+01	4.190784e+00
1.460000e-06	1.637011e-06	6.503172e-11	1.165549e+01	4.500580e+00
1.470000e-06	1.690823e-06	6.875670e-11	1.203863e+01	4.790158e+00
1.480000e-06	1.744357e-06	7.054107e-11	1.241979e+01	5.062765e+00
1.490000e-06	1.797614e-06	7.005990e-11	1.279898e+01	5.329192e+00
1.500000e-06	1.850573e-06	7.075048e-11	1.317605e+01	5.604141e+00
1.510000e-06	1.903234e-06	7.622673e-11	1.355099e+01	5.900373e+00
1.520000e-06	1.955569e-06	8.552810e-11	1.392362e+01	6.223029e+00
1.530000e-06	2.007533e-06	9.369920e-11	1.429360e+01	6.566574e+00
1.540000e-06	2.059087e-06	9.952388e-11	1.466066e+01	6.915867e+00
1.550000e-06	2.110206e-06	1.045160e-10	1.502463e+01	7.251187e+00
1.560000e-06	2.160923e-06	1.084611e-10	1.538573e+01	7.555397e+00
1.570000e-06	2.211284e-06	1.111164e-10	1.574431e+01	7.820465e+00
1.580000e-06	2.261272e-06	1.125567e-10	1.610021e+01	8.050720e+00
1.590000e-06	2.310892e-06	1.161252e-10	1.645351e+01	8.261444e+00
1.600000e-06	2.360144e-06	1.226823e-10	1.680418e+01	8.473261e+00
1.610000e-06	2.408953e-06	1.289413e-10	1.715170e+01	8.704455e+00
1.620000e-06	2.457258e-06	1.328025e-10	1.749563e+01	8.964188e+00
1.630000e-06	2.505052e-06	1.346311e-10	1.783593e+01	9.249264e+00
1.640000e-06	2.552410e-06	1.370598e-10	1.817311e+01	9.545638e+00
1.650000e-06	2.599355e-06	1.427890e-10	1.850736e+01	9.833997e+00
1.660000e-06	2.645846e-06	1.496462e-10	1.883837e+01	1.009712e+01
1.670000e-06	2.691824e-06	1.541722e-10	1.916574e+01	1.032603e+01
1.680000e-06	2.737200e-06	1.570761e-10	1.948881e+01	1.052262e+01
1.690000e-06	2.782005e-06	1.600982e-10	1.980782e+01	1.069773e+01
1.700000e-06	2.826322e-06	1.633104e-10	2.012336e+01	1.086582e+01
1.710000e-06	2.870164e-06	1.663124e-10	2.043552e+01	1.103858e+01
1.720000e-06	2.913561e-06	1.693838e-10	2.074450e+01	1.122015e+01
1.730000e-06	2.956532e-06	1.720669e-10	2.105045e+01	1.140622e+01
1.740000e-06	2.999004e-06	1.758721e-10	2.135286e+01	1.158700e+01
1.750000e-06	3.040900e-06	1.793731e-10	2.165115e+01	1.175292e+01
1.760000e-06	3.082212e-06	1.802745e-10	2.194530e+01	1.190028e+01
1.770000e-06	3.122984e-06	1.807286e-10	2.223559e+01	1.203428e+01
1.780000e-06	3.163236e-06	1.829291e-10	2.252218e+01	1.216791e+01
1.790000e-06	3.202954e-06	1.869528e-10	2.280497e+01	1.231699e+01
1.800000e-06	3.242091e-06	1.909586e-10	2.308363e+01	1.249333e+01
1.810000e-06	3.280598e-06	1.949217e-10	2.335780e+01	1.269884e+01
1.820000e-06	3.318520e-06	1.995585e-10	2.362780e+01	1.292336e+01
1.830000e-06	3.355903e-06	2.021297e-10	2.389397e+01	1.314718e+01
1.840000e-06	3.392742e-06	2.020331e-10	2.415626e+01	1.334753e+01
1.850000e-06	3.429003e-06	2.010978e-10	2.441444e+01	1.350667e+01
1.860000e-06	3.464608e-06	2.013431e-10	2.466795e+01	1.361835e+01
1.870000e-06	3.499553e-06	2.026417e-10	2.491676e+01	1.369013e+01
1.880000e-06	3.533906e-06	2.028149e-10	2.516134e+01	1.374057e+01
1.890000e-06	3.567691e-06	2.045335e-10	2.540189e+01	1.379245e+01
1.900000e-06	3.600920e-06	2.082947e-10	2.563849e+01	1.386462e+01
1.910000e-06	3.633525e-06	2.111894e-10	2.587063e+01	1.396565e+01
1.920000e-06	3.665468e-06	2.114373e-10	2.609807e+01	1.409168e+01
1.930000e-06	3.696721e-06	2.096015e-10	2.632059e+01	1.422904e+01
1.940000e-06	3.727266e-06	2.079833e-10	2.653806e+01	1.436049e+01
1.950000e-06	3.757113e-06	2.070875e-10	2.675058e+01	1.447226e+01
1.960000e-06	3.786200e-06	2.075641e-10	2.695768e+01	1.455918e+01
1.970000e-06	3.814558e-06	2.093973e-10	2.715959e+01	1.462576e+01
1.980000e-06	3.842247e-06	2.125924e-10	2.735673e+01	1.468322e+01
1.990000e-06	3.869274e-06	2.170925e-10	2.754916e+01	1.474396e+01
2.000000e-06	3.895610e-06	2.202155e-10	2.773667e+01	1.481597e+01
2.010000e-06	3.921229e-06	2.202911e-10	2.791908e+01	1.489975e+01
2.020000e-06	3.946180e-06	2.183288e-10	2.809673e+01	1.498894e+01
2.030000e-06	3.970511e-06	2.158074e-10	2.826997e+01	1.507418e+01
2.040000e-06	3.994207e-06	2.143384e-10	2.843868e+01	1.514828e+01
2.050000e-06	4.017147e-06	2.142293e-10	2.860201e+01	1.521025e+01
2.060000e-06	4.039323e-06	2.159693e-10	2.875991e+01	1.526609e+01
2.070000e-06	4.060800e-06	2.188029e-10	2.891283e+01	1.532609e+01
2.080000e-06	4.081486e-06	2.205425e-10	2.906011e+01	1.539969e+01
2.090000e-06	4.101298e-06	2.224151e-10	2.920117e+01	1.549046e+01
2.100000e-06	4.120317e-06	2.236633e-10	2.933659e+01	1.559347e+01
2.110000e-06	4.138644e-06	2.230880e-10	2.946707e+01	1.569678e+01
2.120000e-06	4.156338e-06	2.208517e-10	2.959305e+01	1.578630e+01
2.130000e-06	4.173344e-06	2.191511e-10	2.971414e+01	1.585223e+01
2.140000e-06	4.189567e-06	2.205788e-10	2.982964e+01	1.589403e+01
2.150000e-06	4.205070e-06	2.222703e-10	2.994002e+01	1.592147e+01
2.160000e-06	4.219906e-06	2.232620e-10	3.004566e+01	1.595101e+01
2.170000e-06	4.234062e-06	2.237824e-10	3.014645e+01	1.599877e+01
2.180000e-06	4.247437e-06	2.250715e-10	3.024167e+01	1.607289e+01
2.190000e-06	4.260012e-06	2.260257e-10	3.033121e+01	1.616888e+01
2.200000e-06	4.271907e-06	2.261159e-10	3.041590e+01	1.627026e+01
2.210000e-06	4.283139e-06	2.281649e-10	3.049587e+01	1.635462e+01
2.220000e-06	4.293559e-06	2.297731e-10	3.057006e+01	1.640297e+01
2.230000e-06	4.303129e-06	2.314829e-10	3.063820e+01	1.640853e+01
2.240000e-06	4.311951e-06	2.322815e-10	3.070101e+01	1.638094e+01
2.250000e-06	4.320088e-06	2.319444e-10	3.075895e+01	1.634370e+01
2.260000e-06	4.327517e-06	2.306705e-10	3.081184e+01	1.632524e+01
2.270000e-06	4.334120e-06	2.287211e-10	3.085886e+01	1.634700e+01
2.280000e-06	4.339909e-06	2.279306e-10	3.090007e+01	1.641319e+01
2.290000e-06	4.344918e-06	2.277655e-10	3.093574e+01	1.650697e+01
2.300000e-06	4.349052e-06	2.294872e-10	3.096517e+01	1.659506e+01
2.310000e-06	4.352303e-06	2.324045e-10	3.098832e+01	1.663982e+01
2.320000e-06	4.354783e-06	2.335364e-10	3.100598e+01	1.661426e+01
2.330000e-06	4.356561e-06	2.351692e-10	3.101864e+01	1.651435e+01
2.340000e-06	4.357589e-06	2.376721e-10	3.102596e+01	1.636298e+01
2.350000e-06	4.357792e-06	2.391157e-10	3.102740e+01	1.620378e+01
2.360000e-06	4.357253e-06	2.382024e-10	3.102356e+01	1.608602e+01
2.370000e-06	4.356039e-06	2.325881e-10	3.101492e+01	1.604630e+01
2.380000e-06	4.354092e-06	2.290926e-10	3.100106e+01	1.609388e+01
2.390000e-06	4.351362e-06	2.310108e-10	3.098162e+01	1.620561e+01
2.400000e-06	4.347886e-06	2.330351e-10	3.095687e+01	1.633308e+01
2.410000e-06	4.343738e-06	2.324299e-10	3.092734e+01	1.641990e+01
2.420000e-06	4.338859e-06	2.350200e-10	3.089260e+01	1.642281e+01
2.430000e-06	4.333143e-06	2.240148e-10	3.085190e+01	1.632886e+01
2.440000e-06	4.326515e-06	1.986246e-10	3.080471e+01	1.616172e+01
2.450000e-06	4.318752e-06	2.297253e-10	3.074944e+01	1.597438e+01
2.460000e-06	4.309831e-06	2.932851e-10	3.068592e+01	1.583045e+01
2.470000e-06	4.300433e-06	2.304905e-10	3.061901e+01	1.578085e+01
2.480000e-06	4.290979e-06	1.543185e-10	3.055170e+01	1.584454e+01
2.490000e-06	4.280757e-06	2.039412e-10	3.047891e+01	1.600071e+01
2.500000e-06	4.269404e-06	2.635825e-10	3.039808e+01	1.619571e+01
2.510000e-06	4.257705e-06	1.944164e-10	3.031479e+01	1.636230e+01
2.520000e-06	4.245593e-06	1.974600e-10	3.022854e+01	1.644429e+01
2.530000e-06	4.232224e-06	3.135497e-10	3.013336e+01	1.641727e+01
2.540000e-06	4.217994e-06	2.534990e-10	3.003204e+01	1.629775e+01
2.550000e-06	4.203438e-06	1.926443e-10	2.992841e+01	1.613697e+01
2.560000e-06	4.188056e-06	3.017085e-10	2.981888e+01	1.600178e+01
2.570000e-06	4.171719e-06	2.820344e-10	2.970257e+01	1.594971e+01
2.580000e-06	4.154788e-06	1.633023e-10	2.958202e+01	1.600743e+01
2.590000e-06	4.137049e-06	2.617713e-10	2.945571e+01	1.616090e+01
2.600000e-06	4.118542e-06	3.094824e-10	2.932395e+01	1.636067e+01
2.610000e-06	4.099524e-06	2.211982e-10	2.918854e+01	1.654037e+01
2.620000e-06	4.079594e-06	2.662048e-10	2.904664e+01	1.664123e+01
2.630000e-06	4.058722e-06	2.930549e-10	2.889803e+01	1.663346e+01
2.640000e-06	4.037280e-06	2.597849e-10	2.874536e+01	1.652643e+01
2.650000e-06	4.014987e-06	2.890092e-10	2.858663e+01	1.636398e+01
2.660000e-06	3.991793e-06	2.474901e-10	2.842150e+01	1.620702e+01
2.670000e-06	3.967967e-06	2.114761e-10	2.825185e+01	1.611011e+01
2.680000e-06	3.943341e-06	2.787705e-10	2.807652e+01	1.610114e+01
2.690000e-06	3.917961e-06	2.758228e-10	2.789581e+01	1.617166e+01
2.700000e-06	3.891904e-06	2.378878e-10	2.771029e+01	1.628140e+01
2.710000e-06	3.865110e-06	2.795304e-10	2.751952e+01	1.637476e+01
2.720000e-06	3.837750e-06	2.574809e-10	2.732471e+01	1.640279e+01
2.730000e-06	3.809687e-06	2.492736e-10	2.712491e+01	1.634197e+01
2.740000e-06	3.780723e-06	2.878484e-10	2.691868e+01	1.620274e+01
2.750000e-06	3.751130e-06	2.204447e-10	2.670798e+01	1.602466e+01
2.760000e-06	3.720901e-06	2.348384e-10	2.649275e+01	1.586052e+01
2.770000e-06	3.689813e-06	2.886208e-10	2.627140e+01	1.575579e+01
2.780000e-06	3.657993e-06	2.502719e-10	2.604484e+01	1.573145e+01
2.790000e-06	3.625556e-06	2.416440e-10	2.581390e+01	1.577682e+01
2.800000e-06	3.592554e-06	2.425452e-10	2.557892e+01	1.585485e+01
2.810000e-06	3.559008e-06	2.543018e-10	2.534008e+01	1.591748e+01
2.820000e-06	3.524785e-06	2.652624e-10	2.509641e+01	1.592475e+01
2.830000e-06	3.489877e-06	2.448781e-10	2.484786e+01	1.586014e+01
2.840000e-06	3.454363e-06	2.481535e-10	2.459500e+01	1.573623e+01
2.850000e-06	3.418285e-06	2.569597e-10	2.433813e+01	1.558872e+01
2.860000e-06	3.381701e-06	2.600783e-10	2.407765e+01	1.546147e+01
2.870000e-06	3.344549e-06	2.460125e-10	2.381313e+01	1.538874e+01
2.880000e-06	3.306764e-06	2.348662e-10	2.354410e+01	1.538151e+01
2.890000e-06	3.268388e-06	2.495562e-10	2.327087e+01	1.542334e+01
2.900000e-06	3.229479e-06	2.553703e-10	2.299383e+01	1.547694e+01
2.910000e-06	3.190076e-06	2.562443e-10	2.271328e+01	1.549876e+01
2.920000e-06	3.150169e-06	2.493691e-10	2.242915e+01	1.545557e+01
2.930000e-06	3.109655e-06	2.417049e-10	2.214069e+01	1.533658e+01
2.940000e-06	3.068465e-06	2.491785e-10	2.184742e+01	1.515661e+01
