# Temperatura_=_20.0
# Concentracion g/m^3_=_10000.0
# C_Vs_to_Am_M_A/Vsm_=_65563218390.804596
# pendiente_HvsI_1/m_=_3716.3
# ordenada_HvsI_A/m_=_1297.0
# frecuencia_Hz_=_212870.1233163794

Tiempo_(s)	Campo_(V.s)	Magnetizacion_(V.s)	Campo_(kA/m)	Magnetizacion_(A/m)
0.000000e+00	-4.400953e-06	-8.754277e-09	-3.099396e+01	-5.713606e+02
1.000000e-08	-4.400688e-06	-8.754975e-09	-3.099210e+01	-5.713173e+02
2.000000e-08	-4.399604e-06	-8.753615e-09	-3.098446e+01	-5.712605e+02
3.000000e-08	-4.397745e-06	-8.753677e-09	-3.097137e+01	-5.712150e+02
4.000000e-08	-4.395202e-06	-8.753112e-09	-3.095346e+01	-5.711818e+02
5.000000e-08	-4.392009e-06	-8.749779e-09	-3.093097e+01	-5.711334e+02
6.000000e-08	-4.388024e-06	-8.743061e-09	-3.090291e+01	-5.710212e+02
7.000000e-08	-4.383150e-06	-8.733323e-09	-3.086859e+01	-5.707936e+02
8.000000e-08	-4.377454e-06	-8.720438e-09	-3.082847e+01	-5.704177e+02
9.000000e-08	-4.370821e-06	-8.727022e-09	-3.078176e+01	-5.698964e+02
1.000000e-07	-4.363220e-06	-8.751489e-09	-3.072822e+01	-5.692737e+02
1.100000e-07	-4.354786e-06	-8.755275e-09	-3.066883e+01	-5.686245e+02
1.200000e-07	-4.345737e-06	-8.655671e-09	-3.060510e+01	-5.680325e+02
1.300000e-07	-4.336225e-06	-8.659450e-09	-3.053811e+01	-5.675625e+02
1.400000e-07	-4.325944e-06	-8.718601e-09	-3.046571e+01	-5.672378e+02
1.500000e-07	-4.314816e-06	-8.718761e-09	-3.038734e+01	-5.670310e+02
1.600000e-07	-4.303178e-06	-8.608884e-09	-3.030537e+01	-5.668709e+02
1.700000e-07	-4.290815e-06	-8.649213e-09	-3.021831e+01	-5.666645e+02
1.800000e-07	-4.277357e-06	-8.746104e-09	-3.012353e+01	-5.663254e+02
1.900000e-07	-4.263174e-06	-8.560552e-09	-3.002365e+01	-5.657987e+02
2.000000e-07	-4.248627e-06	-8.614601e-09	-2.992120e+01	-5.650743e+02
2.100000e-07	-4.233296e-06	-8.658432e-09	-2.981323e+01	-5.641843e+02
2.200000e-07	-4.217122e-06	-8.551654e-09	-2.969932e+01	-5.631863e+02
2.300000e-07	-4.200241e-06	-8.553999e-09	-2.958044e+01	-5.621394e+02
2.400000e-07	-4.182474e-06	-8.634603e-09	-2.945531e+01	-5.610830e+02
2.500000e-07	-4.163939e-06	-8.574304e-09	-2.932478e+01	-5.600250e+02
2.600000e-07	-4.144663e-06	-8.470162e-09	-2.918903e+01	-5.589438e+02
2.700000e-07	-4.124403e-06	-8.563579e-09	-2.904634e+01	-5.578016e+02
2.800000e-07	-4.103252e-06	-8.516028e-09	-2.889739e+01	-5.565633e+02
2.900000e-07	-4.081471e-06	-8.476179e-09	-2.874400e+01	-5.552118e+02
3.000000e-07	-4.058863e-06	-8.482954e-09	-2.858478e+01	-5.537554e+02
3.100000e-07	-4.035368e-06	-8.414499e-09	-2.841931e+01	-5.522229e+02
3.200000e-07	-4.011256e-06	-8.444959e-09	-2.824950e+01	-5.506505e+02
3.300000e-07	-3.986468e-06	-8.402949e-09	-2.807493e+01	-5.490658e+02
3.400000e-07	-3.960957e-06	-8.337864e-09	-2.789526e+01	-5.474767e+02
3.500000e-07	-3.934705e-06	-8.334746e-09	-2.771039e+01	-5.458685e+02
3.600000e-07	-3.907678e-06	-8.320080e-09	-2.752005e+01	-5.442118e+02
3.700000e-07	-3.879979e-06	-8.298833e-09	-2.732497e+01	-5.424761e+02
3.800000e-07	-3.851595e-06	-8.261816e-09	-2.712508e+01	-5.406440e+02
3.900000e-07	-3.822529e-06	-8.243905e-09	-2.692038e+01	-5.387190e+02
4.000000e-07	-3.792699e-06	-8.179121e-09	-2.671030e+01	-5.367246e+02
4.100000e-07	-3.762067e-06	-8.176658e-09	-2.649457e+01	-5.346939e+02
4.200000e-07	-3.730700e-06	-8.163197e-09	-2.627367e+01	-5.326558e+02
4.300000e-07	-3.698586e-06	-8.073051e-09	-2.604750e+01	-5.306219e+02
4.400000e-07	-3.665783e-06	-8.077100e-09	-2.581649e+01	-5.285821e+02
4.500000e-07	-3.632411e-06	-8.044126e-09	-2.558146e+01	-5.265079e+02
4.600000e-07	-3.598525e-06	-8.016534e-09	-2.534282e+01	-5.243653e+02
4.700000e-07	-3.564061e-06	-7.990167e-09	-2.510010e+01	-5.221281e+02
4.800000e-07	-3.529003e-06	-7.935558e-09	-2.485321e+01	-5.197893e+02
4.900000e-07	-3.493358e-06	-7.915678e-09	-2.460218e+01	-5.173627e+02
5.000000e-07	-3.457051e-06	-7.864865e-09	-2.434648e+01	-5.148769e+02
5.100000e-07	-3.420148e-06	-7.834239e-09	-2.408659e+01	-5.123610e+02
5.200000e-07	-3.382702e-06	-7.773887e-09	-2.382287e+01	-5.098322e+02
5.300000e-07	-3.344689e-06	-7.730462e-09	-2.355516e+01	-5.072862e+02
5.400000e-07	-3.306114e-06	-7.721237e-09	-2.328350e+01	-5.046992e+02
5.500000e-07	-3.266890e-06	-7.670931e-09	-2.300726e+01	-5.020365e+02
5.600000e-07	-3.227031e-06	-7.641830e-09	-2.272655e+01	-4.992674e+02
5.700000e-07	-3.186610e-06	-7.581513e-09	-2.244189e+01	-4.963781e+02
5.800000e-07	-3.145691e-06	-7.535625e-09	-2.215371e+01	-4.933774e+02
5.900000e-07	-3.104285e-06	-7.500404e-09	-2.186211e+01	-4.902933e+02
6.000000e-07	-3.062273e-06	-7.428833e-09	-2.156623e+01	-4.871610e+02
6.100000e-07	-3.019640e-06	-7.388918e-09	-2.126599e+01	-4.840075e+02
6.200000e-07	-2.976488e-06	-7.340257e-09	-2.096209e+01	-4.808398e+02
6.300000e-07	-2.932836e-06	-7.307738e-09	-2.065467e+01	-4.776411e+02
6.400000e-07	-2.888656e-06	-7.259700e-09	-2.034353e+01	-4.743775e+02
6.500000e-07	-2.843950e-06	-7.191694e-09	-2.002868e+01	-4.710117e+02
6.600000e-07	-2.798712e-06	-7.147796e-09	-1.971009e+01	-4.675189e+02
6.700000e-07	-2.752882e-06	-7.084841e-09	-1.938733e+01	-4.638967e+02
6.800000e-07	-2.706455e-06	-7.038957e-09	-1.906037e+01	-4.601665e+02
6.900000e-07	-2.659485e-06	-6.974061e-09	-1.872958e+01	-4.563645e+02
7.000000e-07	-2.612029e-06	-6.908892e-09	-1.839536e+01	-4.525256e+02
7.100000e-07	-2.564159e-06	-6.863090e-09	-1.805824e+01	-4.486683e+02
7.200000e-07	-2.515835e-06	-6.796898e-09	-1.771791e+01	-4.447857e+02
7.300000e-07	-2.466977e-06	-6.742031e-09	-1.737382e+01	-4.408479e+02
7.400000e-07	-2.417626e-06	-6.669835e-09	-1.702627e+01	-4.368131e+02
7.500000e-07	-2.367860e-06	-6.609456e-09	-1.667579e+01	-4.326455e+02
7.600000e-07	-2.317684e-06	-6.554163e-09	-1.632242e+01	-4.283299e+02
7.700000e-07	-2.267137e-06	-6.478782e-09	-1.596644e+01	-4.238786e+02
7.800000e-07	-2.216254e-06	-6.412267e-09	-1.560810e+01	-4.193264e+02
7.900000e-07	-2.165000e-06	-6.331418e-09	-1.524713e+01	-4.147158e+02
8.000000e-07	-2.113338e-06	-6.265465e-09	-1.488331e+01	-4.100787e+02
8.100000e-07	-2.061230e-06	-6.195446e-09	-1.451633e+01	-4.054215e+02
8.200000e-07	-2.008715e-06	-6.116170e-09	-1.414649e+01	-4.007207e+02
8.300000e-07	-1.955909e-06	-6.048671e-09	-1.377460e+01	-3.959307e+02
8.400000e-07	-1.902821e-06	-5.969635e-09	-1.340072e+01	-3.910011e+02
8.500000e-07	-1.849423e-06	-5.901336e-09	-1.302467e+01	-3.858969e+02
8.600000e-07	-1.795709e-06	-5.819269e-09	-1.264638e+01	-3.806124e+02
8.700000e-07	-1.741698e-06	-5.731221e-09	-1.226601e+01	-3.751741e+02
8.800000e-07	-1.687433e-06	-5.648542e-09	-1.188384e+01	-3.696305e+02
8.900000e-07	-1.632876e-06	-5.557848e-09	-1.149962e+01	-3.640323e+02
9.000000e-07	-1.578011e-06	-5.476561e-09	-1.111324e+01	-3.584122e+02
9.100000e-07	-1.522852e-06	-5.382409e-09	-1.072477e+01	-3.527704e+02
9.200000e-07	-1.467353e-06	-5.294285e-09	-1.033392e+01	-3.470743e+02
9.300000e-07	-1.411523e-06	-5.210737e-09	-9.940732e+00	-3.412703e+02
9.400000e-07	-1.355447e-06	-5.120376e-09	-9.545815e+00	-3.353049e+02
9.500000e-07	-1.299132e-06	-5.033750e-09	-9.149210e+00	-3.291452e+02
9.600000e-07	-1.242540e-06	-4.929739e-09	-8.750658e+00	-3.227912e+02
9.700000e-07	-1.185711e-06	-4.831140e-09	-8.350440e+00	-3.162747e+02
9.800000e-07	-1.128671e-06	-4.728873e-09	-7.948729e+00	-3.096453e+02
9.900000e-07	-1.071375e-06	-4.619994e-09	-7.545223e+00	-3.029483e+02
1.000000e-06	-1.013817e-06	-4.515869e-09	-7.139864e+00	-2.962049e+02
1.010000e-06	-9.560440e-07	-4.406384e-09	-6.732995e+00	-2.894024e+02
1.020000e-06	-8.980937e-07	-4.309210e-09	-6.324876e+00	-2.824973e+02
1.030000e-06	-8.399677e-07	-4.203305e-09	-5.915521e+00	-2.754324e+02
1.040000e-06	-7.817035e-07	-4.088888e-09	-5.505192e+00	-2.681597e+02
1.050000e-06	-7.233190e-07	-3.972606e-09	-5.094015e+00	-2.606594e+02
1.060000e-06	-6.648031e-07	-3.851291e-09	-4.681914e+00	-2.529481e+02
1.070000e-06	-6.061807e-07	-3.735423e-09	-4.269062e+00	-2.450725e+02
1.080000e-06	-5.474640e-07	-3.608236e-09	-3.855546e+00	-2.370897e+02
1.090000e-06	-4.886516e-07	-3.482667e-09	-3.441357e+00	-2.290435e+02
1.100000e-06	-4.297438e-07	-3.360615e-09	-3.026495e+00	-2.209452e+02
1.110000e-06	-3.707617e-07	-3.236424e-09	-2.611111e+00	-2.127668e+02
1.120000e-06	-3.117050e-07	-3.114498e-09	-2.195200e+00	-2.044506e+02
1.130000e-06	-2.526172e-07	-2.980301e-09	-1.779071e+00	-1.959294e+02
1.140000e-06	-1.935382e-07	-2.845892e-09	-1.363004e+00	-1.871523e+02
1.150000e-06	-1.344357e-07	-2.707984e-09	-9.467709e-01	-1.781032e+02
1.160000e-06	-7.530284e-08	-2.565568e-09	-5.303246e-01	-1.688067e+02
1.170000e-06	-1.617006e-08	-2.419794e-09	-1.138786e-01	-1.593177e+02
1.180000e-06	4.294992e-08	-2.264473e-09	3.024772e-01	-1.496992e+02
1.190000e-06	1.020486e-07	-2.116677e-09	7.186834e-01	-1.399980e+02
1.200000e-06	1.611170e-07	-1.969399e-09	1.134675e+00	-1.302259e+02
1.210000e-06	2.201519e-07	-1.819718e-09	1.550432e+00	-1.203554e+02
1.220000e-06	2.791505e-07	-1.666005e-09	1.965934e+00	-1.103305e+02
1.230000e-06	3.380973e-07	-1.506728e-09	2.381069e+00	-1.000885e+02
1.240000e-06	3.969607e-07	-1.349287e-09	2.795618e+00	-8.958325e+01
1.250000e-06	4.557190e-07	-1.180991e-09	3.209427e+00	-7.880184e+01
1.260000e-06	5.144176e-07	-1.006184e-09	3.622815e+00	-6.776740e+01
1.270000e-06	5.730575e-07	-8.311910e-10	4.035790e+00	-5.652801e+01
1.280000e-06	6.315857e-07	-6.557420e-10	4.447978e+00	-4.513635e+01
1.290000e-06	6.899822e-07	-4.828967e-10	4.859239e+00	-3.362898e+01
1.300000e-06	7.482411e-07	-3.032853e-10	5.269531e+00	-2.201357e+01
1.310000e-06	8.063838e-07	-1.219684e-10	5.679004e+00	-1.026928e+01
1.320000e-06	8.643732e-07	6.121330e-11	6.087397e+00	1.640219e+00
1.330000e-06	9.221602e-07	2.466282e-10	6.494366e+00	1.374686e+01
1.340000e-06	9.797795e-07	4.351182e-10	6.900153e+00	2.605968e+01
1.350000e-06	1.037250e-06	6.321002e-10	7.304895e+00	3.855567e+01
1.360000e-06	1.094536e-06	8.268100e-10	7.708335e+00	5.118355e+01
1.370000e-06	1.151609e-06	1.023241e-09	8.110273e+00	6.387894e+01
1.380000e-06	1.208443e-06	1.217613e-09	8.510530e+00	7.658440e+01
1.390000e-06	1.265059e-06	1.410652e-09	8.909252e+00	8.926599e+01
1.400000e-06	1.321472e-06	1.604456e-09	9.306540e+00	1.019196e+02
1.410000e-06	1.377651e-06	1.794737e-09	9.702186e+00	1.145642e+02
1.420000e-06	1.433591e-06	1.989887e-09	1.009614e+01	1.272254e+02
1.430000e-06	1.489280e-06	2.186302e-09	1.048834e+01	1.399157e+02
1.440000e-06	1.544687e-06	2.383094e-09	1.087855e+01	1.526204e+02
1.450000e-06	1.599761e-06	2.577668e-09	1.126640e+01	1.652947e+02
1.460000e-06	1.654477e-06	2.766745e-09	1.165175e+01	1.778733e+02
1.470000e-06	1.708855e-06	2.954360e-09	1.203471e+01	1.902889e+02
1.480000e-06	1.762951e-06	3.136485e-09	1.241568e+01	2.024911e+02
1.490000e-06	1.816780e-06	3.316205e-09	1.279478e+01	2.144590e+02
1.500000e-06	1.870278e-06	3.495508e-09	1.317154e+01	2.262014e+02
1.510000e-06	1.923442e-06	3.673674e-09	1.354595e+01	2.377448e+02
1.520000e-06	1.976315e-06	3.851525e-09	1.391831e+01	2.491144e+02
1.530000e-06	2.028867e-06	4.022394e-09	1.428841e+01	2.603169e+02
1.540000e-06	2.081026e-06	4.188406e-09	1.465574e+01	2.713306e+02
1.550000e-06	2.132732e-06	4.348753e-09	1.501989e+01	2.821097e+02
1.560000e-06	2.183991e-06	4.505073e-09	1.538088e+01	2.925989e+02
1.570000e-06	2.234859e-06	4.658666e-09	1.573912e+01	3.027542e+02
1.580000e-06	2.285366e-06	4.806906e-09	1.609482e+01	3.125597e+02
1.590000e-06	2.335500e-06	4.955568e-09	1.644789e+01	3.220342e+02
1.600000e-06	2.385242e-06	5.100594e-09	1.679820e+01	3.312240e+02
1.610000e-06	2.434610e-06	5.240660e-09	1.714588e+01	3.401849e+02
1.620000e-06	2.483534e-06	5.374332e-09	1.749043e+01	3.489593e+02
1.630000e-06	2.531889e-06	5.500398e-09	1.783097e+01	3.575592e+02
1.640000e-06	2.579744e-06	5.624350e-09	1.816800e+01	3.659605e+02
1.650000e-06	2.627196e-06	5.746124e-09	1.850218e+01	3.741120e+02
1.660000e-06	2.674218e-06	5.866938e-09	1.883333e+01	3.819554e+02
1.670000e-06	2.720732e-06	5.983176e-09	1.916091e+01	3.894486e+02
1.680000e-06	2.766670e-06	6.092825e-09	1.948443e+01	3.965835e+02
1.690000e-06	2.811996e-06	6.199009e-09	1.980364e+01	4.033902e+02
1.700000e-06	2.856777e-06	6.299624e-09	2.011901e+01	4.099275e+02
1.710000e-06	2.901113e-06	6.396681e-09	2.043126e+01	4.162632e+02
1.720000e-06	2.944995e-06	6.489372e-09	2.074030e+01	4.224508e+02
1.730000e-06	2.988406e-06	6.577581e-09	2.104602e+01	4.285141e+02
1.740000e-06	3.031359e-06	6.664693e-09	2.134852e+01	4.344426e+02
1.750000e-06	3.073753e-06	6.749512e-09	2.164708e+01	4.402020e+02
1.760000e-06	3.115521e-06	6.831980e-09	2.194124e+01	4.457533e+02
1.770000e-06	3.156737e-06	6.911416e-09	2.223150e+01	4.510722e+02
1.780000e-06	3.197420e-06	6.990414e-09	2.251801e+01	4.561628e+02
1.790000e-06	3.237583e-06	7.067979e-09	2.280086e+01	4.610581e+02
1.800000e-06	3.277210e-06	7.141096e-09	2.307994e+01	4.658080e+02
1.810000e-06	3.316179e-06	7.211429e-09	2.335438e+01	4.704603e+02
1.820000e-06	3.354496e-06	7.278286e-09	2.362423e+01	4.750429e+02
1.830000e-06	3.392233e-06	7.343371e-09	2.388999e+01	4.795530e+02
1.840000e-06	3.429408e-06	7.406096e-09	2.415180e+01	4.839599e+02
1.850000e-06	3.466096e-06	7.466440e-09	2.441018e+01	4.882186e+02
1.860000e-06	3.502190e-06	7.525932e-09	2.466437e+01	4.922894e+02
1.870000e-06	3.537552e-06	7.583613e-09	2.491341e+01	4.961546e+02
1.880000e-06	3.572264e-06	7.639761e-09	2.515787e+01	4.998270e+02
1.890000e-06	3.606388e-06	7.692043e-09	2.539820e+01	5.033451e+02
1.900000e-06	3.639937e-06	7.741866e-09	2.563446e+01	5.067582e+02
1.910000e-06	3.672900e-06	7.790804e-09	2.586661e+01	5.101074e+02
1.920000e-06	3.705180e-06	7.837880e-09	2.609394e+01	5.134099e+02
1.930000e-06	3.736749e-06	7.884553e-09	2.631627e+01	5.166531e+02
1.940000e-06	3.767658e-06	7.928231e-09	2.653395e+01	5.198006e+02
1.950000e-06	3.797893e-06	7.969074e-09	2.674688e+01	5.228080e+02
1.960000e-06	3.827354e-06	8.009310e-09	2.695436e+01	5.256409e+02
1.970000e-06	3.856044e-06	8.048418e-09	2.715641e+01	5.282891e+02
1.980000e-06	3.884053e-06	8.086682e-09	2.735366e+01	5.307700e+02
1.990000e-06	3.911428e-06	8.122305e-09	2.754646e+01	5.331219e+02
2.000000e-06	3.938116e-06	8.155695e-09	2.773441e+01	5.353882e+02
2.010000e-06	3.964034e-06	8.187458e-09	2.791694e+01	5.376017e+02
2.020000e-06	3.989247e-06	8.217244e-09	2.809450e+01	5.397728e+02
2.030000e-06	4.013820e-06	8.245882e-09	2.826756e+01	5.418885e+02
2.040000e-06	4.037777e-06	8.272536e-09	2.843627e+01	5.439205e+02
2.050000e-06	4.061048e-06	8.299223e-09	2.860016e+01	5.458404e+02
2.060000e-06	4.083525e-06	8.325304e-09	2.875846e+01	5.476331e+02
2.070000e-06	4.105257e-06	8.349232e-09	2.891150e+01	5.493050e+02
2.080000e-06	4.126237e-06	8.372439e-09	2.905926e+01	5.508819e+02
2.090000e-06	4.146333e-06	8.396992e-09	2.920079e+01	5.523990e+02
2.100000e-06	4.165587e-06	8.421887e-09	2.933638e+01	5.538864e+02
2.110000e-06	4.184140e-06	8.442613e-09	2.946705e+01	5.553570e+02
2.120000e-06	4.202035e-06	8.460179e-09	2.959307e+01	5.568016e+02
2.130000e-06	4.219252e-06	8.476878e-09	2.971433e+01	5.581940e+02
2.140000e-06	4.235676e-06	8.493696e-09	2.982999e+01	5.595020e+02
2.150000e-06	4.251337e-06	8.509913e-09	2.994028e+01	5.607022e+02
2.160000e-06	4.266309e-06	8.524356e-09	3.004572e+01	5.617895e+02
2.170000e-06	4.280589e-06	8.539805e-09	3.014629e+01	5.627795e+02
2.180000e-06	4.294088e-06	8.557126e-09	3.024136e+01	5.637016e+02
2.190000e-06	4.306786e-06	8.573092e-09	3.033078e+01	5.645867e+02
2.200000e-06	4.318799e-06	8.585149e-09	3.041539e+01	5.654542e+02
2.210000e-06	4.330125e-06	8.595447e-09	3.049515e+01	5.663043e+02
2.220000e-06	4.340693e-06	8.606147e-09	3.056958e+01	5.671189e+02
2.230000e-06	4.350404e-06	8.616007e-09	3.063797e+01	5.678706e+02
2.240000e-06	4.359302e-06	8.624543e-09	3.070063e+01	5.685347e+02
2.250000e-06	4.367495e-06	8.633630e-09	3.075833e+01	5.691012e+02
2.260000e-06	4.374985e-06	8.642814e-09	3.081108e+01	5.695785e+02
2.270000e-06	4.381671e-06	8.651185e-09	3.085817e+01	5.699902e+02
2.280000e-06	4.387518e-06	8.657531e-09	3.089934e+01	5.703638e+02
2.290000e-06	4.392578e-06	8.660675e-09	3.093498e+01	5.707183e+02
2.300000e-06	4.396769e-06	8.664277e-09	3.096450e+01	5.710558e+02
2.310000e-06	4.400086e-06	8.670790e-09	3.098786e+01	5.713605e+02
2.320000e-06	4.402636e-06	8.676789e-09	3.100582e+01	5.716064e+02
2.330000e-06	4.404449e-06	8.680227e-09	3.101858e+01	5.717708e+02
2.340000e-06	4.405486e-06	8.682468e-09	3.102588e+01	5.718459e+02
2.350000e-06	4.405701e-06	8.686147e-09	3.102740e+01	5.718450e+02
2.360000e-06	4.405151e-06	8.688879e-09	3.102353e+01	5.717988e+02
2.370000e-06	4.403919e-06	8.685681e-09	3.101485e+01	5.717423e+02
2.380000e-06	4.401984e-06	8.679965e-09	3.100123e+01	5.716984e+02
2.390000e-06	4.399236e-06	8.678390e-09	3.098187e+01	5.716654e+02
2.400000e-06	4.395726e-06	8.679611e-09	3.095715e+01	5.716130e+02
2.410000e-06	4.391533e-06	8.678551e-09	3.092762e+01	5.714915e+02
2.420000e-06	4.386569e-06	8.682075e-09	3.089266e+01	5.712501e+02
2.430000e-06	4.380773e-06	8.688565e-09	3.085184e+01	5.708588e+02
2.440000e-06	4.374099e-06	8.636321e-09	3.080485e+01	5.703247e+02
2.450000e-06	4.366290e-06	8.608177e-09	3.074985e+01	5.696956e+02
2.460000e-06	4.357272e-06	8.687247e-09	3.068634e+01	5.690485e+02
2.470000e-06	4.347746e-06	8.680972e-09	3.061925e+01	5.684663e+02
2.480000e-06	4.338188e-06	8.617606e-09	3.055194e+01	5.680106e+02
2.490000e-06	4.327880e-06	8.540465e-09	3.047934e+01	5.676997e+02
2.500000e-06	4.316307e-06	8.659790e-09	3.039784e+01	5.675013e+02
2.510000e-06	4.304333e-06	8.652471e-09	3.031351e+01	5.673409e+02
2.520000e-06	4.292113e-06	8.569871e-09	3.022745e+01	5.671248e+02
2.530000e-06	4.278693e-06	8.695124e-09	3.013294e+01	5.667687e+02
2.540000e-06	4.264376e-06	8.684148e-09	3.003211e+01	5.662219e+02
2.550000e-06	4.249763e-06	8.550915e-09	2.992920e+01	5.654789e+02
2.560000e-06	4.234276e-06	8.600477e-09	2.982013e+01	5.645753e+02
2.570000e-06	4.217749e-06	8.681883e-09	2.970374e+01	5.635699e+02
2.580000e-06	4.200650e-06	8.482012e-09	2.958332e+01	5.625208e+02
2.590000e-06	4.182780e-06	8.519577e-09	2.945746e+01	5.614644e+02
2.600000e-06	4.164104e-06	8.605438e-09	2.932594e+01	5.604054e+02
2.610000e-06	4.144890e-06	8.494286e-09	2.919062e+01	5.593199e+02
2.620000e-06	4.124750e-06	8.481177e-09	2.904879e+01	5.581695e+02
2.630000e-06	4.103540e-06	8.487026e-09	2.889941e+01	5.569202e+02
2.640000e-06	4.081729e-06	8.452669e-09	2.874581e+01	5.555575e+02
2.650000e-06	4.059178e-06	8.433116e-09	2.858699e+01	5.540920e+02
2.660000e-06	4.035752e-06	8.409701e-09	2.842202e+01	5.525538e+02
2.670000e-06	4.011708e-06	8.349395e-09	2.825268e+01	5.509792e+02
2.680000e-06	3.986867e-06	8.380577e-09	2.807774e+01	5.493941e+02
2.690000e-06	3.961274e-06	8.391042e-09	2.789750e+01	5.478040e+02
2.700000e-06	3.934986e-06	8.264153e-09	2.771236e+01	5.461924e+02
2.710000e-06	3.907908e-06	8.311274e-09	2.752166e+01	5.445291e+02
2.720000e-06	3.880230e-06	8.264300e-09	2.732674e+01	5.427843e+02
2.730000e-06	3.851813e-06	8.192953e-09	2.712661e+01	5.409423e+02
2.740000e-06	3.822518e-06	8.260135e-09	2.692030e+01	5.390091e+02
2.750000e-06	3.792612e-06	8.150924e-09	2.670969e+01	5.370095e+02
2.760000e-06	3.762026e-06	8.144057e-09	2.649428e+01	5.349770e+02
2.770000e-06	3.730575e-06	8.140679e-09	2.627279e+01	5.329391e+02
2.780000e-06	3.698426e-06	8.066320e-09	2.604637e+01	5.309055e+02
2.790000e-06	3.665682e-06	8.062366e-09	2.581578e+01	5.288636e+02
2.800000e-06	3.632370e-06	8.003230e-09	2.558117e+01	5.267842e+02
2.810000e-06	3.598487e-06	7.990983e-09	2.534255e+01	5.246330e+02
2.820000e-06	3.563887e-06	7.961376e-09	2.509888e+01	5.223856e+02
2.830000e-06	3.528620e-06	7.916056e-09	2.485051e+01	5.200370e+02
2.840000e-06	3.492766e-06	7.884606e-09	2.459800e+01	5.176031e+02
2.850000e-06	3.456313e-06	7.827726e-09	2.434128e+01	5.151130e+02
2.860000e-06	3.419350e-06	7.818988e-09	2.408097e+01	5.125955e+02
2.870000e-06	3.381779e-06	7.771312e-09	2.381637e+01	5.100654e+02
2.880000e-06	3.343565e-06	7.727129e-09	2.354725e+01	5.075167e+02
2.890000e-06	3.304788e-06	7.687964e-09	2.327416e+01	5.049237e+02
2.900000e-06	3.265477e-06	7.641957e-09	2.299731e+01	5.022516e+02
2.910000e-06	3.225664e-06	7.616226e-09	2.271692e+01	4.994707e+02
2.920000e-06	3.185241e-06	7.554000e-09	2.243224e+01	4.965695e+02
2.930000e-06	3.144177e-06	7.512652e-09	2.214304e+01	4.935589e+02
2.940000e-06	3.102551e-06	7.471789e-09	2.184989e+01	4.904685e+02
