# Temperatura_=_20.0
# Concentracion g/m^3_=_10000.0
# C_Vs_to_Am_M_A/Vsm_=_65563218390.804596
# pendiente_HvsI_1/m_=_3716.3
# ordenada_HvsI_A/m_=_1297.0
# frecuencia_Hz_=_212867.0899287623

Tiempo_(s)	Campo_(V.s)	Magnetizacion_(V.s)	Campo_(kA/m)	Magnetizacion_(A/m)
0.000000e+00	-4.392669e-06	-8.703716e-09	-3.099445e+01	-5.681530e+02
1.000000e-08	-4.391858e-06	-8.703068e-09	-3.098873e+01	-5.681255e+02
2.000000e-08	-4.390257e-06	-8.705735e-09	-3.097743e+01	-5.680584e+02
3.000000e-08	-4.387966e-06	-8.704787e-09	-3.096127e+01	-5.679568e+02
4.000000e-08	-4.385017e-06	-8.701887e-09	-3.094046e+01	-5.678221e+02
5.000000e-08	-4.381316e-06	-8.695648e-09	-3.091434e+01	-5.676488e+02
6.000000e-08	-4.376738e-06	-8.683450e-09	-3.088205e+01	-5.674253e+02
7.000000e-08	-4.371344e-06	-8.659016e-09	-3.084398e+01	-5.671389e+02
8.000000e-08	-4.365012e-06	-8.660464e-09	-3.079931e+01	-5.667829e+02
9.000000e-08	-4.357684e-06	-8.741387e-09	-3.074760e+01	-5.663637e+02
1.000000e-07	-4.349493e-06	-8.785248e-09	-3.068980e+01	-5.659031e+02
1.100000e-07	-4.340627e-06	-8.604212e-09	-3.062724e+01	-5.654350e+02
1.200000e-07	-4.331301e-06	-8.511653e-09	-3.056144e+01	-5.649960e+02
1.300000e-07	-4.321303e-06	-8.688428e-09	-3.049090e+01	-5.646124e+02
1.400000e-07	-4.310403e-06	-8.814392e-09	-3.041399e+01	-5.642890e+02
1.500000e-07	-4.298904e-06	-8.482252e-09	-3.033285e+01	-5.640042e+02
1.600000e-07	-4.286884e-06	-8.564120e-09	-3.024804e+01	-5.637130e+02
1.700000e-07	-4.273782e-06	-8.817853e-09	-3.015559e+01	-5.633590e+02
1.800000e-07	-4.259749e-06	-8.535285e-09	-3.005658e+01	-5.628913e+02
1.900000e-07	-4.245393e-06	-8.514718e-09	-2.995528e+01	-5.622792e+02
2.000000e-07	-4.230411e-06	-8.693985e-09	-2.984957e+01	-5.615215e+02
2.100000e-07	-4.214522e-06	-8.570504e-09	-2.973746e+01	-5.606453e+02
2.200000e-07	-4.197919e-06	-8.361321e-09	-2.962030e+01	-5.596947e+02
2.300000e-07	-4.180511e-06	-8.678927e-09	-2.949747e+01	-5.587141e+02
2.400000e-07	-4.162269e-06	-8.622039e-09	-2.936876e+01	-5.577321e+02
2.500000e-07	-4.143378e-06	-8.339711e-09	-2.923547e+01	-5.567511e+02
2.600000e-07	-4.123565e-06	-8.539528e-09	-2.909567e+01	-5.557474e+02
2.700000e-07	-4.102710e-06	-8.540130e-09	-2.894851e+01	-5.546813e+02
2.800000e-07	-4.081195e-06	-8.436783e-09	-2.879671e+01	-5.535126e+02
2.900000e-07	-4.058940e-06	-8.458259e-09	-2.863968e+01	-5.522169e+02
3.000000e-07	-4.035746e-06	-8.407721e-09	-2.847602e+01	-5.507943e+02
3.100000e-07	-4.011878e-06	-8.387823e-09	-2.830761e+01	-5.492698e+02
3.200000e-07	-3.987387e-06	-8.428271e-09	-2.813481e+01	-5.476827e+02
3.300000e-07	-3.962160e-06	-8.343141e-09	-2.795680e+01	-5.460718e+02
3.400000e-07	-3.936182e-06	-8.247888e-09	-2.777350e+01	-5.444604e+02
3.500000e-07	-3.909427e-06	-8.329241e-09	-2.758472e+01	-5.428483e+02
3.600000e-07	-3.881969e-06	-8.295739e-09	-2.739098e+01	-5.412130e+02
3.700000e-07	-3.853862e-06	-8.236804e-09	-2.719266e+01	-5.395199e+02
3.800000e-07	-3.825124e-06	-8.260878e-09	-2.698989e+01	-5.377367e+02
3.900000e-07	-3.795632e-06	-8.137705e-09	-2.678179e+01	-5.358477e+02
4.000000e-07	-3.765350e-06	-8.158599e-09	-2.656812e+01	-5.338599e+02
4.100000e-07	-3.734318e-06	-8.171050e-09	-2.634916e+01	-5.318002e+02
4.200000e-07	-3.702467e-06	-8.067058e-09	-2.612442e+01	-5.297053e+02
4.300000e-07	-3.669912e-06	-8.038514e-09	-2.589472e+01	-5.276062e+02
4.400000e-07	-3.636775e-06	-8.023220e-09	-2.566090e+01	-5.255165e+02
4.500000e-07	-3.603127e-06	-8.032680e-09	-2.542348e+01	-5.234264e+02
4.600000e-07	-3.568918e-06	-7.964069e-09	-2.518211e+01	-5.213067e+02
4.700000e-07	-3.534109e-06	-7.921531e-09	-2.493650e+01	-5.191203e+02
4.800000e-07	-3.498737e-06	-7.896862e-09	-2.468691e+01	-5.168362e+02
4.900000e-07	-3.462685e-06	-7.853875e-09	-2.443253e+01	-5.144414e+02
5.000000e-07	-3.426007e-06	-7.849549e-09	-2.417373e+01	-5.119449e+02
5.100000e-07	-3.388791e-06	-7.760604e-09	-2.391114e+01	-5.093728e+02
5.200000e-07	-3.351023e-06	-7.719680e-09	-2.364465e+01	-5.067573e+02
5.300000e-07	-3.312718e-06	-7.707788e-09	-2.337437e+01	-5.041227e+02
5.400000e-07	-3.273757e-06	-7.668179e-09	-2.309946e+01	-5.014757e+02
5.500000e-07	-3.234164e-06	-7.637496e-09	-2.282010e+01	-4.988017e+02
5.600000e-07	-3.194034e-06	-7.558306e-09	-2.253694e+01	-4.960713e+02
5.700000e-07	-3.153384e-06	-7.529803e-09	-2.225012e+01	-4.932510e+02
5.800000e-07	-3.112239e-06	-7.497496e-09	-2.195980e+01	-4.903160e+02
5.900000e-07	-3.070552e-06	-7.441121e-09	-2.166566e+01	-4.872594e+02
6.000000e-07	-3.028233e-06	-7.384627e-09	-2.136706e+01	-4.840932e+02
6.100000e-07	-2.985298e-06	-7.322254e-09	-2.106411e+01	-4.808427e+02
6.200000e-07	-2.941879e-06	-7.313437e-09	-2.075775e+01	-4.775356e+02
6.300000e-07	-2.897967e-06	-7.256431e-09	-2.044791e+01	-4.741904e+02
6.400000e-07	-2.853535e-06	-7.187508e-09	-2.013440e+01	-4.708099e+02
6.500000e-07	-2.808593e-06	-7.129462e-09	-1.981729e+01	-4.673806e+02
6.600000e-07	-2.763058e-06	-7.073566e-09	-1.949600e+01	-4.638796e+02
6.700000e-07	-2.716890e-06	-7.047578e-09	-1.917024e+01	-4.602846e+02
6.800000e-07	-2.670147e-06	-6.972628e-09	-1.884043e+01	-4.565833e+02
6.900000e-07	-2.622908e-06	-6.907038e-09	-1.850710e+01	-4.527782e+02
7.000000e-07	-2.575266e-06	-6.852546e-09	-1.817095e+01	-4.488849e+02
7.100000e-07	-2.527213e-06	-6.800598e-09	-1.783189e+01	-4.449243e+02
7.200000e-07	-2.478637e-06	-6.745949e-09	-1.748914e+01	-4.409133e+02
7.300000e-07	-2.429519e-06	-6.653879e-09	-1.714256e+01	-4.368569e+02
7.400000e-07	-2.379948e-06	-6.599116e-09	-1.679279e+01	-4.327457e+02
7.500000e-07	-2.329989e-06	-6.546162e-09	-1.644028e+01	-4.285592e+02
7.600000e-07	-2.279625e-06	-6.486041e-09	-1.608492e+01	-4.242744e+02
7.700000e-07	-2.228896e-06	-6.415898e-09	-1.572698e+01	-4.198745e+02
7.800000e-07	-2.177871e-06	-6.327332e-09	-1.536695e+01	-4.153557e+02
7.900000e-07	-2.126485e-06	-6.271812e-09	-1.500437e+01	-4.107275e+02
8.000000e-07	-2.074628e-06	-6.201302e-09	-1.463847e+01	-4.060076e+02
8.100000e-07	-2.022340e-06	-6.125105e-09	-1.426953e+01	-4.012139e+02
8.200000e-07	-1.969718e-06	-6.043411e-09	-1.389823e+01	-3.963553e+02
8.300000e-07	-1.916800e-06	-5.964178e-09	-1.352484e+01	-3.914279e+02
8.400000e-07	-1.863575e-06	-5.908189e-09	-1.314929e+01	-3.864159e+02
8.500000e-07	-1.810055e-06	-5.823334e-09	-1.277166e+01	-3.812979e+02
8.600000e-07	-1.756256e-06	-5.736398e-09	-1.239205e+01	-3.760558e+02
8.700000e-07	-1.702188e-06	-5.647816e-09	-1.201055e+01	-3.706822e+02
8.800000e-07	-1.647880e-06	-5.566684e-09	-1.162736e+01	-3.651831e+02
8.900000e-07	-1.593275e-06	-5.491621e-09	-1.124207e+01	-3.595747e+02
9.000000e-07	-1.538323e-06	-5.390988e-09	-1.085433e+01	-3.538759e+02
9.100000e-07	-1.483060e-06	-5.303403e-09	-1.046440e+01	-3.480993e+02
9.200000e-07	-1.427492e-06	-5.216009e-09	-1.007231e+01	-3.422449e+02
9.300000e-07	-1.371638e-06	-5.130824e-09	-9.678210e+00	-3.362992e+02
9.400000e-07	-1.315546e-06	-5.039784e-09	-9.282429e+00	-3.302399e+02
9.500000e-07	-1.259214e-06	-4.931870e-09	-8.884953e+00	-3.240439e+02
9.600000e-07	-1.202636e-06	-4.840827e-09	-8.485737e+00	-3.176968e+02
9.700000e-07	-1.145778e-06	-4.743424e-09	-8.084549e+00	-3.111968e+02
9.800000e-07	-1.088676e-06	-4.644078e-09	-7.681647e+00	-3.045546e+02
9.900000e-07	-1.031354e-06	-4.535495e-09	-7.277182e+00	-2.977870e+02
1.000000e-06	-9.737659e-07	-4.423011e-09	-6.870843e+00	-2.909080e+02
1.010000e-06	-9.159820e-07	-4.325274e-09	-6.463123e+00	-2.839215e+02
1.020000e-06	-8.580458e-07	-4.213333e-09	-6.054328e+00	-2.768180e+02
1.030000e-06	-7.999536e-07	-4.100403e-09	-5.644433e+00	-2.695779e+02
1.040000e-06	-7.417067e-07	-3.981241e-09	-5.233446e+00	-2.621795e+02
1.050000e-06	-6.833169e-07	-3.867714e-09	-4.821450e+00	-2.546084e+02
1.060000e-06	-6.248001e-07	-3.759901e-09	-4.408558e+00	-2.468640e+02
1.070000e-06	-5.661698e-07	-3.633677e-09	-3.994866e+00	-2.389598e+02
1.080000e-06	-5.074629e-07	-3.508726e-09	-3.580633e+00	-2.309183e+02
1.090000e-06	-4.486895e-07	-3.379401e-09	-3.165931e+00	-2.227600e+02
1.100000e-06	-3.898530e-07	-3.255585e-09	-2.750783e+00	-2.144934e+02
1.110000e-06	-3.309523e-07	-3.129293e-09	-2.335183e+00	-2.061087e+02
1.120000e-06	-2.719894e-07	-2.991843e-09	-1.919144e+00	-1.975792e+02
1.130000e-06	-2.129852e-07	-2.861865e-09	-1.502813e+00	-1.888698e+02
1.140000e-06	-1.539490e-07	-2.725753e-09	-1.086257e+00	-1.799492e+02
1.150000e-06	-9.489490e-08	-2.589498e-09	-6.695737e-01	-1.708019e+02
1.160000e-06	-3.584134e-08	-2.444213e-09	-2.528947e-01	-1.614341e+02
1.170000e-06	2.320854e-08	-2.291600e-09	1.637583e-01	-1.518714e+02
1.180000e-06	8.224213e-08	-2.146153e-09	5.802964e-01	-1.421487e+02
1.190000e-06	1.412349e-07	-1.996390e-09	9.965465e-01	-1.322960e+02
1.200000e-06	2.001719e-07	-1.846769e-09	1.412403e+00	-1.223261e+02
1.210000e-06	2.590625e-07	-1.688172e-09	1.827932e+00	-1.122287e+02
1.220000e-06	3.179137e-07	-1.529346e-09	2.243183e+00	-1.019732e+02
1.230000e-06	3.767079e-07	-1.373367e-09	2.658032e+00	-9.152012e+01
1.240000e-06	4.354380e-07	-1.206890e-09	3.072429e+00	-8.083570e+01
1.250000e-06	4.940833e-07	-1.037270e-09	3.486227e+00	-6.990455e+01
1.260000e-06	5.526256e-07	-8.618451e-10	3.899299e+00	-5.873538e+01
1.270000e-06	6.110609e-07	-6.901413e-10	4.311615e+00	-4.735728e+01
1.280000e-06	6.693787e-07	-5.178304e-10	4.723102e+00	-3.580859e+01
1.290000e-06	7.275551e-07	-3.355782e-10	5.133592e+00	-2.412261e+01
1.300000e-06	7.855875e-07	-1.534072e-10	5.543066e+00	-1.231626e+01
1.310000e-06	8.434880e-07	3.364693e-11	5.951609e+00	-3.863141e-01
1.320000e-06	9.012335e-07	2.172484e-10	6.359059e+00	1.168531e+01
1.330000e-06	9.588071e-07	4.044982e-10	6.765295e+00	2.391939e+01
1.340000e-06	1.016199e-06	5.980937e-10	7.170247e+00	3.632535e+01
1.350000e-06	1.073404e-06	7.894616e-10	7.573886e+00	4.889137e+01
1.360000e-06	1.130409e-06	9.841127e-10	7.976107e+00	6.158261e+01
1.370000e-06	1.187211e-06	1.177247e-09	8.376899e+00	7.434872e+01
1.380000e-06	1.243804e-06	1.376104e-09	8.776221e+00	8.713740e+01
1.390000e-06	1.300191e-06	1.573421e-09	9.174086e+00	9.990863e+01
1.400000e-06	1.356379e-06	1.767071e-09	9.570541e+00	1.126436e+02
1.410000e-06	1.412339e-06	1.963403e-09	9.965396e+00	1.253444e+02
1.420000e-06	1.468030e-06	2.159669e-09	1.035835e+01	1.380250e+02
1.430000e-06	1.523414e-06	2.357219e-09	1.074913e+01	1.506961e+02
1.440000e-06	1.578474e-06	2.546399e-09	1.113763e+01	1.633513e+02
1.450000e-06	1.633210e-06	2.732178e-09	1.152385e+01	1.759587e+02
1.460000e-06	1.687622e-06	2.921510e-09	1.190777e+01	1.884640e+02
1.470000e-06	1.741713e-06	3.109075e-09	1.228944e+01	2.008016e+02
1.480000e-06	1.795516e-06	3.294878e-09	1.266907e+01	2.129113e+02
1.490000e-06	1.849018e-06	3.474653e-09	1.304658e+01	2.247535e+02
1.500000e-06	1.902213e-06	3.654393e-09	1.342192e+01	2.363172e+02
1.510000e-06	1.955151e-06	3.831905e-09	1.379545e+01	2.476173e+02
1.520000e-06	2.007767e-06	4.000002e-09	1.416670e+01	2.586826e+02
1.530000e-06	2.059962e-06	4.162028e-09	1.453499e+01	2.695397e+02
1.540000e-06	2.111703e-06	4.318214e-09	1.490007e+01	2.801982e+02
1.550000e-06	2.162997e-06	4.477135e-09	1.526200e+01	2.906445e+02
1.560000e-06	2.213909e-06	4.635360e-09	1.562123e+01	3.008452e+02
1.570000e-06	2.264474e-06	4.788010e-09	1.597801e+01	3.107600e+02
1.580000e-06	2.314632e-06	4.936662e-09	1.633193e+01	3.203573e+02
1.590000e-06	2.364426e-06	5.079691e-09	1.668327e+01	3.296269e+02
1.600000e-06	2.413854e-06	5.220000e-09	1.703203e+01	3.385842e+02
1.610000e-06	2.462792e-06	5.351634e-09	1.737734e+01	3.472638e+02
1.620000e-06	2.511207e-06	5.474820e-09	1.771895e+01	3.557054e+02
1.630000e-06	2.559129e-06	5.595134e-09	1.805709e+01	3.639374e+02
1.640000e-06	2.606619e-06	5.715643e-09	1.839217e+01	3.719646e+02
1.650000e-06	2.653668e-06	5.837965e-09	1.872415e+01	3.797659e+02
1.660000e-06	2.700240e-06	5.953747e-09	1.905276e+01	3.873029e+02
1.670000e-06	2.746294e-06	6.063311e-09	1.937771e+01	3.945356e+02
1.680000e-06	2.791728e-06	6.167733e-09	1.969829e+01	4.014402e+02
1.690000e-06	2.836579e-06	6.266231e-09	2.001476e+01	4.080211e+02
1.700000e-06	2.880972e-06	6.361012e-09	2.032799e+01	4.143128e+02
1.710000e-06	2.924891e-06	6.450468e-09	2.063789e+01	4.203707e+02
1.720000e-06	2.968339e-06	6.539182e-09	2.094445e+01	4.262545e+02
1.730000e-06	3.011357e-06	6.626044e-09	2.124799e+01	4.320096e+02
1.740000e-06	3.053860e-06	6.709982e-09	2.154788e+01	4.376552e+02
1.750000e-06	3.095750e-06	6.791671e-09	2.184346e+01	4.431821e+02
1.760000e-06	3.137064e-06	6.870247e-09	2.213497e+01	4.485608e+02
1.770000e-06	3.177851e-06	6.949669e-09	2.242276e+01	4.537574e+02
1.780000e-06	3.218118e-06	7.026508e-09	2.270688e+01	4.587497e+02
1.790000e-06	3.257859e-06	7.099217e-09	2.298729e+01	4.635379e+02
1.800000e-06	3.296974e-06	7.168257e-09	2.326328e+01	4.681450e+02
1.810000e-06	3.335430e-06	7.235427e-09	2.353463e+01	4.726082e+02
1.820000e-06	3.373312e-06	7.301491e-09	2.380192e+01	4.769643e+02
1.830000e-06	3.410658e-06	7.361957e-09	2.406543e+01	4.812349e+02
1.840000e-06	3.447460e-06	7.420082e-09	2.432510e+01	4.854190e+02
1.850000e-06	3.483653e-06	7.478039e-09	2.458048e+01	4.894940e+02
1.860000e-06	3.519163e-06	7.535689e-09	2.483104e+01	4.934265e+02
1.870000e-06	3.554031e-06	7.591384e-09	2.507706e+01	4.971867e+02
1.880000e-06	3.588305e-06	7.643681e-09	2.531890e+01	5.007623e+02
1.890000e-06	3.622003e-06	7.695589e-09	2.555667e+01	5.041645e+02
1.900000e-06	3.655118e-06	7.744693e-09	2.579033e+01	5.074247e+02
1.910000e-06	3.687547e-06	7.789107e-09	2.601915e+01	5.105833e+02
1.920000e-06	3.719280e-06	7.830936e-09	2.624305e+01	5.136745e+02
1.930000e-06	3.750354e-06	7.871861e-09	2.646231e+01	5.167132e+02
1.940000e-06	3.780751e-06	7.913848e-09	2.667679e+01	5.196905e+02
1.950000e-06	3.810401e-06	7.954973e-09	2.688600e+01	5.225769e+02
1.960000e-06	3.839302e-06	7.994774e-09	2.708993e+01	5.253348e+02
1.970000e-06	3.867500e-06	8.033679e-09	2.728889e+01	5.279333e+02
1.980000e-06	3.895031e-06	8.071277e-09	2.748315e+01	5.303600e+02
1.990000e-06	3.921873e-06	8.107086e-09	2.767254e+01	5.326260e+02
2.000000e-06	3.947944e-06	8.138513e-09	2.785649e+01	5.347616e+02
2.010000e-06	3.973315e-06	8.166534e-09	2.803551e+01	5.368052e+02
2.020000e-06	3.998046e-06	8.192698e-09	2.821001e+01	5.387899e+02
2.030000e-06	4.022144e-06	8.218161e-09	2.838005e+01	5.407328e+02
2.040000e-06	4.045568e-06	8.243907e-09	2.854533e+01	5.426317e+02
2.050000e-06	4.068213e-06	8.270168e-09	2.870511e+01	5.444691e+02
2.060000e-06	4.090122e-06	8.296447e-09	2.885970e+01	5.462224e+02
2.070000e-06	4.111320e-06	8.320888e-09	2.900927e+01	5.478747e+02
2.080000e-06	4.131697e-06	8.344860e-09	2.915305e+01	5.494233e+02
2.090000e-06	4.151207e-06	8.367832e-09	2.929071e+01	5.508802e+02
2.100000e-06	4.169957e-06	8.388043e-09	2.942301e+01	5.522678e+02
2.110000e-06	4.188037e-06	8.405634e-09	2.955058e+01	5.536087e+02
2.120000e-06	4.205462e-06	8.422017e-09	2.967353e+01	5.549167e+02
2.130000e-06	4.222111e-06	8.439000e-09	2.979101e+01	5.561911e+02
2.140000e-06	4.237967e-06	8.456019e-09	2.990288e+01	5.574177e+02
2.150000e-06	4.253143e-06	8.473001e-09	3.000996e+01	5.585750e+02
2.160000e-06	4.267646e-06	8.490668e-09	3.011229e+01	5.596438e+02
2.170000e-06	4.281386e-06	8.507534e-09	3.020925e+01	5.606153e+02
2.180000e-06	4.294303e-06	8.521304e-09	3.030039e+01	5.614951e+02
2.190000e-06	4.306498e-06	8.531755e-09	3.038643e+01	5.623013e+02
2.200000e-06	4.318046e-06	8.542274e-09	3.046792e+01	5.630572e+02
2.210000e-06	4.328876e-06	8.553157e-09	3.054433e+01	5.637823e+02
2.220000e-06	4.338842e-06	8.563549e-09	3.061465e+01	5.644859e+02
2.230000e-06	4.347977e-06	8.572594e-09	3.067911e+01	5.651634e+02
2.240000e-06	4.356408e-06	8.580406e-09	3.073860e+01	5.657999e+02
2.250000e-06	4.364173e-06	8.590152e-09	3.079339e+01	5.663765e+02
2.260000e-06	4.371160e-06	8.600206e-09	3.084269e+01	5.668777e+02
2.270000e-06	4.377291e-06	8.607623e-09	3.088595e+01	5.672972e+02
2.280000e-06	4.382619e-06	8.611903e-09	3.092354e+01	5.676392e+02
2.290000e-06	4.387120e-06	8.615926e-09	3.095530e+01	5.679150e+02
2.300000e-06	4.390728e-06	8.621210e-09	3.098076e+01	5.681382e+02
2.310000e-06	4.393514e-06	8.625281e-09	3.100041e+01	5.683190e+02
2.320000e-06	4.395572e-06	8.626951e-09	3.101494e+01	5.684613e+02
2.330000e-06	4.396868e-06	8.630030e-09	3.102408e+01	5.685637e+02
2.340000e-06	4.397338e-06	8.634751e-09	3.102740e+01	5.686222e+02
2.350000e-06	4.397032e-06	8.639693e-09	3.102524e+01	5.686347e+02
2.360000e-06	4.396023e-06	8.638746e-09	3.101812e+01	5.686030e+02
2.370000e-06	4.394337e-06	8.630830e-09	3.100622e+01	5.685323e+02
2.380000e-06	4.391865e-06	8.629492e-09	3.098878e+01	5.684275e+02
2.390000e-06	4.388585e-06	8.630057e-09	3.096564e+01	5.682893e+02
2.400000e-06	4.384639e-06	8.627315e-09	3.093779e+01	5.681115e+02
2.410000e-06	4.379965e-06	8.636616e-09	3.090481e+01	5.678823e+02
2.420000e-06	4.374448e-06	8.667410e-09	3.086589e+01	5.675890e+02
2.430000e-06	4.368088e-06	8.569687e-09	3.082101e+01	5.672262e+02
2.440000e-06	4.360703e-06	8.478692e-09	3.076890e+01	5.668016e+02
2.450000e-06	4.352018e-06	8.619315e-09	3.070762e+01	5.663386e+02
2.460000e-06	4.342567e-06	8.757107e-09	3.064094e+01	5.658719e+02
2.470000e-06	4.333114e-06	8.600166e-09	3.057424e+01	5.654375e+02
2.480000e-06	4.323241e-06	8.360029e-09	3.050457e+01	5.650601e+02
2.490000e-06	4.312036e-06	8.684575e-09	3.042551e+01	5.647421e+02
2.500000e-06	4.300078e-06	8.706279e-09	3.034114e+01	5.644590e+02
2.510000e-06	4.288104e-06	8.394553e-09	3.025665e+01	5.641640e+02
2.520000e-06	4.275146e-06	8.552591e-09	3.016522e+01	5.638008e+02
2.530000e-06	4.261016e-06	8.754241e-09	3.006551e+01	5.633195e+02
2.540000e-06	4.246564e-06	8.442629e-09	2.996354e+01	5.626924e+02
2.550000e-06	4.231481e-06	8.448743e-09	2.985712e+01	5.619213e+02
2.560000e-06	4.215270e-06	8.811127e-09	2.974274e+01	5.610356e+02
2.570000e-06	4.198402e-06	8.429886e-09	2.962372e+01	5.600801e+02
2.580000e-06	4.180911e-06	8.330980e-09	2.950030e+01	5.590985e+02
2.590000e-06	4.162472e-06	8.655423e-09	2.937019e+01	5.581170e+02
2.600000e-06	4.143523e-06	8.520591e-09	2.923649e+01	5.571352e+02
2.610000e-06	4.123832e-06	8.334749e-09	2.909756e+01	5.561272e+02
2.620000e-06	4.102967e-06	8.504308e-09	2.895033e+01	5.550524e+02
2.630000e-06	4.081465e-06	8.432719e-09	2.879862e+01	5.538718e+02
2.640000e-06	4.059266e-06	8.364989e-09	2.864197e+01	5.525629e+02
2.650000e-06	4.036106e-06	8.475622e-09	2.847856e+01	5.511287e+02
2.660000e-06	4.012312e-06	8.235524e-09	2.831067e+01	5.495961e+02
2.670000e-06	3.987785e-06	8.326976e-09	2.813761e+01	5.480050e+02
2.680000e-06	3.962461e-06	8.469325e-09	2.795893e+01	5.463933e+02
2.690000e-06	3.936481e-06	8.182697e-09	2.777561e+01	5.447823e+02
2.700000e-06	3.909725e-06	8.283921e-09	2.758683e+01	5.431693e+02
2.710000e-06	3.882311e-06	8.275496e-09	2.739339e+01	5.415298e+02
2.720000e-06	3.854274e-06	8.134128e-09	2.719557e+01	5.398289e+02
2.730000e-06	3.825337e-06	8.254600e-09	2.699138e+01	5.380356e+02
2.740000e-06	3.795669e-06	8.161085e-09	2.678205e+01	5.361360e+02
2.750000e-06	3.765404e-06	8.088838e-09	2.656850e+01	5.341395e+02
2.760000e-06	3.734265e-06	8.127153e-09	2.634879e+01	5.320746e+02
2.770000e-06	3.702368e-06	8.089182e-09	2.612372e+01	5.299781e+02
2.780000e-06	3.669871e-06	8.028355e-09	2.589442e+01	5.278798e+02
2.790000e-06	3.636760e-06	7.989396e-09	2.566080e+01	5.257909e+02
2.800000e-06	3.603154e-06	7.969679e-09	2.542367e+01	5.236994e+02
2.810000e-06	3.568877e-06	7.953017e-09	2.518182e+01	5.215747e+02
2.820000e-06	3.533886e-06	7.929158e-09	2.493492e+01	5.193797e+02
2.830000e-06	3.498324e-06	7.854401e-09	2.468400e+01	5.170848e+02
2.840000e-06	3.462153e-06	7.824620e-09	2.442878e+01	5.146791e+02
2.850000e-06	3.425457e-06	7.805034e-09	2.416986e+01	5.121736e+02
2.860000e-06	3.388138e-06	7.772808e-09	2.390653e+01	5.095957e+02
2.870000e-06	3.350148e-06	7.730715e-09	2.363848e+01	5.069775e+02
2.880000e-06	3.311615e-06	7.655828e-09	2.336659e+01	5.043418e+02
2.890000e-06	3.272539e-06	7.651474e-09	2.309087e+01	5.016930e+02
2.900000e-06	3.232956e-06	7.604635e-09	2.281158e+01	4.990149e+02
2.910000e-06	3.192813e-06	7.560794e-09	2.252833e+01	4.962770e+02
2.920000e-06	3.152008e-06	7.518054e-09	2.224041e+01	4.934460e+02
2.930000e-06	3.110609e-06	7.447041e-09	2.194830e+01	4.904989e+02
2.940000e-06	3.068706e-06	7.459728e-09	2.165263e+01	4.874305e+02
