# Temperatura_=_20.0
# Concentracion g/m^3_=_10000.0
# C_Vs_to_Am_M_A/Vsm_=_65563218390.804596
# pendiente_HvsI_1/m_=_3716.3
# ordenada_HvsI_A/m_=_1297.0
# frecuencia_Hz_=_212867.21250794694

Tiempo_(s)	Campo_(V.s)	Magnetizacion_(V.s)	Campo_(kA/m)	Magnetizacion_(A/m)
0.000000e+00	-4.383435e-06	-8.711031e-09	-3.099435e+01	-5.672781e+02
1.000000e-08	-4.382546e-06	-8.707579e-09	-3.098806e+01	-5.672382e+02
2.000000e-08	-4.380888e-06	-8.705387e-09	-3.097634e+01	-5.671528e+02
3.000000e-08	-4.378539e-06	-8.701342e-09	-3.095973e+01	-5.670331e+02
4.000000e-08	-4.375536e-06	-8.697877e-09	-3.093850e+01	-5.668857e+02
5.000000e-08	-4.371760e-06	-8.695050e-09	-3.091180e+01	-5.667075e+02
6.000000e-08	-4.367106e-06	-8.689472e-09	-3.087889e+01	-5.664862e+02
7.000000e-08	-4.361621e-06	-8.673563e-09	-3.084010e+01	-5.662043e+02
8.000000e-08	-4.355200e-06	-8.677285e-09	-3.079470e+01	-5.658484e+02
9.000000e-08	-4.347818e-06	-8.729979e-09	-3.074251e+01	-5.654178e+02
1.000000e-07	-4.339610e-06	-8.744595e-09	-3.068447e+01	-5.649288e+02
1.100000e-07	-4.330768e-06	-8.614435e-09	-3.062195e+01	-5.644139e+02
1.200000e-07	-4.321427e-06	-8.557213e-09	-3.055590e+01	-5.639128e+02
1.300000e-07	-4.311388e-06	-8.692227e-09	-3.048491e+01	-5.634599e+02
1.400000e-07	-4.300485e-06	-8.747505e-09	-3.040782e+01	-5.630719e+02
1.500000e-07	-4.289007e-06	-8.527629e-09	-3.032667e+01	-5.627400e+02
1.600000e-07	-4.276922e-06	-8.584834e-09	-3.024121e+01	-5.624310e+02
1.700000e-07	-4.263770e-06	-8.738424e-09	-3.014822e+01	-5.620958e+02
1.800000e-07	-4.249791e-06	-8.551797e-09	-3.004938e+01	-5.616838e+02
1.900000e-07	-4.235431e-06	-8.517338e-09	-2.994784e+01	-5.611578e+02
2.000000e-07	-4.220411e-06	-8.638112e-09	-2.984164e+01	-5.605030e+02
2.100000e-07	-4.204546e-06	-8.528998e-09	-2.972946e+01	-5.597295e+02
2.200000e-07	-4.187935e-06	-8.404237e-09	-2.961201e+01	-5.588644e+02
2.300000e-07	-4.170460e-06	-8.622430e-09	-2.948844e+01	-5.579398e+02
2.400000e-07	-4.152193e-06	-8.555361e-09	-2.935929e+01	-5.569799e+02
2.500000e-07	-4.133260e-06	-8.368046e-09	-2.922541e+01	-5.559920e+02
2.600000e-07	-4.113371e-06	-8.509250e-09	-2.908478e+01	-5.549653e+02
2.700000e-07	-4.092495e-06	-8.504598e-09	-2.893717e+01	-5.538775e+02
2.800000e-07	-4.070967e-06	-8.401591e-09	-2.878495e+01	-5.527050e+02
2.900000e-07	-4.048683e-06	-8.427732e-09	-2.862738e+01	-5.514337e+02
3.000000e-07	-4.025502e-06	-8.396121e-09	-2.846348e+01	-5.500645e+02
3.100000e-07	-4.001652e-06	-8.351900e-09	-2.829484e+01	-5.486124e+02
3.200000e-07	-3.977141e-06	-8.384513e-09	-2.812153e+01	-5.470996e+02
3.300000e-07	-3.951894e-06	-8.317338e-09	-2.794301e+01	-5.455451e+02
3.400000e-07	-3.925942e-06	-8.238878e-09	-2.775951e+01	-5.439571e+02
3.500000e-07	-3.899223e-06	-8.289357e-09	-2.757059e+01	-5.423292e+02
3.600000e-07	-3.871782e-06	-8.263017e-09	-2.737655e+01	-5.406448e+02
3.700000e-07	-3.843674e-06	-8.207941e-09	-2.717781e+01	-5.388852e+02
3.800000e-07	-3.814915e-06	-8.206131e-09	-2.697446e+01	-5.370394e+02
3.900000e-07	-3.785391e-06	-8.133423e-09	-2.676571e+01	-5.351108e+02
4.000000e-07	-3.755086e-06	-8.128669e-09	-2.655142e+01	-5.331174e+02
4.100000e-07	-3.724058e-06	-8.123876e-09	-2.633203e+01	-5.310855e+02
4.200000e-07	-3.692210e-06	-8.052086e-09	-2.610684e+01	-5.290388e+02
4.300000e-07	-3.659651e-06	-8.016133e-09	-2.587662e+01	-5.269886e+02
4.400000e-07	-3.626536e-06	-8.006265e-09	-2.564247e+01	-5.249282e+02
4.500000e-07	-3.592915e-06	-7.996469e-09	-2.540474e+01	-5.228345e+02
4.600000e-07	-3.558743e-06	-7.936045e-09	-2.516312e+01	-5.206771e+02
4.700000e-07	-3.523993e-06	-7.894425e-09	-2.491741e+01	-5.184298e+02
4.800000e-07	-3.488691e-06	-7.864176e-09	-2.466780e+01	-5.160813e+02
4.900000e-07	-3.452716e-06	-7.830490e-09	-2.441343e+01	-5.136395e+02
5.000000e-07	-3.416066e-06	-7.812182e-09	-2.415429e+01	-5.111286e+02
5.100000e-07	-3.378851e-06	-7.747215e-09	-2.389115e+01	-5.085778e+02
5.200000e-07	-3.341073e-06	-7.705494e-09	-2.362403e+01	-5.060094e+02
5.300000e-07	-3.302787e-06	-7.683317e-09	-2.335331e+01	-5.034280e+02
5.400000e-07	-3.263947e-06	-7.643335e-09	-2.307868e+01	-5.008172e+02
5.500000e-07	-3.224440e-06	-7.598196e-09	-2.279934e+01	-4.981454e+02
5.600000e-07	-3.184325e-06	-7.539489e-09	-2.251569e+01	-4.953776e+02
5.700000e-07	-3.143697e-06	-7.508956e-09	-2.222842e+01	-4.924889e+02
5.800000e-07	-3.102568e-06	-7.474789e-09	-2.193760e+01	-4.894750e+02
5.900000e-07	-3.060905e-06	-7.424904e-09	-2.164301e+01	-4.863539e+02
6.000000e-07	-3.018608e-06	-7.367426e-09	-2.134394e+01	-4.831592e+02
6.100000e-07	-2.975701e-06	-7.310860e-09	-2.104056e+01	-4.799271e+02
6.200000e-07	-2.932313e-06	-7.280862e-09	-2.073377e+01	-4.766814e+02
6.300000e-07	-2.888427e-06	-7.226948e-09	-2.042346e+01	-4.734244e+02
6.400000e-07	-2.844033e-06	-7.165694e-09	-2.010956e+01	-4.701357e+02
6.500000e-07	-2.799154e-06	-7.112109e-09	-1.979223e+01	-4.667799e+02
6.600000e-07	-2.753727e-06	-7.064937e-09	-1.947103e+01	-4.633205e+02
6.700000e-07	-2.707682e-06	-7.027542e-09	-1.914545e+01	-4.597344e+02
6.800000e-07	-2.661024e-06	-6.961450e-09	-1.881554e+01	-4.560204e+02
6.900000e-07	-2.613829e-06	-6.895193e-09	-1.848184e+01	-4.521989e+02
7.000000e-07	-2.566209e-06	-6.837136e-09	-1.814512e+01	-4.483030e+02
7.100000e-07	-2.518209e-06	-6.785641e-09	-1.780573e+01	-4.443640e+02
7.200000e-07	-2.469699e-06	-6.727796e-09	-1.746272e+01	-4.403981e+02
7.300000e-07	-2.420617e-06	-6.648834e-09	-1.711568e+01	-4.363984e+02
7.400000e-07	-2.371091e-06	-6.588805e-09	-1.676548e+01	-4.323375e+02
7.500000e-07	-2.321196e-06	-6.534849e-09	-1.641269e+01	-4.281769e+02
7.600000e-07	-2.270926e-06	-6.477337e-09	-1.605724e+01	-4.238826e+02
7.700000e-07	-2.220297e-06	-6.407789e-09	-1.569925e+01	-4.194373e+02
7.800000e-07	-2.169349e-06	-6.327358e-09	-1.533901e+01	-4.148474e+02
7.900000e-07	-2.118074e-06	-6.262894e-09	-1.497646e+01	-4.101393e+02
8.000000e-07	-2.066352e-06	-6.191546e-09	-1.461074e+01	-4.053488e+02
8.100000e-07	-2.014124e-06	-6.113138e-09	-1.424145e+01	-4.005064e+02
8.200000e-07	-1.961534e-06	-6.028904e-09	-1.386960e+01	-3.956255e+02
8.300000e-07	-1.908696e-06	-5.952740e-09	-1.349598e+01	-3.906974e+02
8.400000e-07	-1.855589e-06	-5.891322e-09	-1.312048e+01	-3.856957e+02
8.500000e-07	-1.802167e-06	-5.814063e-09	-1.274274e+01	-3.805878e+02
8.600000e-07	-1.748447e-06	-5.730410e-09	-1.236290e+01	-3.753479e+02
8.700000e-07	-1.694450e-06	-5.642910e-09	-1.198110e+01	-3.699677e+02
8.800000e-07	-1.640200e-06	-5.559400e-09	-1.159751e+01	-3.644578e+02
8.900000e-07	-1.585724e-06	-5.476943e-09	-1.121232e+01	-3.588426e+02
9.000000e-07	-1.530936e-06	-5.380635e-09	-1.082493e+01	-3.531476e+02
9.100000e-07	-1.475788e-06	-5.290826e-09	-1.043498e+01	-3.473875e+02
9.200000e-07	-1.420300e-06	-5.204270e-09	-1.004264e+01	-3.415579e+02
9.300000e-07	-1.364522e-06	-5.120656e-09	-9.648248e+00	-3.356365e+02
9.400000e-07	-1.308503e-06	-5.030603e-09	-9.252151e+00	-3.295909e+02
9.500000e-07	-1.252257e-06	-4.927633e-09	-8.854443e+00	-3.233917e+02
9.600000e-07	-1.195790e-06	-4.830732e-09	-8.455180e+00	-3.170244e+02
9.700000e-07	-1.139089e-06	-4.731754e-09	-8.054260e+00	-3.104948e+02
9.800000e-07	-1.082149e-06	-4.630053e-09	-7.651646e+00	-3.038255e+02
9.900000e-07	-1.024893e-06	-4.521128e-09	-7.246805e+00	-2.970458e+02
1.000000e-06	-9.673448e-07	-4.413285e-09	-6.839891e+00	-2.901771e+02
1.010000e-06	-9.096333e-07	-4.314678e-09	-6.431826e+00	-2.832225e+02
1.020000e-06	-8.517610e-07	-4.207322e-09	-6.022623e+00	-2.761632e+02
1.030000e-06	-7.937469e-07	-4.092406e-09	-5.612417e+00	-2.689644e+02
1.040000e-06	-7.356019e-07	-3.971993e-09	-5.201286e+00	-2.615887e+02
1.050000e-06	-6.773220e-07	-3.857726e-09	-4.789201e+00	-2.540108e+02
1.060000e-06	-6.189390e-07	-3.744398e-09	-4.376387e+00	-2.462278e+02
1.070000e-06	-5.604590e-07	-3.619188e-09	-3.962888e+00	-2.382605e+02
1.080000e-06	-5.018925e-07	-3.494439e-09	-3.548777e+00	-2.301448e+02
1.090000e-06	-4.432011e-07	-3.369944e-09	-3.133782e+00	-2.219164e+02
1.100000e-06	-3.844028e-07	-3.247185e-09	-2.718031e+00	-2.135946e+02
1.110000e-06	-3.255614e-07	-3.118403e-09	-2.301976e+00	-2.051732e+02
1.120000e-06	-2.666702e-07	-2.980330e-09	-1.885569e+00	-1.966204e+02
1.130000e-06	-2.077237e-07	-2.844802e-09	-1.468770e+00	-1.878906e+02
1.140000e-06	-1.487626e-07	-2.708281e-09	-1.051869e+00	-1.789414e+02
1.150000e-06	-8.980647e-08	-2.570106e-09	-6.350026e-01	-1.697506e+02
1.160000e-06	-3.082895e-08	-2.424334e-09	-2.179850e-01	-1.603259e+02
1.170000e-06	2.816648e-08	-2.274575e-09	1.991593e-01	-1.507020e+02
1.180000e-06	8.715214e-08	-2.128045e-09	6.162344e-01	-1.409278e+02
1.190000e-06	1.461008e-07	-1.978094e-09	1.033048e+00	-1.310466e+02
1.200000e-06	2.050020e-07	-1.824971e-09	1.449526e+00	-1.210781e+02
1.210000e-06	2.638609e-07	-1.664862e-09	1.865705e+00	-1.110094e+02
1.220000e-06	3.226533e-07	-1.506764e-09	2.281414e+00	-1.007980e+02
1.230000e-06	3.813450e-07	-1.350184e-09	2.696411e+00	-9.038672e+01
1.240000e-06	4.399302e-07	-1.184948e-09	3.110654e+00	-7.972434e+01
1.250000e-06	4.984069e-07	-1.014024e-09	3.524131e+00	-6.878464e+01
1.260000e-06	5.567738e-07	-8.382602e-10	3.936831e+00	-5.757583e+01
1.270000e-06	6.150468e-07	-6.645223e-10	4.348866e+00	-4.613732e+01
1.280000e-06	6.731955e-07	-4.888315e-10	4.760024e+00	-3.452486e+01
1.290000e-06	7.312491e-07	-3.064564e-10	5.170508e+00	-2.279022e+01
1.300000e-06	7.892003e-07	-1.225638e-10	5.580269e+00	-1.096325e+01
1.310000e-06	8.470211e-07	6.241821e-11	5.989108e+00	9.564257e-01
1.320000e-06	9.047077e-07	2.448460e-10	6.396998e+00	1.299502e+01
1.330000e-06	9.621934e-07	4.315935e-10	6.803467e+00	2.518928e+01
1.340000e-06	1.019440e-06	6.241455e-10	7.208249e+00	3.756656e+01
1.350000e-06	1.076450e-06	8.175061e-10	7.611350e+00	5.012815e+01
1.360000e-06	1.133262e-06	1.012468e-09	8.013059e+00	6.284271e+01
1.370000e-06	1.189888e-06	1.207504e-09	8.413449e+00	7.565220e+01
1.380000e-06	1.246332e-06	1.406352e-09	8.812552e+00	8.848809e+01
1.390000e-06	1.302572e-06	1.602510e-09	9.210209e+00	1.012912e+02
1.400000e-06	1.358611e-06	1.794130e-09	9.606450e+00	1.140272e+02
1.410000e-06	1.414460e-06	1.986226e-09	1.000135e+01	1.266919e+02
1.420000e-06	1.470063e-06	2.180313e-09	1.039451e+01	1.393042e+02
1.430000e-06	1.525291e-06	2.377450e-09	1.078501e+01	1.518889e+02
1.440000e-06	1.580114e-06	2.569821e-09	1.117266e+01	1.644584e+02
1.450000e-06	1.634646e-06	2.758513e-09	1.155824e+01	1.769976e+02
1.460000e-06	1.688916e-06	2.946480e-09	1.194197e+01	1.894615e+02
1.470000e-06	1.742898e-06	3.131889e-09	1.232366e+01	2.017837e+02
1.480000e-06	1.796586e-06	3.314900e-09	1.270328e+01	2.138941e+02
1.490000e-06	1.849941e-06	3.491681e-09	1.308054e+01	2.257381e+02
1.500000e-06	1.902941e-06	3.667393e-09	1.345529e+01	2.372906e+02
1.510000e-06	1.955666e-06	3.841501e-09	1.382810e+01	2.485580e+02
1.520000e-06	2.008124e-06	4.011067e-09	1.419902e+01	2.595698e+02
1.530000e-06	2.060164e-06	4.176159e-09	1.456699e+01	2.703607e+02
1.540000e-06	2.111733e-06	4.334488e-09	1.493162e+01	2.809533e+02
1.550000e-06	2.162900e-06	4.491539e-09	1.529341e+01	2.913459e+02
1.560000e-06	2.213679e-06	4.646673e-09	1.565246e+01	3.015113e+02
1.570000e-06	2.264066e-06	4.797413e-09	1.600873e+01	3.114066e+02
1.580000e-06	2.314084e-06	4.943523e-09	1.636240e+01	3.209897e+02
1.590000e-06	2.363760e-06	5.085583e-09	1.671365e+01	3.302353e+02
1.600000e-06	2.413084e-06	5.226179e-09	1.706241e+01	3.391449e+02
1.610000e-06	2.461920e-06	5.359980e-09	1.740772e+01	3.477456e+02
1.620000e-06	2.510182e-06	5.484301e-09	1.774897e+01	3.560794e+02
1.630000e-06	2.557982e-06	5.602379e-09	1.808695e+01	3.641861e+02
1.640000e-06	2.605360e-06	5.719745e-09	1.842196e+01	3.720888e+02
1.650000e-06	2.652294e-06	5.838128e-09	1.875381e+01	3.797855e+02
1.660000e-06	2.698761e-06	5.952153e-09	1.908237e+01	3.872513e+02
1.670000e-06	2.744660e-06	6.060462e-09	1.940691e+01	3.944506e+02
1.680000e-06	2.789926e-06	6.164654e-09	1.972698e+01	4.013532e+02
1.690000e-06	2.834658e-06	6.266800e-09	2.004327e+01	4.079489e+02
1.700000e-06	2.878934e-06	6.364629e-09	2.035633e+01	4.142544e+02
1.710000e-06	2.922721e-06	6.455026e-09	2.066594e+01	4.203096e+02
1.720000e-06	2.966054e-06	6.540230e-09	2.097234e+01	4.261665e+02
1.730000e-06	3.008943e-06	6.624726e-09	2.127560e+01	4.318727e+02
1.740000e-06	3.051265e-06	6.710669e-09	2.157486e+01	4.374584e+02
1.750000e-06	3.092974e-06	6.792337e-09	2.186977e+01	4.429297e+02
1.760000e-06	3.134130e-06	6.868825e-09	2.216078e+01	4.482714e+02
1.770000e-06	3.174786e-06	6.947257e-09	2.244824e+01	4.534576e+02
1.780000e-06	3.214942e-06	7.027498e-09	2.273218e+01	4.584649e+02
1.790000e-06	3.254536e-06	7.104188e-09	2.301214e+01	4.632831e+02
1.800000e-06	3.293486e-06	7.174791e-09	2.328755e+01	4.679196e+02
1.810000e-06	3.331803e-06	7.241321e-09	2.355848e+01	4.723957e+02
1.820000e-06	3.369549e-06	7.305598e-09	2.382537e+01	4.767376e+02
1.830000e-06	3.406742e-06	7.366149e-09	2.408836e+01	4.809658e+02
1.840000e-06	3.443413e-06	7.422233e-09	2.434765e+01	4.850874e+02
1.850000e-06	3.479500e-06	7.478090e-09	2.460282e+01	4.890954e+02
1.860000e-06	3.514908e-06	7.536560e-09	2.485317e+01	4.929731e+02
1.870000e-06	3.549688e-06	7.594858e-09	2.509909e+01	4.967042e+02
1.880000e-06	3.583855e-06	7.649464e-09	2.534069e+01	5.002809e+02
1.890000e-06	3.617429e-06	7.700397e-09	2.557808e+01	5.037090e+02
1.900000e-06	3.650419e-06	7.748411e-09	2.581135e+01	5.070065e+02
1.910000e-06	3.682729e-06	7.792703e-09	2.603980e+01	5.101965e+02
1.920000e-06	3.714347e-06	7.833120e-09	2.626337e+01	5.132982e+02
1.930000e-06	3.745302e-06	7.873202e-09	2.648224e+01	5.163192e+02
1.940000e-06	3.775572e-06	7.915230e-09	2.669627e+01	5.192527e+02
1.950000e-06	3.805076e-06	7.957776e-09	2.690489e+01	5.220813e+02
1.960000e-06	3.833824e-06	7.997996e-09	2.710816e+01	5.247846e+02
1.970000e-06	3.861872e-06	8.035013e-09	2.730648e+01	5.273485e+02
1.980000e-06	3.889267e-06	8.069897e-09	2.750019e+01	5.297720e+02
1.990000e-06	3.916005e-06	8.103047e-09	2.768924e+01	5.320680e+02
2.000000e-06	3.941986e-06	8.133751e-09	2.787295e+01	5.342586e+02
2.010000e-06	3.967249e-06	8.161590e-09	2.805158e+01	5.363669e+02
2.020000e-06	3.991847e-06	8.188788e-09	2.822551e+01	5.384082e+02
2.030000e-06	4.015803e-06	8.216072e-09	2.839490e+01	5.403854e+02
2.040000e-06	4.039097e-06	8.243167e-09	2.855960e+01	5.422893e+02
2.050000e-06	4.061644e-06	8.269018e-09	2.871903e+01	5.441048e+02
2.060000e-06	4.083466e-06	8.294140e-09	2.887333e+01	5.458195e+02
2.070000e-06	4.104556e-06	8.318510e-09	2.902245e+01	5.474305e+02
2.080000e-06	4.124808e-06	8.342352e-09	2.916565e+01	5.489481e+02
2.090000e-06	4.144208e-06	8.365325e-09	2.930282e+01	5.503924e+02
2.100000e-06	4.162854e-06	8.383960e-09	2.943466e+01	5.517866e+02
2.110000e-06	4.180832e-06	8.398731e-09	2.956179e+01	5.531471e+02
2.120000e-06	4.198161e-06	8.413361e-09	2.968432e+01	5.544779e+02
2.130000e-06	4.214716e-06	8.430054e-09	2.980137e+01	5.557679e+02
2.140000e-06	4.230450e-06	8.449164e-09	2.991262e+01	5.569963e+02
2.150000e-06	4.245503e-06	8.468517e-09	3.001906e+01	5.581401e+02
2.160000e-06	4.259917e-06	8.486500e-09	3.012098e+01	5.591841e+02
2.170000e-06	4.273570e-06	8.503342e-09	3.021751e+01	5.601268e+02
2.180000e-06	4.286410e-06	8.518055e-09	3.030831e+01	5.609811e+02
2.190000e-06	4.298526e-06	8.528264e-09	3.039397e+01	5.617698e+02
2.200000e-06	4.309979e-06	8.536677e-09	3.047496e+01	5.625163e+02
2.210000e-06	4.320693e-06	8.544157e-09	3.055071e+01	5.632367e+02
2.220000e-06	4.330550e-06	8.552325e-09	3.062041e+01	5.639338e+02
2.230000e-06	4.339619e-06	8.562376e-09	3.068453e+01	5.645979e+02
2.240000e-06	4.347983e-06	8.573269e-09	3.074367e+01	5.652112e+02
2.250000e-06	4.355643e-06	8.584873e-09	3.079784e+01	5.657564e+02
2.260000e-06	4.362533e-06	8.594971e-09	3.084656e+01	5.662234e+02
2.270000e-06	4.368597e-06	8.601479e-09	3.088943e+01	5.666134e+02
2.280000e-06	4.373839e-06	8.604720e-09	3.092650e+01	5.669369e+02
2.290000e-06	4.378216e-06	8.606577e-09	3.095744e+01	5.672093e+02
2.300000e-06	4.381718e-06	8.608030e-09	3.098221e+01	5.674432e+02
2.310000e-06	4.384431e-06	8.609774e-09	3.100139e+01	5.676441e+02
2.320000e-06	4.386419e-06	8.613237e-09	3.101545e+01	5.678087e+02
2.330000e-06	4.387677e-06	8.620210e-09	3.102434e+01	5.679279e+02
2.340000e-06	4.388110e-06	8.627452e-09	3.102740e+01	5.679926e+02
2.350000e-06	4.387718e-06	8.632783e-09	3.102463e+01	5.679992e+02
2.360000e-06	4.386619e-06	8.631811e-09	3.101686e+01	5.679518e+02
2.370000e-06	4.384858e-06	8.624681e-09	3.100441e+01	5.678606e+02
2.380000e-06	4.382327e-06	8.620495e-09	3.098651e+01	5.677366e+02
2.390000e-06	4.379006e-06	8.617320e-09	3.096303e+01	5.675849e+02
2.400000e-06	4.375003e-06	8.612626e-09	3.093473e+01	5.674013e+02
2.410000e-06	4.370274e-06	8.619221e-09	3.090129e+01	5.671720e+02
2.420000e-06	4.364715e-06	8.635158e-09	3.086198e+01	5.668796e+02
2.430000e-06	4.358314e-06	8.569303e-09	3.081672e+01	5.665122e+02
2.440000e-06	4.350856e-06	8.513057e-09	3.076399e+01	5.660713e+02
2.450000e-06	4.342129e-06	8.618219e-09	3.070228e+01	5.655761e+02
2.460000e-06	4.332703e-06	8.694796e-09	3.063563e+01	5.650607e+02
2.470000e-06	4.323237e-06	8.552052e-09	3.056870e+01	5.645650e+02
2.480000e-06	4.313262e-06	8.407939e-09	3.049817e+01	5.641213e+02
2.490000e-06	4.302045e-06	8.622304e-09	3.041886e+01	5.637430e+02
2.500000e-06	4.290193e-06	8.637947e-09	3.033506e+01	5.634172e+02
2.510000e-06	4.278203e-06	8.447316e-09	3.025028e+01	5.631076e+02
2.520000e-06	4.265156e-06	8.573103e-09	3.015802e+01	5.627639e+02
2.530000e-06	4.250990e-06	8.701864e-09	3.005786e+01	5.623368e+02
2.540000e-06	4.236475e-06	8.473142e-09	2.995522e+01	5.617917e+02
2.550000e-06	4.221276e-06	8.487733e-09	2.984775e+01	5.611180e+02
2.560000e-06	4.205028e-06	8.712779e-09	2.973287e+01	5.603287e+02
2.570000e-06	4.188144e-06	8.441847e-09	2.961348e+01	5.594527e+02
2.580000e-06	4.170589e-06	8.381662e-09	2.948936e+01	5.585217e+02
2.590000e-06	4.152154e-06	8.618092e-09	2.935901e+01	5.575575e+02
2.600000e-06	4.133180e-06	8.501840e-09	2.922485e+01	5.565648e+02
2.610000e-06	4.113428e-06	8.369352e-09	2.908518e+01	5.555306e+02
2.620000e-06	4.092580e-06	8.501893e-09	2.893777e+01	5.544315e+02
2.630000e-06	4.071105e-06	8.432811e-09	2.878592e+01	5.532448e+02
2.640000e-06	4.048902e-06	8.373989e-09	2.862893e+01	5.519584e+02
2.650000e-06	4.025758e-06	8.436358e-09	2.846528e+01	5.505755e+02
2.660000e-06	4.001957e-06	8.273351e-09	2.829699e+01	5.491128e+02
2.670000e-06	3.977385e-06	8.318906e-09	2.812325e+01	5.475927e+02
2.680000e-06	3.952001e-06	8.408792e-09	2.794377e+01	5.460331e+02
2.690000e-06	3.925969e-06	8.230188e-09	2.775970e+01	5.444398e+02
2.700000e-06	3.899193e-06	8.258788e-09	2.757037e+01	5.428047e+02
2.710000e-06	3.871787e-06	8.252398e-09	2.737659e+01	5.411101e+02
2.720000e-06	3.843727e-06	8.158786e-09	2.717818e+01	5.393380e+02
2.730000e-06	3.814756e-06	8.209707e-09	2.697333e+01	5.374791e+02
2.740000e-06	3.785120e-06	8.144751e-09	2.676379e+01	5.355394e+02
2.750000e-06	3.754861e-06	8.084271e-09	2.654983e+01	5.335385e+02
2.760000e-06	3.723722e-06	8.107426e-09	2.632965e+01	5.315030e+02
2.770000e-06	3.691841e-06	8.070134e-09	2.610423e+01	5.294555e+02
2.780000e-06	3.659352e-06	8.015040e-09	2.587451e+01	5.274047e+02
2.790000e-06	3.626256e-06	7.981438e-09	2.564049e+01	5.253411e+02
2.800000e-06	3.592646e-06	7.954563e-09	2.540284e+01	5.232398e+02
2.810000e-06	3.558363e-06	7.939547e-09	2.516044e+01	5.210704e+02
2.820000e-06	3.523347e-06	7.903808e-09	2.491285e+01	5.188081e+02
2.830000e-06	3.487755e-06	7.846567e-09	2.466118e+01	5.164446e+02
2.840000e-06	3.451597e-06	7.817105e-09	2.440552e+01	5.139907e+02
2.850000e-06	3.414935e-06	7.784691e-09	2.414629e+01	5.114720e+02
2.860000e-06	3.377693e-06	7.757863e-09	2.388296e+01	5.089175e+02
2.870000e-06	3.339754e-06	7.708503e-09	2.361470e+01	5.063474e+02
2.880000e-06	3.301208e-06	7.648614e-09	2.334215e+01	5.037630e+02
2.890000e-06	3.262122e-06	7.640372e-09	2.306578e+01	5.011454e+02
2.900000e-06	3.222540e-06	7.593656e-09	2.278590e+01	4.984614e+02
2.910000e-06	3.182473e-06	7.547404e-09	2.250259e+01	4.956766e+02
2.920000e-06	3.141809e-06	7.498507e-09	2.221507e+01	4.927688e+02
2.930000e-06	3.100484e-06	7.441538e-09	2.192287e+01	4.897372e+02
2.940000e-06	3.058590e-06	7.432713e-09	2.162665e+01	4.866027e+02
