# Temperatura_=_20.0
# Concentracion g/m^3_=_10000.0
# C_Vs_to_Am_M_A/Vsm_=_65563218390.804596
# pendiente_HvsI_1/m_=_3716.3
# ordenada_HvsI_A/m_=_1297.0
# frecuencia_Hz_=_212872.15190616713

Tiempo_(s)	Campo_(V.s)	Magnetizacion_(V.s)	Campo_(kA/m)	Magnetizacion_(A/m)
0.000000e+00	-4.393546e-06	-8.716248e-09	-3.099375e+01	-5.679629e+02
1.000000e-08	-4.392635e-06	-8.715830e-09	-3.098733e+01	-5.679764e+02
2.000000e-08	-4.390947e-06	-8.716046e-09	-3.097542e+01	-5.679709e+02
3.000000e-08	-4.388566e-06	-8.713485e-09	-3.095862e+01	-5.679288e+02
4.000000e-08	-4.385522e-06	-8.711341e-09	-3.093715e+01	-5.678252e+02
5.000000e-08	-4.381707e-06	-8.707245e-09	-3.091024e+01	-5.676360e+02
6.000000e-08	-4.377042e-06	-8.696790e-09	-3.087732e+01	-5.673471e+02
7.000000e-08	-4.371549e-06	-8.676494e-09	-3.083857e+01	-5.669609e+02
8.000000e-08	-4.365050e-06	-8.679716e-09	-3.079273e+01	-5.664993e+02
9.000000e-08	-4.357583e-06	-8.729396e-09	-3.074006e+01	-5.660001e+02
1.000000e-07	-4.349315e-06	-8.748409e-09	-3.068173e+01	-5.655090e+02
1.100000e-07	-4.340418e-06	-8.613444e-09	-3.061897e+01	-5.650671e+02
1.200000e-07	-4.331041e-06	-8.571675e-09	-3.055282e+01	-5.646998e+02
1.300000e-07	-4.320917e-06	-8.694170e-09	-3.048140e+01	-5.644085e+02
1.400000e-07	-4.309915e-06	-8.746879e-09	-3.040379e+01	-5.641690e+02
1.500000e-07	-4.298371e-06	-8.534816e-09	-3.032235e+01	-5.639357e+02
1.600000e-07	-4.286239e-06	-8.588372e-09	-3.023677e+01	-5.636524e+02
1.700000e-07	-4.273034e-06	-8.739116e-09	-3.014362e+01	-5.632645e+02
1.800000e-07	-4.258969e-06	-8.518724e-09	-3.004439e+01	-5.627315e+02
1.900000e-07	-4.244553e-06	-8.531761e-09	-2.994270e+01	-5.620342e+02
2.000000e-07	-4.229437e-06	-8.639396e-09	-2.983607e+01	-5.611768e+02
2.100000e-07	-4.213413e-06	-8.525918e-09	-2.972303e+01	-5.601831e+02
2.200000e-07	-4.196664e-06	-8.439978e-09	-2.960487e+01	-5.590885e+02
2.300000e-07	-4.179091e-06	-8.631519e-09	-2.948090e+01	-5.579305e+02
2.400000e-07	-4.160762e-06	-8.569171e-09	-2.935161e+01	-5.567400e+02
2.500000e-07	-4.141753e-06	-8.393393e-09	-2.921751e+01	-5.555365e+02
2.600000e-07	-4.121772e-06	-8.520200e-09	-2.907655e+01	-5.543262e+02
2.700000e-07	-4.100797e-06	-8.493973e-09	-2.892859e+01	-5.531038e+02
2.800000e-07	-4.079175e-06	-8.432941e-09	-2.877606e+01	-5.518569e+02
2.900000e-07	-4.056796e-06	-8.444671e-09	-2.861819e+01	-5.505699e+02
3.000000e-07	-4.033501e-06	-8.377006e-09	-2.845386e+01	-5.492278e+02
3.100000e-07	-4.009549e-06	-8.387734e-09	-2.828489e+01	-5.478185e+02
3.200000e-07	-3.984949e-06	-8.395814e-09	-2.811135e+01	-5.463342e+02
3.300000e-07	-3.959624e-06	-8.303265e-09	-2.793270e+01	-5.447717e+02
3.400000e-07	-3.933569e-06	-8.259449e-09	-2.774890e+01	-5.431321e+02
3.500000e-07	-3.906733e-06	-8.296235e-09	-2.755959e+01	-5.414209e+02
3.600000e-07	-3.879207e-06	-8.253135e-09	-2.736541e+01	-5.396472e+02
3.700000e-07	-3.851004e-06	-8.211388e-09	-2.716645e+01	-5.378224e+02
3.800000e-07	-3.822132e-06	-8.214922e-09	-2.696278e+01	-5.359580e+02
3.900000e-07	-3.792513e-06	-8.118965e-09	-2.675384e+01	-5.340631e+02
4.000000e-07	-3.762094e-06	-8.131636e-09	-2.653925e+01	-5.321416e+02
4.100000e-07	-3.730956e-06	-8.142044e-09	-2.631959e+01	-5.301909e+02
4.200000e-07	-3.699021e-06	-8.046643e-09	-2.609431e+01	-5.282018e+02
4.300000e-07	-3.666358e-06	-8.027818e-09	-2.586389e+01	-5.261612e+02
4.400000e-07	-3.633138e-06	-8.009966e-09	-2.562954e+01	-5.240556e+02
4.500000e-07	-3.599399e-06	-7.989256e-09	-2.539154e+01	-5.218753e+02
4.600000e-07	-3.565103e-06	-7.939685e-09	-2.514960e+01	-5.196176e+02
4.700000e-07	-3.530220e-06	-7.894475e-09	-2.490352e+01	-5.172871e+02
4.800000e-07	-3.494778e-06	-7.866906e-09	-2.465350e+01	-5.148946e+02
4.900000e-07	-3.458668e-06	-7.828457e-09	-2.439877e+01	-5.124524e+02
5.000000e-07	-3.421922e-06	-7.813518e-09	-2.413955e+01	-5.099699e+02
5.100000e-07	-3.384631e-06	-7.740905e-09	-2.387648e+01	-5.074500e+02
5.200000e-07	-3.346773e-06	-7.695431e-09	-2.360942e+01	-5.048880e+02
5.300000e-07	-3.308402e-06	-7.680918e-09	-2.333873e+01	-5.022730e+02
5.400000e-07	-3.269391e-06	-7.637605e-09	-2.306353e+01	-4.995921e+02
5.500000e-07	-3.229721e-06	-7.603020e-09	-2.278368e+01	-4.968350e+02
5.600000e-07	-3.189504e-06	-7.534454e-09	-2.249998e+01	-4.939977e+02
5.700000e-07	-3.148765e-06	-7.498421e-09	-2.221259e+01	-4.910839e+02
5.800000e-07	-3.107518e-06	-7.470095e-09	-2.192162e+01	-4.881022e+02
5.900000e-07	-3.065735e-06	-7.408215e-09	-2.162687e+01	-4.850630e+02
6.000000e-07	-3.023322e-06	-7.353705e-09	-2.132767e+01	-4.819726e+02
6.100000e-07	-2.980302e-06	-7.302421e-09	-2.102419e+01	-4.788307e+02
6.200000e-07	-2.936806e-06	-7.281404e-09	-2.071735e+01	-4.756292e+02
6.300000e-07	-2.892813e-06	-7.227859e-09	-2.040701e+01	-4.723550e+02
6.400000e-07	-2.848307e-06	-7.157978e-09	-2.009305e+01	-4.689948e+02
6.500000e-07	-2.803323e-06	-7.104009e-09	-1.977571e+01	-4.655403e+02
6.600000e-07	-2.757741e-06	-7.045583e-09	-1.945416e+01	-4.619915e+02
6.700000e-07	-2.711504e-06	-7.007593e-09	-1.912799e+01	-4.583572e+02
6.800000e-07	-2.664705e-06	-6.941753e-09	-1.879784e+01	-4.546515e+02
6.900000e-07	-2.617392e-06	-6.877321e-09	-1.846409e+01	-4.508884e+02
7.000000e-07	-2.569660e-06	-6.828754e-09	-1.812736e+01	-4.470762e+02
7.100000e-07	-2.521521e-06	-6.775816e-09	-1.778777e+01	-4.432135e+02
7.200000e-07	-2.472867e-06	-6.720573e-09	-1.744455e+01	-4.392890e+02
7.300000e-07	-2.423673e-06	-6.636844e-09	-1.709751e+01	-4.352849e+02
7.400000e-07	-2.374050e-06	-6.574199e-09	-1.674745e+01	-4.311825e+02
7.500000e-07	-2.324065e-06	-6.521466e-09	-1.639485e+01	-4.269687e+02
7.600000e-07	-2.273694e-06	-6.458088e-09	-1.603951e+01	-4.226398e+02
7.700000e-07	-2.222938e-06	-6.389116e-09	-1.568145e+01	-4.182021e+02
7.800000e-07	-2.171855e-06	-6.307908e-09	-1.532109e+01	-4.136687e+02
7.900000e-07	-2.120407e-06	-6.248934e-09	-1.495816e+01	-4.090541e+02
8.000000e-07	-2.068477e-06	-6.179721e-09	-1.459183e+01	-4.043681e+02
8.100000e-07	-2.016093e-06	-6.097902e-09	-1.422229e+01	-3.996126e+02
8.200000e-07	-1.963400e-06	-6.018301e-09	-1.385057e+01	-3.947804e+02
8.300000e-07	-1.910433e-06	-5.940837e-09	-1.347692e+01	-3.898586e+02
8.400000e-07	-1.857162e-06	-5.879346e-09	-1.310113e+01	-3.848341e+02
8.500000e-07	-1.803600e-06	-5.798967e-09	-1.272328e+01	-3.796979e+02
8.600000e-07	-1.749740e-06	-5.712732e-09	-1.234334e+01	-3.744489e+02
8.700000e-07	-1.695594e-06	-5.629203e-09	-1.196137e+01	-3.690930e+02
8.800000e-07	-1.641192e-06	-5.547652e-09	-1.157760e+01	-3.636402e+02
8.900000e-07	-1.586501e-06	-5.470877e-09	-1.119178e+01	-3.580994e+02
9.000000e-07	-1.531464e-06	-5.374929e-09	-1.080353e+01	-3.524736e+02
9.100000e-07	-1.476082e-06	-5.283584e-09	-1.041285e+01	-3.467580e+02
9.200000e-07	-1.420411e-06	-5.196116e-09	-1.002012e+01	-3.409409e+02
9.300000e-07	-1.364498e-06	-5.108834e-09	-9.625691e+00	-3.350077e+02
9.400000e-07	-1.308337e-06	-5.017108e-09	-9.229512e+00	-3.289461e+02
9.500000e-07	-1.251945e-06	-4.909551e-09	-8.831699e+00	-3.227505e+02
9.600000e-07	-1.195316e-06	-4.815338e-09	-8.432219e+00	-3.164230e+02
9.700000e-07	-1.138428e-06	-4.722580e-09	-8.030904e+00	-3.099723e+02
9.800000e-07	-1.081306e-06	-4.623547e-09	-7.627946e+00	-3.034081e+02
9.900000e-07	-1.023926e-06	-4.517156e-09	-7.223165e+00	-2.967365e+02
1.000000e-06	-9.662701e-07	-4.405606e-09	-6.816439e+00	-2.899555e+02
1.010000e-06	-9.084101e-07	-4.305072e-09	-6.408272e+00	-2.830544e+02
1.020000e-06	-8.504239e-07	-4.196298e-09	-5.999215e+00	-2.760165e+02
1.030000e-06	-7.922852e-07	-4.082721e-09	-5.589083e+00	-2.688245e+02
1.040000e-06	-7.339847e-07	-3.966340e-09	-5.177808e+00	-2.614664e+02
1.050000e-06	-6.755913e-07	-3.853622e-09	-4.765879e+00	-2.539394e+02
1.060000e-06	-6.170654e-07	-3.746040e-09	-4.353015e+00	-2.462507e+02
1.070000e-06	-5.583784e-07	-3.623955e-09	-3.939015e+00	-2.384140e+02
1.080000e-06	-4.996249e-07	-3.499068e-09	-3.524545e+00	-2.304433e+02
1.090000e-06	-4.408200e-07	-3.371096e-09	-3.109713e+00	-2.223470e+02
1.100000e-06	-3.819396e-07	-3.244682e-09	-2.694348e+00	-2.141232e+02
1.110000e-06	-3.229970e-07	-3.117891e-09	-2.278545e+00	-2.057599e+02
1.120000e-06	-2.639981e-07	-2.980492e-09	-1.862343e+00	-1.972378e+02
1.130000e-06	-2.049659e-07	-2.846338e-09	-1.445908e+00	-1.885370e+02
1.140000e-06	-1.459214e-07	-2.711843e-09	-1.029385e+00	-1.796436e+02
1.150000e-06	-8.687618e-08	-2.576138e-09	-6.128578e-01	-1.705536e+02
1.160000e-06	-2.781473e-08	-2.434680e-09	-1.962158e-01	-1.612741e+02
1.170000e-06	3.125058e-08	-2.286069e-09	2.204535e-01	-1.518192e+02
1.180000e-06	9.028069e-08	-2.140622e-09	6.368745e-01	-1.422041e+02
1.190000e-06	1.492674e-07	-1.990944e-09	1.052990e+00	-1.324390e+02
1.200000e-06	2.082255e-07	-1.837358e-09	1.468902e+00	-1.225245e+02
1.210000e-06	2.671484e-07	-1.678027e-09	1.884567e+00	-1.124513e+02
1.220000e-06	3.260115e-07	-1.517946e-09	2.299810e+00	-1.022035e+02
1.230000e-06	3.847825e-07	-1.362127e-09	2.714403e+00	-9.176469e+01
1.240000e-06	4.434667e-07	-1.198610e-09	3.128383e+00	-8.112341e+01
1.250000e-06	5.020708e-07	-1.030278e-09	3.541799e+00	-7.027754e+01
1.260000e-06	5.605879e-07	-8.599583e-10	3.954601e+00	-5.923448e+01
1.270000e-06	6.190100e-07	-6.895004e-10	4.366733e+00	-4.800826e+01
1.280000e-06	6.773270e-07	-5.173186e-10	4.778124e+00	-3.661447e+01
1.290000e-06	7.355364e-07	-3.362795e-10	5.188755e+00	-2.506531e+01
1.300000e-06	7.935838e-07	-1.549430e-10	5.598244e+00	-1.336682e+01
1.310000e-06	8.515085e-07	2.851688e-11	6.006867e+00	-1.519326e+00
1.320000e-06	9.093022e-07	2.124406e-10	6.414565e+00	1.047919e+01
1.330000e-06	9.668921e-07	3.991191e-10	6.820826e+00	2.262812e+01
1.340000e-06	1.024286e-06	5.900659e-10	7.225702e+00	3.491985e+01
1.350000e-06	1.081489e-06	7.779021e-10	7.629237e+00	4.733777e+01
1.360000e-06	1.138493e-06	9.685869e-10	8.031364e+00	5.985748e+01
1.370000e-06	1.195263e-06	1.160710e-09	8.431839e+00	7.245059e+01
1.380000e-06	1.251804e-06	1.356277e-09	8.830703e+00	8.508966e+01
1.390000e-06	1.308165e-06	1.551882e-09	9.228299e+00	9.775220e+01
1.400000e-06	1.364344e-06	1.745831e-09	9.624607e+00	1.104220e+02
1.410000e-06	1.420283e-06	1.941957e-09	1.001922e+01	1.230873e+02
1.420000e-06	1.475935e-06	2.136961e-09	1.041181e+01	1.357370e+02
1.430000e-06	1.531292e-06	2.331546e-09	1.080232e+01	1.483556e+02
1.440000e-06	1.586321e-06	2.522979e-09	1.119052e+01	1.609201e+02
1.450000e-06	1.641016e-06	2.711070e-09	1.157636e+01	1.733997e+02
1.460000e-06	1.695389e-06	2.897750e-09	1.195992e+01	1.857588e+02
1.470000e-06	1.749442e-06	3.079417e-09	1.234123e+01	1.979619e+02
1.480000e-06	1.803208e-06	3.259911e-09	1.272052e+01	2.099795e+02
1.490000e-06	1.856689e-06	3.438972e-09	1.309779e+01	2.217916e+02
1.500000e-06	1.909856e-06	3.618191e-09	1.347286e+01	2.333887e+02
1.510000e-06	1.962700e-06	3.795629e-09	1.384563e+01	2.447684e+02
1.520000e-06	2.015202e-06	3.965954e-09	1.421601e+01	2.559313e+02
1.530000e-06	2.067341e-06	4.133058e-09	1.458382e+01	2.668748e+02
1.540000e-06	2.119047e-06	4.295153e-09	1.494857e+01	2.775908e+02
1.550000e-06	2.170277e-06	4.453406e-09	1.530996e+01	2.880643e+02
1.560000e-06	2.221130e-06	4.607142e-09	1.566870e+01	2.982772e+02
1.570000e-06	2.271638e-06	4.757194e-09	1.602500e+01	3.082127e+02
1.580000e-06	2.321766e-06	4.907096e-09	1.637863e+01	3.178600e+02
1.590000e-06	2.371511e-06	5.054626e-09	1.672954e+01	3.272179e+02
1.600000e-06	2.420870e-06	5.198793e-09	1.707774e+01	3.362936e+02
1.610000e-06	2.469762e-06	5.333813e-09	1.742264e+01	3.450999e+02
1.620000e-06	2.518118e-06	5.459271e-09	1.776377e+01	3.536493e+02
1.630000e-06	2.565988e-06	5.580887e-09	1.810146e+01	3.619494e+02
1.640000e-06	2.613434e-06	5.700495e-09	1.843616e+01	3.700000e+02
1.650000e-06	2.660445e-06	5.818901e-09	1.876779e+01	3.777937e+02
1.660000e-06	2.706960e-06	5.933232e-09	1.909593e+01	3.853194e+02
1.670000e-06	2.752942e-06	6.043509e-09	1.942030e+01	3.925686e+02
1.680000e-06	2.798335e-06	6.151008e-09	1.974052e+01	3.995401e+02
1.690000e-06	2.843154e-06	6.254211e-09	2.005669e+01	4.062433e+02
1.700000e-06	2.887484e-06	6.354201e-09	2.036942e+01	4.126981e+02
1.710000e-06	2.931350e-06	6.448945e-09	2.067886e+01	4.189306e+02
1.720000e-06	2.974769e-06	6.539271e-09	2.098516e+01	4.249677e+02
1.730000e-06	3.017738e-06	6.627445e-09	2.128827e+01	4.308312e+02
1.740000e-06	3.060168e-06	6.712744e-09	2.158759e+01	4.365338e+02
1.750000e-06	3.102017e-06	6.794745e-09	2.188281e+01	4.420786e+02
1.760000e-06	3.143282e-06	6.873064e-09	2.217391e+01	4.474618e+02
1.770000e-06	3.183991e-06	6.952014e-09	2.246109e+01	4.526773e+02
1.780000e-06	3.224194e-06	7.031170e-09	2.274470e+01	4.577214e+02
1.790000e-06	3.263865e-06	7.106651e-09	2.302455e+01	4.625967e+02
1.800000e-06	3.302912e-06	7.179049e-09	2.330000e+01	4.673121e+02
1.810000e-06	3.341313e-06	7.248095e-09	2.357090e+01	4.718814e+02
1.820000e-06	3.379120e-06	7.313429e-09	2.383760e+01	4.763188e+02
1.830000e-06	3.416366e-06	7.375165e-09	2.410035e+01	4.806349e+02
1.840000e-06	3.453106e-06	7.435226e-09	2.435953e+01	4.848337e+02
1.850000e-06	3.489278e-06	7.494829e-09	2.461470e+01	4.889125e+02
1.860000e-06	3.524749e-06	7.553988e-09	2.486493e+01	4.928636e+02
1.870000e-06	3.559556e-06	7.611940e-09	2.511047e+01	4.966781e+02
1.880000e-06	3.593740e-06	7.665588e-09	2.535162e+01	5.003495e+02
1.890000e-06	3.627360e-06	7.716718e-09	2.558879e+01	5.038771e+02
1.900000e-06	3.660426e-06	7.765302e-09	2.582204e+01	5.072661e+02
1.910000e-06	3.692801e-06	7.811385e-09	2.605043e+01	5.105264e+02
1.920000e-06	3.724467e-06	7.857205e-09	2.627381e+01	5.136693e+02
1.930000e-06	3.755453e-06	7.901399e-09	2.649240e+01	5.167043e+02
1.940000e-06	3.785754e-06	7.943333e-09	2.670616e+01	5.196362e+02
1.950000e-06	3.815290e-06	7.983266e-09	2.691452e+01	5.224648e+02
1.960000e-06	3.844043e-06	8.022206e-09	2.711735e+01	5.251856e+02
1.970000e-06	3.872121e-06	8.060439e-09	2.731542e+01	5.277927e+02
1.980000e-06	3.899561e-06	8.096189e-09	2.750899e+01	5.302817e+02
1.990000e-06	3.926323e-06	8.130548e-09	2.769778e+01	5.326524e+02
2.000000e-06	3.952328e-06	8.163657e-09	2.788123e+01	5.349095e+02
2.010000e-06	3.977597e-06	8.194815e-09	2.805949e+01	5.370623e+02
2.020000e-06	4.002220e-06	8.223482e-09	2.823319e+01	5.391222e+02
2.030000e-06	4.026260e-06	8.248981e-09	2.840278e+01	5.411000e+02
2.040000e-06	4.049660e-06	8.274205e-09	2.856785e+01	5.430034e+02
2.050000e-06	4.072264e-06	8.301474e-09	2.872731e+01	5.448352e+02
2.060000e-06	4.094094e-06	8.328317e-09	2.888131e+01	5.465940e+02
2.070000e-06	4.115211e-06	8.352321e-09	2.903027e+01	5.482751e+02
2.080000e-06	4.135479e-06	8.375643e-09	2.917325e+01	5.498732e+02
2.090000e-06	4.154881e-06	8.398751e-09	2.931012e+01	5.513851e+02
2.100000e-06	4.173548e-06	8.418760e-09	2.944180e+01	5.528112e+02
2.110000e-06	4.191548e-06	8.435392e-09	2.956878e+01	5.541564e+02
2.120000e-06	4.208909e-06	8.451172e-09	2.969125e+01	5.554291e+02
2.130000e-06	4.225480e-06	8.469582e-09	2.980815e+01	5.566390e+02
2.140000e-06	4.241221e-06	8.488635e-09	2.991919e+01	5.577944e+02
2.150000e-06	4.256294e-06	8.503929e-09	3.002552e+01	5.588997e+02
2.160000e-06	4.270737e-06	8.517517e-09	3.012741e+01	5.599545e+02
2.170000e-06	4.284394e-06	8.532024e-09	3.022375e+01	5.609534e+02
2.180000e-06	4.297217e-06	8.546574e-09	3.031421e+01	5.618882e+02
2.190000e-06	4.309326e-06	8.560162e-09	3.039963e+01	5.627505e+02
2.200000e-06	4.320771e-06	8.572077e-09	3.048037e+01	5.635354e+02
2.210000e-06	4.331494e-06	8.582597e-09	3.055602e+01	5.642430e+02
2.220000e-06	4.341360e-06	8.593543e-09	3.062561e+01	5.648793e+02
2.230000e-06	4.350381e-06	8.603308e-09	3.068925e+01	5.654549e+02
2.240000e-06	4.358694e-06	8.611434e-09	3.074789e+01	5.659815e+02
2.250000e-06	4.366325e-06	8.617411e-09	3.080173e+01	5.664685e+02
2.260000e-06	4.373174e-06	8.622185e-09	3.085004e+01	5.669198e+02
2.270000e-06	4.379169e-06	8.626330e-09	3.089233e+01	5.673327e+02
2.280000e-06	4.384368e-06	8.631105e-09	3.092901e+01	5.676990e+02
2.290000e-06	4.388730e-06	8.638134e-09	3.095978e+01	5.680085e+02
2.300000e-06	4.392190e-06	8.646436e-09	3.098419e+01	5.682531e+02
2.310000e-06	4.394844e-06	8.652986e-09	3.100291e+01	5.684314e+02
2.320000e-06	4.396778e-06	8.657208e-09	3.101655e+01	5.685497e+02
2.330000e-06	4.397965e-06	8.658997e-09	3.102493e+01	5.686216e+02
2.340000e-06	4.398316e-06	8.659268e-09	3.102740e+01	5.686633e+02
2.350000e-06	4.397878e-06	8.661160e-09	3.102431e+01	5.686877e+02
2.360000e-06	4.396753e-06	8.659877e-09	3.101638e+01	5.686991e+02
2.370000e-06	4.394968e-06	8.657123e-09	3.100379e+01	5.686895e+02
2.380000e-06	4.392415e-06	8.659834e-09	3.098577e+01	5.686399e+02
2.390000e-06	4.389062e-06	8.663004e-09	3.096212e+01	5.685248e+02
2.400000e-06	4.385020e-06	8.660525e-09	3.093361e+01	5.683213e+02
2.410000e-06	4.380269e-06	8.663936e-09	3.090009e+01	5.680172e+02
2.420000e-06	4.374691e-06	8.674913e-09	3.086075e+01	5.676179e+02
2.430000e-06	4.368235e-06	8.597120e-09	3.081520e+01	5.671479e+02
2.440000e-06	4.360717e-06	8.538904e-09	3.076216e+01	5.666471e+02
2.450000e-06	4.351948e-06	8.652809e-09	3.070031e+01	5.661610e+02
2.460000e-06	4.342477e-06	8.717327e-09	3.063349e+01	5.657292e+02
2.470000e-06	4.332980e-06	8.602573e-09	3.056650e+01	5.653739e+02
2.480000e-06	4.322934e-06	8.458928e-09	3.049563e+01	5.650926e+02
2.490000e-06	4.311556e-06	8.668869e-09	3.041536e+01	5.648573e+02
2.500000e-06	4.299603e-06	8.678169e-09	3.033104e+01	5.646203e+02
2.510000e-06	4.287577e-06	8.501375e-09	3.024620e+01	5.643245e+02
2.520000e-06	4.274449e-06	8.644154e-09	3.015359e+01	5.639171e+02
2.530000e-06	4.260231e-06	8.713321e-09	3.005330e+01	5.633601e+02
2.540000e-06	4.245714e-06	8.484404e-09	2.995089e+01	5.626379e+02
2.550000e-06	4.230475e-06	8.524333e-09	2.984339e+01	5.617582e+02
2.560000e-06	4.214175e-06	8.722945e-09	2.972840e+01	5.607470e+02
2.570000e-06	4.197247e-06	8.428347e-09	2.960899e+01	5.596406e+02
2.580000e-06	4.179593e-06	8.393509e-09	2.948444e+01	5.584760e+02
2.590000e-06	4.161063e-06	8.580997e-09	2.935373e+01	5.572828e+02
2.600000e-06	4.142007e-06	8.449227e-09	2.921930e+01	5.560782e+02
2.610000e-06	4.122117e-06	8.361807e-09	2.907899e+01	5.548666e+02
2.620000e-06	4.101117e-06	8.443489e-09	2.893084e+01	5.536415e+02
2.630000e-06	4.079505e-06	8.384367e-09	2.877839e+01	5.523897e+02
2.640000e-06	4.057157e-06	8.364700e-09	2.862073e+01	5.510953e+02
2.650000e-06	4.033887e-06	8.392271e-09	2.845658e+01	5.497438e+02
2.660000e-06	4.009993e-06	8.231425e-09	2.828802e+01	5.483237e+02
2.670000e-06	3.985329e-06	8.307257e-09	2.811403e+01	5.468278e+02
2.680000e-06	3.959898e-06	8.373022e-09	2.793463e+01	5.452536e+02
2.690000e-06	3.933802e-06	8.165500e-09	2.775054e+01	5.436028e+02
2.700000e-06	3.906908e-06	8.244061e-09	2.756082e+01	5.418816e+02
2.710000e-06	3.879408e-06	8.219624e-09	2.736683e+01	5.400995e+02
2.720000e-06	3.851237e-06	8.102396e-09	2.716810e+01	5.382681e+02
2.730000e-06	3.822137e-06	8.200909e-09	2.696282e+01	5.363987e+02
2.740000e-06	3.792391e-06	8.109532e-09	2.675298e+01	5.344997e+02
2.750000e-06	3.762034e-06	8.051746e-09	2.653883e+01	5.325742e+02
2.760000e-06	3.730768e-06	8.083181e-09	2.631826e+01	5.306185e+02
2.770000e-06	3.698767e-06	8.029760e-09	2.609252e+01	5.286226e+02
2.780000e-06	3.666172e-06	7.987224e-09	2.586258e+01	5.265731e+02
2.790000e-06	3.632970e-06	7.947091e-09	2.562836e+01	5.244568e+02
2.800000e-06	3.599279e-06	7.925190e-09	2.539069e+01	5.222649e+02
2.810000e-06	3.564894e-06	7.900907e-09	2.514813e+01	5.199958e+02
2.820000e-06	3.529783e-06	7.867826e-09	2.490044e+01	5.176553e+02
2.830000e-06	3.494104e-06	7.815230e-09	2.464874e+01	5.152546e+02
2.840000e-06	3.457845e-06	7.771434e-09	2.439296e+01	5.128059e+02
2.850000e-06	3.421077e-06	7.755992e-09	2.413358e+01	5.103178e+02
2.860000e-06	3.383736e-06	7.721372e-09	2.387017e+01	5.077921e+02
2.870000e-06	3.345712e-06	7.674572e-09	2.360193e+01	5.052230e+02
2.880000e-06	3.307070e-06	7.617357e-09	2.332934e+01	5.025990e+02
2.890000e-06	3.267888e-06	7.589544e-09	2.305293e+01	4.999072e+02
2.900000e-06	3.228199e-06	7.553647e-09	2.277295e+01	4.971381e+02
2.910000e-06	3.188014e-06	7.503733e-09	2.248947e+01	4.942890e+02
2.920000e-06	3.147198e-06	7.454268e-09	2.220154e+01	4.913644e+02
2.930000e-06	3.105726e-06	7.405525e-09	2.190898e+01	4.883735e+02
2.940000e-06	3.063727e-06	7.399683e-09	2.161270e+01	4.853263e+02
