# Temperatura_=_20.0
# Concentracion g/m^3_=_10000.0
# C_Vs_to_Am_M_A/Vsm_=_65563218390.804596
# pendiente_HvsI_1/m_=_3716.3
# ordenada_HvsI_A/m_=_1297.0
# frecuencia_Hz_=_212865.2307705944

Tiempo_(s)	Campo_(V.s)	Magnetizacion_(V.s)	Campo_(kA/m)	Magnetizacion_(A/m)
0.000000e+00	-4.370356e-06	-7.137336e-12	-3.099321e+01	-2.040288e+00
1.000000e-08	-4.369356e-06	-9.380885e-12	-3.098612e+01	-2.047139e+00
2.000000e-08	-4.367579e-06	-8.566345e-12	-3.097351e+01	-2.062196e+00
3.000000e-08	-4.365117e-06	-8.658306e-12	-3.095605e+01	-2.084154e+00
4.000000e-08	-4.362003e-06	-1.157099e-11	-3.093397e+01	-2.109779e+00
5.000000e-08	-4.358129e-06	-1.517616e-11	-3.090650e+01	-2.135068e+00
6.000000e-08	-4.353411e-06	-1.639451e-11	-3.087304e+01	-2.156030e+00
7.000000e-08	-4.347863e-06	-1.655152e-11	-3.083369e+01	-2.168942e+00
8.000000e-08	-4.341356e-06	-8.191676e-12	-3.078755e+01	-2.170390e+00
9.000000e-08	-4.333883e-06	1.419632e-11	-3.073455e+01	-2.157634e+00
1.000000e-07	-4.325608e-06	9.416012e-12	-3.067587e+01	-2.129635e+00
1.100000e-07	-4.316726e-06	-4.131498e-11	-3.061288e+01	-2.088559e+00
1.200000e-07	-4.307334e-06	-3.227602e-11	-3.054627e+01	-2.040985e+00
1.300000e-07	-4.297208e-06	2.399065e-11	-3.047447e+01	-1.997737e+00
1.400000e-07	-4.286269e-06	2.155526e-11	-3.039688e+01	-1.971535e+00
1.500000e-07	-4.274785e-06	-6.374542e-11	-3.031544e+01	-1.972474e+00
1.600000e-07	-4.262618e-06	-2.541898e-11	-3.022916e+01	-2.002507e+00
1.700000e-07	-4.249401e-06	1.655115e-11	-3.013543e+01	-2.050984e+00
1.800000e-07	-4.235415e-06	-6.852711e-11	-3.003625e+01	-2.093560e+00
1.900000e-07	-4.221008e-06	-6.127037e-11	-2.993408e+01	-2.095962e+00
2.000000e-07	-4.205892e-06	-2.534535e-11	-2.982688e+01	-2.022547e+00
2.100000e-07	-4.189966e-06	-5.788512e-11	-2.971394e+01	-1.847589e+00
2.200000e-07	-4.173321e-06	-6.570156e-11	-2.959589e+01	-1.565769e+00
2.300000e-07	-4.155817e-06	1.779122e-11	-2.947176e+01	-1.197948e+00
2.400000e-07	-4.137527e-06	-2.622724e-11	-2.934206e+01	-7.893958e-01
2.500000e-07	-4.118552e-06	-6.768243e-11	-2.920749e+01	-4.000012e-01
2.600000e-07	-4.098692e-06	8.288035e-12	-2.906665e+01	-8.876839e-02
2.700000e-07	-4.077873e-06	-1.555679e-11	-2.891901e+01	1.027759e-01
2.800000e-07	-4.056324e-06	-3.895669e-11	-2.876619e+01	1.628375e-01
2.900000e-07	-4.033988e-06	-3.313624e-12	-2.860779e+01	1.129171e-01
3.000000e-07	-4.010770e-06	-2.064416e-11	-2.844314e+01	1.062529e-03
3.100000e-07	-3.986890e-06	-2.796274e-11	-2.827378e+01	-1.133131e-01
3.200000e-07	-3.962377e-06	-2.255644e-12	-2.809995e+01	-1.781641e-01
3.300000e-07	-3.937147e-06	-3.617115e-11	-2.792102e+01	-1.648245e-01
3.400000e-07	-3.911208e-06	-6.099733e-11	-2.773708e+01	-7.584129e-02
3.500000e-07	-3.884528e-06	-1.867027e-11	-2.754787e+01	5.802856e-02
3.600000e-07	-3.857136e-06	-2.107858e-11	-2.735361e+01	1.905014e-01
3.700000e-07	-3.829055e-06	-2.829800e-11	-2.715447e+01	2.775203e-01
3.800000e-07	-3.800273e-06	-8.628070e-12	-2.695036e+01	2.936561e-01
3.900000e-07	-3.770773e-06	-3.553123e-11	-2.674115e+01	2.412612e-01
4.000000e-07	-3.740524e-06	-2.003534e-11	-2.652663e+01	1.491644e-01
4.100000e-07	-3.709538e-06	-9.634852e-12	-2.630689e+01	6.156487e-02
4.200000e-07	-3.677765e-06	-4.462738e-11	-2.608157e+01	2.139085e-02
4.300000e-07	-3.645271e-06	-3.794948e-11	-2.585113e+01	5.438291e-02
4.400000e-07	-3.612176e-06	-1.311353e-11	-2.561643e+01	1.598092e-01
4.500000e-07	-3.578555e-06	-4.434352e-12	-2.537800e+01	3.111509e-01
4.600000e-07	-3.544413e-06	-1.789697e-11	-2.513587e+01	4.663069e-01
4.700000e-07	-3.509700e-06	-1.620218e-11	-2.488971e+01	5.832954e-01
4.800000e-07	-3.474440e-06	-1.303972e-11	-2.463965e+01	6.354398e-01
4.900000e-07	-3.438550e-06	-1.634268e-11	-2.438513e+01	6.203492e-01
5.000000e-07	-3.401978e-06	-9.977236e-12	-2.412577e+01	5.594899e-01
5.100000e-07	-3.364835e-06	-2.189291e-11	-2.386237e+01	4.888086e-01
5.200000e-07	-3.327153e-06	-1.714658e-11	-2.359513e+01	4.442787e-01
5.300000e-07	-3.288921e-06	-6.529218e-12	-2.332401e+01	4.480855e-01
5.400000e-07	-3.250114e-06	-1.062421e-11	-2.304880e+01	5.007606e-01
5.500000e-07	-3.210669e-06	-1.193987e-11	-2.276907e+01	5.821142e-01
5.600000e-07	-3.170634e-06	-1.698584e-11	-2.248515e+01	6.602994e-01
5.700000e-07	-3.130073e-06	-1.031437e-11	-2.219750e+01	7.051669e-01
5.800000e-07	-3.089001e-06	-5.774985e-12	-2.190623e+01	7.004833e-01
5.900000e-07	-3.047431e-06	-9.621276e-12	-2.161143e+01	6.501733e-01
6.000000e-07	-3.005240e-06	-1.378707e-11	-2.131223e+01	5.762488e-01
6.100000e-07	-2.962407e-06	-1.433420e-11	-2.100847e+01	5.094683e-01
6.200000e-07	-2.919104e-06	-4.915728e-12	-2.070138e+01	4.766720e-01
6.300000e-07	-2.875314e-06	-7.975806e-12	-2.039084e+01	4.900051e-01
6.400000e-07	-2.830991e-06	-9.826764e-12	-2.007651e+01	5.423933e-01
6.500000e-07	-2.786213e-06	-5.834180e-12	-1.975896e+01	6.110328e-01
6.600000e-07	-2.740910e-06	-4.816067e-12	-1.943768e+01	6.673772e-01
6.700000e-07	-2.694949e-06	-6.316998e-13	-1.911174e+01	6.894623e-01
6.800000e-07	-2.648368e-06	-6.132837e-12	-1.878140e+01	6.714847e-01
6.900000e-07	-2.601262e-06	-7.628986e-12	-1.844734e+01	6.266784e-01
7.000000e-07	-2.553706e-06	-4.390166e-12	-1.811009e+01	5.822757e-01
7.100000e-07	-2.505769e-06	-1.066721e-12	-1.777014e+01	5.685481e-01
7.200000e-07	-2.457406e-06	2.626992e-12	-1.742716e+01	6.063354e-01
7.300000e-07	-2.408493e-06	-6.344811e-13	-1.708029e+01	6.980909e-01
7.400000e-07	-2.359067e-06	1.868697e-12	-1.672977e+01	8.260752e-01
7.500000e-07	-2.309264e-06	6.199750e-12	-1.637658e+01	9.584790e-01
7.600000e-07	-2.259107e-06	9.689294e-12	-1.602089e+01	1.061097e+00
7.700000e-07	-2.208571e-06	9.765104e-12	-1.566250e+01	1.109979e+00
7.800000e-07	-2.157679e-06	6.375567e-12	-1.530159e+01	1.100123e+00
7.900000e-07	-2.106462e-06	1.131445e-11	-1.493837e+01	1.046850e+00
8.000000e-07	-2.054866e-06	1.244543e-11	-1.457247e+01	9.794484e-01
8.100000e-07	-2.002832e-06	8.222172e-12	-1.420346e+01	9.296737e-01
8.200000e-07	-1.950385e-06	3.505045e-12	-1.383153e+01	9.196974e-01
8.300000e-07	-1.897631e-06	4.403291e-12	-1.345741e+01	9.542170e-01
8.400000e-07	-1.844615e-06	1.146702e-11	-1.308144e+01	1.019695e+00
8.500000e-07	-1.791302e-06	1.003303e-11	-1.270336e+01	1.090812e+00
8.600000e-07	-1.737681e-06	8.078037e-12	-1.232310e+01	1.141359e+00
8.700000e-07	-1.683760e-06	7.628198e-12	-1.194070e+01	1.155081e+00
8.800000e-07	-1.629610e-06	1.010145e-11	-1.155669e+01	1.132134e+00
8.900000e-07	-1.575247e-06	1.386636e-11	-1.117116e+01	1.088663e+00
9.000000e-07	-1.520581e-06	1.091409e-11	-1.078349e+01	1.049834e+00
9.100000e-07	-1.465600e-06	1.028515e-11	-1.039358e+01	1.039307e+00
9.200000e-07	-1.410304e-06	1.168666e-11	-1.000144e+01	1.069469e+00
9.300000e-07	-1.354683e-06	1.347887e-11	-9.606993e+00	1.136404e+00
9.400000e-07	-1.298788e-06	1.194861e-11	-9.210600e+00	1.221524e+00
9.500000e-07	-1.242650e-06	8.126754e-12	-8.812489e+00	1.299098e+00
9.600000e-07	-1.186297e-06	1.011645e-11	-8.412851e+00	1.346507e+00
9.700000e-07	-1.129743e-06	1.340655e-11	-8.011788e+00	1.353046e+00
9.800000e-07	-1.072938e-06	1.595648e-11	-7.608946e+00	1.323734e+00
9.900000e-07	-1.015889e-06	1.520427e-11	-7.204368e+00	1.276733e+00
1.000000e-06	-9.586138e-07	1.439115e-11	-6.798191e+00	1.235580e+00
1.010000e-06	-9.011057e-07	1.713549e-11	-6.390362e+00	1.219534e+00
1.020000e-06	-8.433892e-07	1.378716e-11	-5.981054e+00	1.236045e+00
1.030000e-06	-7.855265e-07	9.383659e-12	-5.570710e+00	1.278373e+00
1.040000e-06	-7.275415e-07	7.048452e-12	-5.159498e+00	1.329211e+00
1.050000e-06	-6.693955e-07	9.485361e-12	-4.747145e+00	1.368661e+00
1.060000e-06	-6.111134e-07	1.519734e-11	-4.333827e+00	1.383110e+00
1.070000e-06	-5.527215e-07	1.724621e-11	-3.919729e+00	1.371245e+00
1.080000e-06	-4.942493e-07	1.970709e-11	-3.505063e+00	1.344663e+00
1.090000e-06	-4.357037e-07	1.973899e-11	-3.089875e+00	1.322825e+00
1.100000e-06	-3.770722e-07	1.969687e-11	-2.674079e+00	1.324478e+00
1.110000e-06	-3.183982e-07	1.839647e-11	-2.257981e+00	1.359164e+00
1.120000e-06	-2.596723e-07	1.377855e-11	-1.841516e+00	1.422418e+00
1.130000e-06	-2.009089e-07	1.138530e-11	-1.424783e+00	1.496739e+00
1.140000e-06	-1.421143e-07	1.300455e-11	-1.007830e+00	1.558068e+00
1.150000e-06	-8.328220e-08	1.676971e-11	-5.906115e-01	1.585208e+00
1.160000e-06	-2.446289e-08	1.970195e-11	-1.734832e-01	1.568403e+00
1.170000e-06	3.433591e-08	2.081151e-11	2.434996e-01	1.513592e+00
1.180000e-06	9.311458e-08	2.250307e-11	6.603396e-01	1.440587e+00
1.190000e-06	1.518832e-07	2.255178e-11	1.077109e+00	1.375832e+00
1.200000e-06	2.105933e-07	2.193797e-11	1.493462e+00	1.342584e+00
1.210000e-06	2.692142e-07	1.823512e-11	1.909184e+00	1.352363e+00
1.220000e-06	3.277871e-07	1.487376e-11	2.324564e+00	1.400977e+00
1.230000e-06	3.863094e-07	1.603792e-11	2.739586e+00	1.470612e+00
1.240000e-06	4.447552e-07	1.791807e-11	3.154066e+00	1.537045e+00
1.250000e-06	5.030762e-07	1.993185e-11	3.567660e+00	1.579035e+00
1.260000e-06	5.612809e-07	2.102090e-11	3.980430e+00	1.586186e+00
1.270000e-06	6.194148e-07	2.553135e-11	4.392698e+00	1.562232e+00
1.280000e-06	6.774407e-07	2.828467e-11	4.804199e+00	1.522635e+00
1.290000e-06	7.353398e-07	2.427202e-11	5.214802e+00	1.487654e+00
1.300000e-06	7.931071e-07	1.809304e-11	5.624469e+00	1.473846e+00
1.310000e-06	8.507062e-07	1.333334e-11	6.032944e+00	1.487476e+00
1.320000e-06	9.081114e-07	1.341463e-11	6.440044e+00	1.522456e+00
1.330000e-06	9.653601e-07	1.478231e-11	6.846034e+00	1.563501e+00
1.340000e-06	1.022458e-06	1.568151e-11	7.250956e+00	1.593063e+00
1.350000e-06	1.079362e-06	1.873422e-11	7.654501e+00	1.599065e+00
1.360000e-06	1.136080e-06	2.154458e-11	8.056725e+00	1.580240e+00
1.370000e-06	1.192585e-06	2.251265e-11	8.457445e+00	1.546866e+00
1.380000e-06	1.248860e-06	2.054312e-11	8.856526e+00	1.516681e+00
1.390000e-06	1.304932e-06	1.898471e-11	9.254172e+00	1.507680e+00
1.400000e-06	1.360785e-06	1.947076e-11	9.650261e+00	1.530774e+00
1.410000e-06	1.416371e-06	1.922676e-11	1.004446e+01	1.585278e+00
1.420000e-06	1.471636e-06	1.772747e-11	1.043639e+01	1.659009e+00
1.430000e-06	1.526546e-06	1.526454e-11	1.082579e+01	1.732871e+00
1.440000e-06	1.581156e-06	1.541643e-11	1.121306e+01	1.788033e+00
1.450000e-06	1.635514e-06	1.744001e-11	1.159856e+01	1.812786e+00
1.460000e-06	1.689597e-06	1.917971e-11	1.198210e+01	1.806439e+00
1.470000e-06	1.743381e-06	2.154604e-11	1.236352e+01	1.778837e+00
1.480000e-06	1.796856e-06	2.367726e-11	1.274275e+01	1.745931e+00
1.490000e-06	1.850003e-06	2.443199e-11	1.311964e+01	1.723359e+00
1.500000e-06	1.902872e-06	2.125277e-11	1.349458e+01	1.720688e+00
1.510000e-06	1.955466e-06	1.597486e-11	1.386756e+01	1.738582e+00
1.520000e-06	2.007683e-06	1.330444e-11	1.423786e+01	1.769776e+00
1.530000e-06	2.059464e-06	1.437933e-11	1.460508e+01	1.803168e+00
1.540000e-06	2.110819e-06	1.759249e-11	1.496927e+01	1.829029e+00
1.550000e-06	2.161785e-06	2.080068e-11	1.533070e+01	1.843010e+00
1.560000e-06	2.212366e-06	2.322758e-11	1.568941e+01	1.847271e+00
1.570000e-06	2.262556e-06	2.428552e-11	1.604534e+01	1.848405e+00
1.580000e-06	2.312385e-06	2.304702e-11	1.639872e+01	1.853301e+00
1.590000e-06	2.361893e-06	1.945120e-11	1.674981e+01	1.864979e+00
1.600000e-06	2.410987e-06	1.465122e-11	1.709797e+01	1.880439e+00
1.610000e-06	2.459538e-06	1.217380e-11	1.744228e+01	1.891605e+00
1.620000e-06	2.507587e-06	1.395921e-11	1.778303e+01	1.889050e+00
1.630000e-06	2.555197e-06	1.708780e-11	1.812066e+01	1.866858e+00
1.640000e-06	2.602385e-06	1.804826e-11	1.845531e+01	1.826420e+00
1.650000e-06	2.649153e-06	1.595899e-11	1.878697e+01	1.777311e+00
1.660000e-06	2.695393e-06	1.362201e-11	1.911489e+01	1.734626e+00
1.670000e-06	2.741019e-06	1.317036e-11	1.943845e+01	1.713652e+00
1.680000e-06	2.786081e-06	1.309012e-11	1.975802e+01	1.723964e+00
1.690000e-06	2.830643e-06	1.261975e-11	2.007404e+01	1.765355e+00
1.700000e-06	2.874744e-06	1.309561e-11	2.038679e+01	1.827337e+00
1.710000e-06	2.918386e-06	1.613621e-11	2.069628e+01	1.892565e+00
1.720000e-06	2.961603e-06	1.947775e-11	2.100277e+01	1.942891e+00
1.730000e-06	3.004363e-06	2.015846e-11	2.130601e+01	1.965732e+00
1.740000e-06	3.046520e-06	1.868876e-11	2.160497e+01	1.958236e+00
1.750000e-06	3.088069e-06	1.900089e-11	2.189963e+01	1.927641e+00
1.760000e-06	3.129077e-06	1.982785e-11	2.219044e+01	1.887763e+00
1.770000e-06	3.169560e-06	1.861470e-11	2.247753e+01	1.853085e+00
1.780000e-06	3.209555e-06	1.753663e-11	2.276117e+01	1.832906e+00
1.790000e-06	3.248960e-06	1.732027e-11	2.304061e+01	1.827942e+00
1.800000e-06	3.287696e-06	1.866462e-11	2.331532e+01	1.830711e+00
1.810000e-06	3.325860e-06	2.005817e-11	2.358597e+01	1.829479e+00
1.820000e-06	3.363454e-06	1.936319e-11	2.385257e+01	1.814026e+00
1.830000e-06	3.400500e-06	1.755233e-11	2.411529e+01	1.780751e+00
1.840000e-06	3.437034e-06	1.704104e-11	2.437438e+01	1.734916e+00
1.850000e-06	3.472933e-06	1.752404e-11	2.462896e+01	1.689003e+00
1.860000e-06	3.508135e-06	1.841837e-11	2.487860e+01	1.657830e+00
1.870000e-06	3.542714e-06	1.918172e-11	2.512382e+01	1.652390e+00
1.880000e-06	3.576707e-06	1.958467e-11	2.536489e+01	1.675007e+00
1.890000e-06	3.610151e-06	2.084439e-11	2.560207e+01	1.717834e+00
1.900000e-06	3.642968e-06	2.228029e-11	2.583480e+01	1.765435e+00
1.910000e-06	3.675084e-06	2.205218e-11	2.606255e+01	1.800500e+00
1.920000e-06	3.706538e-06	1.962412e-11	2.628562e+01	1.810472e+00
1.930000e-06	3.737322e-06	1.728871e-11	2.650393e+01	1.792480e+00
1.940000e-06	3.767396e-06	1.677063e-11	2.671720e+01	1.754627e+00
1.950000e-06	3.796700e-06	1.762431e-11	2.692502e+01	1.713100e+00
1.960000e-06	3.825268e-06	1.827572e-11	2.712761e+01	1.686251e+00
1.970000e-06	3.853164e-06	1.814103e-11	2.732544e+01	1.687911e+00
1.980000e-06	3.880422e-06	1.769658e-11	2.751875e+01	1.722497e+00
1.990000e-06	3.907006e-06	1.746802e-11	2.770727e+01	1.783715e+00
2.000000e-06	3.932853e-06	1.744764e-11	2.789057e+01	1.857193e+00
2.010000e-06	3.958017e-06	1.744224e-11	2.806903e+01	1.925886e+00
2.020000e-06	3.982558e-06	1.835039e-11	2.824307e+01	1.976051e+00
2.030000e-06	4.006482e-06	2.047102e-11	2.841273e+01	2.001491e+00
2.040000e-06	4.029681e-06	2.217757e-11	2.857725e+01	2.004581e+00
2.050000e-06	4.052090e-06	2.179232e-11	2.873617e+01	1.993931e+00
2.060000e-06	4.073765e-06	2.056622e-11	2.888987e+01	1.979926e+00
2.070000e-06	4.094701e-06	2.046465e-11	2.903835e+01	1.970117e+00
2.080000e-06	4.114759e-06	2.037306e-11	2.918059e+01	1.966410e+00
2.090000e-06	4.133941e-06	1.988407e-11	2.931663e+01	1.965085e+00
2.100000e-06	4.152426e-06	2.033503e-11	2.944772e+01	1.959442e+00
2.110000e-06	4.170297e-06	2.195458e-11	2.957445e+01	1.943742e+00
2.120000e-06	4.187494e-06	2.406781e-11	2.969640e+01	1.916600e+00
2.130000e-06	4.203889e-06	2.508318e-11	2.981267e+01	1.882294e+00
2.140000e-06	4.219521e-06	2.484135e-11	2.992354e+01	1.849406e+00
2.150000e-06	4.234473e-06	2.388360e-11	3.002957e+01	1.827403e+00
2.160000e-06	4.248769e-06	2.329024e-11	3.013095e+01	1.822636e+00
2.170000e-06	4.262306e-06	2.246305e-11	3.022695e+01	1.835533e+00
2.180000e-06	4.275030e-06	2.259023e-11	3.031718e+01	1.860192e+00
2.190000e-06	4.287039e-06	2.419925e-11	3.040235e+01	1.886597e+00
2.200000e-06	4.298384e-06	2.447352e-11	3.048280e+01	1.904550e+00
2.210000e-06	4.308970e-06	2.563781e-11	3.055788e+01	1.907708e+00
2.220000e-06	4.318709e-06	2.709004e-11	3.062694e+01	1.896070e+00
2.230000e-06	4.327675e-06	2.761824e-11	3.069052e+01	1.875940e+00
2.240000e-06	4.335945e-06	2.794275e-11	3.074918e+01	1.857405e+00
2.250000e-06	4.343508e-06	2.720137e-11	3.080281e+01	1.850401e+00
2.260000e-06	4.350292e-06	2.566143e-11	3.085092e+01	1.860960e+00
2.270000e-06	4.356262e-06	2.636128e-11	3.089326e+01	1.889081e+00
2.280000e-06	4.361398e-06	3.004086e-11	3.092968e+01	1.928998e+00
2.290000e-06	4.365680e-06	3.229178e-11	3.096005e+01	1.971581e+00
2.300000e-06	4.369116e-06	3.217176e-11	3.098442e+01	2.007803e+00
2.310000e-06	4.371756e-06	3.300561e-11	3.100314e+01	2.031868e+00
2.320000e-06	4.373678e-06	3.319052e-11	3.101676e+01	2.042834e+00
2.330000e-06	4.374837e-06	2.998778e-11	3.102499e+01	2.044278e+00
2.340000e-06	4.375178e-06	2.548218e-11	3.102740e+01	2.042382e+00
2.350000e-06	4.374757e-06	2.232689e-11	3.102442e+01	2.043381e+00
2.360000e-06	4.373631e-06	2.429138e-11	3.101643e+01	2.051439e+00
2.370000e-06	4.371808e-06	2.953723e-11	3.100350e+01	2.067676e+00
2.380000e-06	4.369207e-06	3.193179e-11	3.098506e+01	2.090422e+00
2.390000e-06	4.365844e-06	3.408457e-11	3.096121e+01	2.116257e+00
2.400000e-06	4.361792e-06	3.811830e-11	3.093248e+01	2.141146e+00
2.410000e-06	4.357004e-06	3.793288e-11	3.089852e+01	2.161132e+00
2.420000e-06	4.351379e-06	3.374922e-11	3.085863e+01	2.172533e+00
2.430000e-06	4.344856e-06	6.023853e-11	3.081237e+01	2.171998e+00
2.440000e-06	4.337248e-06	6.366036e-11	3.075841e+01	2.156963e+00
2.450000e-06	4.328467e-06	3.812526e-12	3.069614e+01	2.126766e+00
2.460000e-06	4.319097e-06	1.285507e-12	3.062970e+01	2.084181e+00
2.470000e-06	4.309648e-06	6.855288e-11	3.056268e+01	2.036481e+00
2.480000e-06	4.299530e-06	1.020228e-10	3.049093e+01	1.994984e+00
2.490000e-06	4.288202e-06	8.597649e-12	3.041059e+01	1.972347e+00
2.500000e-06	4.276390e-06	2.180970e-11	3.032683e+01	1.977795e+00
2.510000e-06	4.264331e-06	7.449189e-11	3.024131e+01	2.011617e+00
2.520000e-06	4.251151e-06	-5.623808e-12	3.014784e+01	2.061073e+00
2.530000e-06	4.236989e-06	-3.288882e-11	3.004741e+01	2.099957e+00
2.540000e-06	4.222453e-06	5.783571e-11	2.994432e+01	2.093150e+00
2.550000e-06	4.207163e-06	3.396806e-11	2.983590e+01	2.005749e+00
2.560000e-06	4.190897e-06	-3.204891e-11	2.972054e+01	1.814495e+00
2.570000e-06	4.173990e-06	7.870900e-11	2.960064e+01	1.517789e+00
2.580000e-06	4.156338e-06	4.751155e-11	2.947546e+01	1.140468e+00
2.590000e-06	4.137881e-06	-4.254600e-11	2.934456e+01	7.308007e-01
2.600000e-06	4.118852e-06	1.786164e-11	2.920962e+01	3.496174e-01
2.610000e-06	4.098978e-06	2.649044e-11	2.906868e+01	5.431335e-02
2.620000e-06	4.078140e-06	-4.051455e-11	2.892090e+01	-1.174368e-01
2.630000e-06	4.056676e-06	5.652839e-12	2.876869e+01	-1.588560e-01
2.640000e-06	4.034422e-06	1.338920e-11	2.861087e+01	-9.610174e-02
2.650000e-06	4.011266e-06	-2.759771e-11	2.844665e+01	1.995214e-02
2.660000e-06	3.987443e-06	5.108418e-11	2.827771e+01	1.297977e-01
2.670000e-06	3.962851e-06	1.192589e-11	2.810331e+01	1.840235e-01
2.680000e-06	3.937478e-06	-5.021293e-11	2.792337e+01	1.583982e-01
2.690000e-06	3.911425e-06	2.998658e-11	2.773861e+01	6.016060e-02
2.700000e-06	3.884636e-06	2.165914e-12	2.754863e+01	-7.660509e-02
2.710000e-06	3.857223e-06	-6.620287e-12	2.735423e+01	-2.047748e-01
2.720000e-06	3.829159e-06	2.521918e-11	2.715521e+01	-2.821593e-01
2.730000e-06	3.800268e-06	-2.007070e-11	2.695032e+01	-2.871501e-01
2.740000e-06	3.770691e-06	1.108100e-11	2.674057e+01	-2.264207e-01
2.750000e-06	3.740449e-06	2.598008e-11	2.652610e+01	-1.320115e-01
2.760000e-06	3.709364e-06	-2.069885e-11	2.630566e+01	-4.904923e-02
2.770000e-06	3.677521e-06	-8.354812e-12	2.607984e+01	-1.879515e-02
2.780000e-06	3.645042e-06	1.904713e-11	2.584951e+01	-6.338802e-02
2.790000e-06	3.611978e-06	1.317173e-11	2.561503e+01	-1.779271e-01
2.800000e-06	3.578386e-06	6.179387e-12	2.537680e+01	-3.327114e-01
2.810000e-06	3.544140e-06	-7.931972e-13	2.513394e+01	-4.845972e-01
2.820000e-06	3.509187e-06	-2.564224e-12	2.488607e+01	-5.930254e-01
2.830000e-06	3.473627e-06	3.947522e-12	2.463388e+01	-6.346002e-01
2.840000e-06	3.437507e-06	-7.794857e-12	2.437773e+01	-6.107791e-01
2.850000e-06	3.400883e-06	-7.857457e-12	2.411801e+01	-5.459796e-01
2.860000e-06	3.363705e-06	-2.637068e-12	2.385435e+01	-4.771265e-01
2.870000e-06	3.325874e-06	1.191181e-12	2.358607e+01	-4.389123e-01
2.880000e-06	3.287431e-06	7.785343e-12	2.331344e+01	-4.505769e-01
2.890000e-06	3.248453e-06	-9.736601e-12	2.303702e+01	-5.092602e-01
2.900000e-06	3.208971e-06	-6.732359e-12	2.275702e+01	-5.922854e-01
2.910000e-06	3.168953e-06	-6.493435e-12	2.247323e+01	-6.671729e-01
2.920000e-06	3.128354e-06	-7.089677e-12	2.218531e+01	-7.051818e-01
2.930000e-06	3.087103e-06	5.475519e-13	2.189278e+01	-6.928970e-01
2.940000e-06	3.045291e-06	-2.054259e-11	2.159625e+01	-6.372943e-01
2.950000e-06	3.002983e-06	-9.395894e-12	2.129622e+01	-5.624297e-01
2.960000e-06	2.960156e-06	-1.213852e-12	2.099250e+01	-4.992951e-01
