# Temperatura_=_20.0
# Concentracion g/m^3_=_10000.0
# C_Vs_to_Am_M_A/Vsm_=_65563218390.804596
# pendiente_HvsI_1/m_=_3716.3
# ordenada_HvsI_A/m_=_1297.0
# frecuencia_Hz_=_212868.05068610396

Tiempo_(s)	Campo_(V.s)	Magnetizacion_(V.s)	Campo_(kA/m)	Magnetizacion_(A/m)
0.000000e+00	-4.384319e-06	-8.708709e-09	-3.099629e+01	-5.682724e+02
1.000000e-08	-4.384085e-06	-8.709080e-09	-3.099463e+01	-5.682840e+02
2.000000e-08	-4.383044e-06	-8.707063e-09	-3.098727e+01	-5.682356e+02
3.000000e-08	-4.381254e-06	-8.705125e-09	-3.097462e+01	-5.681337e+02
4.000000e-08	-4.378769e-06	-8.702411e-09	-3.095705e+01	-5.679900e+02
5.000000e-08	-4.375615e-06	-8.699995e-09	-3.093475e+01	-5.678162e+02
6.000000e-08	-4.371701e-06	-8.695943e-09	-3.090708e+01	-5.676177e+02
7.000000e-08	-4.366924e-06	-8.688657e-09	-3.087331e+01	-5.673906e+02
8.000000e-08	-4.361301e-06	-8.677963e-09	-3.083355e+01	-5.671235e+02
9.000000e-08	-4.354714e-06	-8.689596e-09	-3.078699e+01	-5.668037e+02
1.000000e-07	-4.347140e-06	-8.711966e-09	-3.073343e+01	-5.664245e+02
1.100000e-07	-4.338720e-06	-8.701343e-09	-3.067391e+01	-5.659921e+02
1.200000e-07	-4.329723e-06	-8.613239e-09	-3.061030e+01	-5.655262e+02
1.300000e-07	-4.320279e-06	-8.622903e-09	-3.054354e+01	-5.650563e+02
1.400000e-07	-4.310049e-06	-8.696045e-09	-3.047121e+01	-5.646114e+02
1.500000e-07	-4.298951e-06	-8.655177e-09	-3.039275e+01	-5.642098e+02
1.600000e-07	-4.287377e-06	-8.583666e-09	-3.031092e+01	-5.638499e+02
1.700000e-07	-4.275103e-06	-8.637715e-09	-3.022415e+01	-5.635090e+02
1.800000e-07	-4.261724e-06	-8.689216e-09	-3.012956e+01	-5.631477e+02
1.900000e-07	-4.247619e-06	-8.560618e-09	-3.002984e+01	-5.627215e+02
2.000000e-07	-4.233124e-06	-8.589670e-09	-2.992737e+01	-5.621939e+02
2.100000e-07	-4.217894e-06	-8.626254e-09	-2.981969e+01	-5.615460e+02
2.200000e-07	-4.201836e-06	-8.514353e-09	-2.970617e+01	-5.607808e+02
2.300000e-07	-4.185057e-06	-8.534513e-09	-2.958754e+01	-5.599191e+02
2.400000e-07	-4.167400e-06	-8.595005e-09	-2.946271e+01	-5.589886e+02
2.500000e-07	-4.149000e-06	-8.517845e-09	-2.933263e+01	-5.580126e+02
2.600000e-07	-4.129907e-06	-8.459690e-09	-2.919764e+01	-5.569995e+02
2.700000e-07	-4.109818e-06	-8.525981e-09	-2.905562e+01	-5.559402e+02
2.800000e-07	-4.088801e-06	-8.484717e-09	-2.890703e+01	-5.548117e+02
2.900000e-07	-4.067139e-06	-8.450652e-09	-2.875388e+01	-5.535875e+02
3.000000e-07	-4.044688e-06	-8.458712e-09	-2.859516e+01	-5.522491e+02
3.100000e-07	-4.021343e-06	-8.384694e-09	-2.843012e+01	-5.507942e+02
3.200000e-07	-3.997347e-06	-8.401435e-09	-2.826047e+01	-5.492390e+02
3.300000e-07	-3.972683e-06	-8.392715e-09	-2.808610e+01	-5.476134e+02
3.400000e-07	-3.947270e-06	-8.307443e-09	-2.790643e+01	-5.459502e+02
3.500000e-07	-3.921152e-06	-8.301108e-09	-2.772178e+01	-5.442744e+02
3.600000e-07	-3.894266e-06	-8.309298e-09	-2.753170e+01	-5.425944e+02
3.700000e-07	-3.866662e-06	-8.269866e-09	-2.733655e+01	-5.409006e+02
3.800000e-07	-3.838400e-06	-8.233873e-09	-2.713675e+01	-5.391706e+02
3.900000e-07	-3.809483e-06	-8.216391e-09	-2.693231e+01	-5.373783e+02
4.000000e-07	-3.779822e-06	-8.164007e-09	-2.672261e+01	-5.355051e+02
4.100000e-07	-3.749378e-06	-8.147568e-09	-2.650737e+01	-5.335463e+02
4.200000e-07	-3.718205e-06	-8.140264e-09	-2.628699e+01	-5.315123e+02
4.300000e-07	-3.686233e-06	-8.067082e-09	-2.606096e+01	-5.294234e+02
4.400000e-07	-3.653527e-06	-8.045494e-09	-2.582973e+01	-5.273010e+02
4.500000e-07	-3.620254e-06	-8.030655e-09	-2.559449e+01	-5.251581e+02
4.600000e-07	-3.586494e-06	-7.991789e-09	-2.535581e+01	-5.229943e+02
4.700000e-07	-3.552182e-06	-7.957683e-09	-2.511324e+01	-5.207961e+02
4.800000e-07	-3.517277e-06	-7.913865e-09	-2.486646e+01	-5.185428e+02
4.900000e-07	-3.481824e-06	-7.886955e-09	-2.461582e+01	-5.162148e+02
5.000000e-07	-3.445726e-06	-7.851229e-09	-2.436061e+01	-5.138017e+02
5.100000e-07	-3.408981e-06	-7.815156e-09	-2.410084e+01	-5.113059e+02
5.200000e-07	-3.371673e-06	-7.761166e-09	-2.383707e+01	-5.087409e+02
5.300000e-07	-3.333819e-06	-7.716536e-09	-2.356945e+01	-5.061245e+02
5.400000e-07	-3.295433e-06	-7.696876e-09	-2.329807e+01	-5.034711e+02
5.500000e-07	-3.256417e-06	-7.648892e-09	-2.302223e+01	-5.007840e+02
5.600000e-07	-3.216749e-06	-7.607170e-09	-2.274179e+01	-4.980541e+02
5.700000e-07	-3.176519e-06	-7.559756e-09	-2.245737e+01	-4.952622e+02
5.800000e-07	-3.135755e-06	-7.516208e-09	-2.216918e+01	-4.923868e+02
5.900000e-07	-3.094501e-06	-7.483725e-09	-2.187752e+01	-4.894126e+02
6.000000e-07	-3.052706e-06	-7.422761e-09	-2.158204e+01	-4.863360e+02
6.100000e-07	-3.010296e-06	-7.370264e-09	-2.128221e+01	-4.831668e+02
6.200000e-07	-2.967326e-06	-7.324491e-09	-2.097842e+01	-4.799237e+02
6.300000e-07	-2.923848e-06	-7.283755e-09	-2.067104e+01	-4.766266e+02
6.400000e-07	-2.879873e-06	-7.234313e-09	-2.036014e+01	-4.732884e+02
6.500000e-07	-2.835402e-06	-7.170676e-09	-2.004574e+01	-4.699096e+02
6.600000e-07	-2.790412e-06	-7.124438e-09	-1.972767e+01	-4.664776e+02
6.700000e-07	-2.744832e-06	-7.072459e-09	-1.940543e+01	-4.629716e+02
6.800000e-07	-2.698626e-06	-7.022995e-09	-1.907876e+01	-4.593710e+02
6.900000e-07	-2.651836e-06	-6.962080e-09	-1.874797e+01	-4.556627e+02
7.000000e-07	-2.604560e-06	-6.893983e-09	-1.841373e+01	-4.518463e+02
7.100000e-07	-2.556877e-06	-6.843486e-09	-1.807662e+01	-4.479341e+02
7.200000e-07	-2.508774e-06	-6.784438e-09	-1.773655e+01	-4.439454e+02
7.300000e-07	-2.460169e-06	-6.721920e-09	-1.739292e+01	-4.398992e+02
7.400000e-07	-2.411027e-06	-6.652007e-09	-1.704549e+01	-4.358060e+02
7.500000e-07	-2.361414e-06	-6.589913e-09	-1.669474e+01	-4.316640e+02
7.600000e-07	-2.311412e-06	-6.536691e-09	-1.634124e+01	-4.274589e+02
7.700000e-07	-2.261033e-06	-6.467124e-09	-1.598506e+01	-4.231695e+02
7.800000e-07	-2.210316e-06	-6.396049e-09	-1.562650e+01	-4.187749e+02
7.900000e-07	-2.159314e-06	-6.322155e-09	-1.526593e+01	-4.142609e+02
8.000000e-07	-2.107928e-06	-6.254970e-09	-1.490264e+01	-4.096249e+02
8.100000e-07	-2.056079e-06	-6.185462e-09	-1.453608e+01	-4.048745e+02
8.200000e-07	-2.003793e-06	-6.105098e-09	-1.416643e+01	-4.000241e+02
8.300000e-07	-1.951169e-06	-6.031818e-09	-1.379439e+01	-3.950880e+02
8.400000e-07	-1.898272e-06	-5.956773e-09	-1.342041e+01	-3.900758e+02
8.500000e-07	-1.845064e-06	-5.884728e-09	-1.304425e+01	-3.849884e+02
8.600000e-07	-1.791553e-06	-5.804462e-09	-1.266593e+01	-3.798192e+02
8.700000e-07	-1.737755e-06	-5.715947e-09	-1.228559e+01	-3.745576e+02
8.800000e-07	-1.683702e-06	-5.632400e-09	-1.190345e+01	-3.691928e+02
8.900000e-07	-1.629417e-06	-5.545450e-09	-1.151966e+01	-3.637184e+02
9.000000e-07	-1.574857e-06	-5.461579e-09	-1.113393e+01	-3.581333e+02
9.100000e-07	-1.519971e-06	-5.372820e-09	-1.074590e+01	-3.524406e+02
9.200000e-07	-1.464720e-06	-5.285553e-09	-1.035529e+01	-3.466447e+02
9.300000e-07	-1.409140e-06	-5.202016e-09	-9.962350e+00	-3.407482e+02
9.400000e-07	-1.353300e-06	-5.110581e-09	-9.567567e+00	-3.347493e+02
9.500000e-07	-1.297210e-06	-5.016459e-09	-9.171023e+00	-3.286422e+02
9.600000e-07	-1.240886e-06	-4.913360e-09	-8.772820e+00	-3.224189e+02
9.700000e-07	-1.184353e-06	-4.813772e-09	-8.373143e+00	-3.160710e+02
9.800000e-07	-1.127579e-06	-4.717502e-09	-7.971768e+00	-3.095926e+02
9.900000e-07	-1.070539e-06	-4.615267e-09	-7.568505e+00	-3.029807e+02
1.000000e-06	-1.013253e-06	-4.512419e-09	-7.163504e+00	-2.962340e+02
1.010000e-06	-9.557167e-07	-4.406974e-09	-6.756732e+00	-2.893519e+02
1.020000e-06	-8.979847e-07	-4.304638e-09	-6.348578e+00	-2.823318e+02
1.030000e-06	-8.400854e-07	-4.194388e-09	-5.939241e+00	-2.751694e+02
1.040000e-06	-7.820342e-07	-4.076310e-09	-5.528830e+00	-2.678597e+02
1.050000e-06	-7.238670e-07	-3.959953e-09	-5.117599e+00	-2.603987e+02
1.060000e-06	-6.655720e-07	-3.842331e-09	-4.705465e+00	-2.527857e+02
1.070000e-06	-6.071718e-07	-3.725321e-09	-4.292587e+00	-2.450237e+02
1.080000e-06	-5.486359e-07	-3.602371e-09	-3.878749e+00	-2.371184e+02
1.090000e-06	-4.899645e-07	-3.478964e-09	-3.463954e+00	-2.290749e+02
1.100000e-06	-4.312320e-07	-3.357791e-09	-3.048726e+00	-2.208943e+02
1.110000e-06	-3.724506e-07	-3.231766e-09	-2.633153e+00	-2.125710e+02
1.120000e-06	-3.135930e-07	-3.103035e-09	-2.217042e+00	-2.040928e+02
1.130000e-06	-2.546684e-07	-2.966712e-09	-1.800456e+00	-1.954436e+02
1.140000e-06	-1.957287e-07	-2.828730e-09	-1.383764e+00	-1.866087e+02
1.150000e-06	-1.367888e-07	-2.690799e-09	-9.670706e-01	-1.775793e+02
1.160000e-06	-7.781397e-08	-2.549214e-09	-5.501297e-01	-1.683560e+02
1.170000e-06	-1.883783e-08	-2.407231e-09	-1.331798e-01	-1.589488e+02
1.180000e-06	4.009723e-08	-2.260101e-09	2.834796e-01	-1.493727e+02
1.190000e-06	9.902258e-08	-2.112440e-09	7.000704e-01	-1.396422e+02
1.200000e-06	1.579444e-07	-1.962742e-09	1.116636e+00	-1.297652e+02
1.210000e-06	2.168247e-07	-1.807317e-09	1.532908e+00	-1.197389e+02
1.220000e-06	2.756401e-07	-1.647896e-09	1.948722e+00	-1.095510e+02
1.230000e-06	3.343843e-07	-1.486181e-09	2.364032e+00	-9.918334e+01
1.240000e-06	3.930488e-07	-1.326740e-09	2.778779e+00	-8.861896e+01
1.250000e-06	4.516435e-07	-1.162902e-09	3.193032e+00	-7.784825e+01
1.260000e-06	5.101777e-07	-9.926260e-10	3.606857e+00	-6.687239e+01
1.270000e-06	5.685912e-07	-8.207312e-10	4.019829e+00	-5.570242e+01
1.280000e-06	6.268555e-07	-6.469223e-10	4.431747e+00	-4.435462e+01
1.290000e-06	6.850139e-07	-4.718451e-10	4.842915e+00	-3.284400e+01
1.300000e-06	7.430710e-07	-2.906564e-10	5.253368e+00	-2.117893e+01
1.310000e-06	8.009897e-07	-1.067453e-10	5.662842e+00	-9.359291e+00
1.320000e-06	8.587540e-07	7.717227e-11	6.071224e+00	2.620816e+00
1.330000e-06	9.163609e-07	2.618342e-10	6.478494e+00	1.476678e+01
1.340000e-06	9.737542e-07	4.492996e-10	6.884253e+00	2.707625e+01
1.350000e-06	1.030931e-06	6.440611e-10	7.288483e+00	3.953414e+01
1.360000e-06	1.087948e-06	8.381469e-10	7.691579e+00	5.211213e+01
1.370000e-06	1.144797e-06	1.031100e-09	8.093495e+00	6.477339e+01
1.380000e-06	1.201448e-06	1.225415e-09	8.494008e+00	7.748064e+01
1.390000e-06	1.257877e-06	1.420832e-09	8.892948e+00	9.020454e+01
1.400000e-06	1.314098e-06	1.616501e-09	9.290417e+00	1.029287e+02
1.410000e-06	1.370121e-06	1.809462e-09	9.686492e+00	1.156492e+02
1.420000e-06	1.425905e-06	2.004022e-09	1.008087e+01	1.283679e+02
1.430000e-06	1.481398e-06	2.201303e-09	1.047319e+01	1.410836e+02
1.440000e-06	1.536543e-06	2.397393e-09	1.086306e+01	1.537820e+02
1.450000e-06	1.591333e-06	2.589431e-09	1.125041e+01	1.664317e+02
1.460000e-06	1.645815e-06	2.776892e-09	1.163559e+01	1.789860e+02
1.470000e-06	1.700027e-06	2.965053e-09	1.201886e+01	1.913915e+02
1.480000e-06	1.753961e-06	3.151310e-09	1.240016e+01	2.035998e+02
1.490000e-06	1.807595e-06	3.333050e-09	1.277935e+01	2.155783e+02
1.500000e-06	1.860900e-06	3.511633e-09	1.315620e+01	2.273155e+02
1.510000e-06	1.913900e-06	3.688026e-09	1.353090e+01	2.388185e+02
1.520000e-06	1.966632e-06	3.863067e-09	1.390371e+01	2.501042e+02
1.530000e-06	2.019007e-06	4.031684e-09	1.427399e+01	2.611859e+02
1.540000e-06	2.070913e-06	4.194439e-09	1.464095e+01	2.720631e+02
1.550000e-06	2.122359e-06	4.354779e-09	1.500466e+01	2.827162e+02
1.560000e-06	2.173428e-06	4.514468e-09	1.536571e+01	2.931107e+02
1.570000e-06	2.224133e-06	4.670907e-09	1.572419e+01	3.032080e+02
1.580000e-06	2.274456e-06	4.819187e-09	1.607996e+01	3.129790e+02
1.590000e-06	2.324408e-06	4.963077e-09	1.643311e+01	3.224159e+02
1.600000e-06	2.374026e-06	5.104959e-09	1.678390e+01	3.315359e+02
1.610000e-06	2.423248e-06	5.242383e-09	1.713189e+01	3.403759e+02
1.620000e-06	2.471946e-06	5.371841e-09	1.747618e+01	3.489789e+02
1.630000e-06	2.520122e-06	5.494585e-09	1.781677e+01	3.573784e+02
1.640000e-06	2.567838e-06	5.616414e-09	1.815411e+01	3.655850e+02
1.650000e-06	2.615122e-06	5.739193e-09	1.848841e+01	3.735817e+02
1.660000e-06	2.661952e-06	5.859301e-09	1.881948e+01	3.813302e+02
1.670000e-06	2.708278e-06	5.973387e-09	1.914700e+01	3.887853e+02
1.680000e-06	2.754032e-06	6.080123e-09	1.947047e+01	3.959125e+02
1.690000e-06	2.799166e-06	6.181824e-09	1.978956e+01	4.027030e+02
1.700000e-06	2.843795e-06	6.279786e-09	2.010508e+01	4.091796e+02
1.710000e-06	2.888008e-06	6.374304e-09	2.041766e+01	4.153913e+02
1.720000e-06	2.931755e-06	6.465515e-09	2.072694e+01	4.213991e+02
1.730000e-06	2.975049e-06	6.553425e-09	2.103302e+01	4.272578e+02
1.740000e-06	3.017873e-06	6.640448e-09	2.133578e+01	4.330007e+02
1.750000e-06	3.060102e-06	6.725127e-09	2.163433e+01	4.386322e+02
1.760000e-06	3.101723e-06	6.806257e-09	2.192858e+01	4.441321e+02
1.770000e-06	3.142800e-06	6.883902e-09	2.221899e+01	4.494677e+02
1.780000e-06	3.183361e-06	6.960829e-09	2.250574e+01	4.546101e+02
1.790000e-06	3.223428e-06	7.037883e-09	2.278901e+01	4.595479e+02
1.800000e-06	3.262910e-06	7.112107e-09	2.306814e+01	4.642929e+02
1.810000e-06	3.301710e-06	7.182753e-09	2.334245e+01	4.688757e+02
1.820000e-06	3.339912e-06	7.249329e-09	2.361253e+01	4.733340e+02
1.830000e-06	3.377566e-06	7.312972e-09	2.387874e+01	4.776974e+02
1.840000e-06	3.414681e-06	7.373905e-09	2.414113e+01	4.819761e+02
1.850000e-06	3.451280e-06	7.431898e-09	2.439988e+01	4.861573e+02
1.860000e-06	3.487230e-06	7.490031e-09	2.465404e+01	4.902111e+02
1.870000e-06	3.522463e-06	7.547352e-09	2.490313e+01	4.941033e+02
1.880000e-06	3.557096e-06	7.604040e-09	2.514798e+01	4.978103e+02
1.890000e-06	3.591166e-06	7.658301e-09	2.538885e+01	5.013299e+02
1.900000e-06	3.624680e-06	7.708196e-09	2.562578e+01	5.046834e+02
1.910000e-06	3.657561e-06	7.754502e-09	2.585825e+01	5.079088e+02
1.920000e-06	3.689735e-06	7.797441e-09	2.608571e+01	5.110473e+02
1.930000e-06	3.721220e-06	7.839811e-09	2.630830e+01	5.141290e+02
1.940000e-06	3.752022e-06	7.882635e-09	2.652607e+01	5.171620e+02
1.950000e-06	3.782091e-06	7.924241e-09	2.673865e+01	5.201308e+02
1.960000e-06	3.811366e-06	7.965436e-09	2.694562e+01	5.230034e+02
1.970000e-06	3.839928e-06	8.005974e-09	2.714755e+01	5.257446e+02
1.980000e-06	3.867814e-06	8.045142e-09	2.734470e+01	5.283293e+02
1.990000e-06	3.895069e-06	8.082483e-09	2.753739e+01	5.307526e+02
2.000000e-06	3.921657e-06	8.116204e-09	2.772535e+01	5.330310e+02
2.010000e-06	3.947488e-06	8.147017e-09	2.790798e+01	5.351956e+02
2.020000e-06	3.972640e-06	8.175337e-09	2.808580e+01	5.372802e+02
2.030000e-06	3.997174e-06	8.201961e-09	2.825925e+01	5.393090e+02
2.040000e-06	4.021099e-06	8.227716e-09	2.842839e+01	5.412890e+02
2.050000e-06	4.044303e-06	8.254868e-09	2.859244e+01	5.432097e+02
2.060000e-06	4.066722e-06	8.283487e-09	2.875093e+01	5.450500e+02
2.070000e-06	4.088408e-06	8.310170e-09	2.890425e+01	5.467892e+02
2.080000e-06	4.109318e-06	8.334198e-09	2.905208e+01	5.484172e+02
2.090000e-06	4.129362e-06	8.356504e-09	2.919379e+01	5.499398e+02
2.100000e-06	4.148570e-06	8.377956e-09	2.932959e+01	5.513769e+02
2.110000e-06	4.167043e-06	8.396511e-09	2.946019e+01	5.527550e+02
2.120000e-06	4.184891e-06	8.412003e-09	2.958637e+01	5.540959e+02
2.130000e-06	4.202078e-06	8.428306e-09	2.970788e+01	5.554086e+02
2.140000e-06	4.218458e-06	8.447810e-09	2.982368e+01	5.566852e+02
2.150000e-06	4.234072e-06	8.468031e-09	2.993407e+01	5.579045e+02
2.160000e-06	4.249011e-06	8.484548e-09	3.003969e+01	5.590412e+02
2.170000e-06	4.263283e-06	8.498974e-09	3.014058e+01	5.600758e+02
2.180000e-06	4.276788e-06	8.513441e-09	3.023606e+01	5.610039e+02
2.190000e-06	4.289499e-06	8.526087e-09	3.032593e+01	5.618375e+02
2.200000e-06	4.301499e-06	8.536067e-09	3.041077e+01	5.626014e+02
2.210000e-06	4.312825e-06	8.546539e-09	3.049084e+01	5.633241e+02
2.220000e-06	4.323373e-06	8.558163e-09	3.056541e+01	5.640267e+02
2.230000e-06	4.333070e-06	8.569594e-09	3.063396e+01	5.647167e+02
2.240000e-06	4.341993e-06	8.579128e-09	3.069705e+01	5.653852e+02
2.250000e-06	4.350231e-06	8.587511e-09	3.075529e+01	5.660122e+02
2.260000e-06	4.357761e-06	8.596225e-09	3.080853e+01	5.665748e+02
2.270000e-06	4.364482e-06	8.605250e-09	3.085604e+01	5.670562e+02
2.280000e-06	4.370400e-06	8.613159e-09	3.089788e+01	5.674520e+02
2.290000e-06	4.375502e-06	8.618367e-09	3.093395e+01	5.677704e+02
2.300000e-06	4.379710e-06	8.622259e-09	3.096370e+01	5.680280e+02
2.310000e-06	4.383052e-06	8.625462e-09	3.098732e+01	5.682424e+02
2.320000e-06	4.385596e-06	8.626497e-09	3.100531e+01	5.684247e+02
2.330000e-06	4.387428e-06	8.627122e-09	3.101827e+01	5.685763e+02
2.340000e-06	4.388493e-06	8.630159e-09	3.102580e+01	5.686897e+02
2.350000e-06	4.388720e-06	8.636563e-09	3.102740e+01	5.687536e+02
2.360000e-06	4.388208e-06	8.642070e-09	3.102378e+01	5.687591e+02
2.370000e-06	4.387021e-06	8.640389e-09	3.101539e+01	5.687051e+02
2.380000e-06	4.385126e-06	8.634330e-09	3.100199e+01	5.685984e+02
2.390000e-06	4.382434e-06	8.629903e-09	3.098296e+01	5.684514e+02
2.400000e-06	4.378976e-06	8.626694e-09	3.095851e+01	5.682751e+02
2.410000e-06	4.374818e-06	8.621974e-09	3.092912e+01	5.680741e+02
2.420000e-06	4.369902e-06	8.625500e-09	3.089436e+01	5.678436e+02
2.430000e-06	4.364160e-06	8.625931e-09	3.085377e+01	5.675718e+02
2.440000e-06	4.357563e-06	8.585538e-09	3.080712e+01	5.672462e+02
2.450000e-06	4.349858e-06	8.568892e-09	3.075265e+01	5.668613e+02
2.460000e-06	4.340958e-06	8.650544e-09	3.068973e+01	5.664245e+02
2.470000e-06	4.331535e-06	8.640726e-09	3.062311e+01	5.659569e+02
2.480000e-06	4.322065e-06	8.552525e-09	3.055616e+01	5.654883e+02
2.490000e-06	4.311855e-06	8.533246e-09	3.048398e+01	5.650473e+02
2.500000e-06	4.300372e-06	8.624348e-09	3.040280e+01	5.646503e+02
2.510000e-06	4.288498e-06	8.575863e-09	3.031885e+01	5.642937e+02
2.520000e-06	4.276372e-06	8.497691e-09	3.023312e+01	5.639528e+02
2.530000e-06	4.263025e-06	8.609664e-09	3.013876e+01	5.635870e+02
2.540000e-06	4.248767e-06	8.598587e-09	3.003796e+01	5.631522e+02
2.550000e-06	4.234194e-06	8.497615e-09	2.993493e+01	5.626130e+02
2.560000e-06	4.218760e-06	8.578226e-09	2.982582e+01	5.619530e+02
2.570000e-06	4.202325e-06	8.622070e-09	2.970962e+01	5.611771e+02
2.580000e-06	4.185328e-06	8.451474e-09	2.958946e+01	5.603072e+02
2.590000e-06	4.167546e-06	8.495138e-09	2.946374e+01	5.593715e+02
2.600000e-06	4.148987e-06	8.574336e-09	2.933253e+01	5.583917e+02
2.610000e-06	4.129941e-06	8.461058e-09	2.919788e+01	5.573747e+02
2.620000e-06	4.109976e-06	8.464474e-09	2.905673e+01	5.563097e+02
2.630000e-06	4.088999e-06	8.472154e-09	2.890843e+01	5.551728e+02
2.640000e-06	4.067415e-06	8.412708e-09	2.875583e+01	5.539379e+02
2.650000e-06	4.045016e-06	8.434574e-09	2.859748e+01	5.525877e+02
2.660000e-06	4.021724e-06	8.390751e-09	2.843281e+01	5.511218e+02
2.670000e-06	3.997784e-06	8.315371e-09	2.826355e+01	5.495582e+02
2.680000e-06	3.973060e-06	8.375334e-09	2.808876e+01	5.479274e+02
2.690000e-06	3.947571e-06	8.366052e-09	2.790856e+01	5.462621e+02
2.700000e-06	3.921391e-06	8.245132e-09	2.772348e+01	5.445858e+02
2.710000e-06	3.894448e-06	8.280751e-09	2.753299e+01	5.429052e+02
2.720000e-06	3.866929e-06	8.257063e-09	2.733844e+01	5.412091e+02
2.730000e-06	3.838706e-06	8.177958e-09	2.713891e+01	5.394740e+02
2.740000e-06	3.809586e-06	8.220699e-09	2.693303e+01	5.376743e+02
2.750000e-06	3.779842e-06	8.151831e-09	2.672275e+01	5.357925e+02
2.760000e-06	3.749424e-06	8.113847e-09	2.650770e+01	5.338256e+02
2.770000e-06	3.718123e-06	8.123880e-09	2.628641e+01	5.317851e+02
2.780000e-06	3.686106e-06	8.063986e-09	2.606006e+01	5.296921e+02
2.790000e-06	3.653471e-06	8.037016e-09	2.582933e+01	5.275673e+02
2.800000e-06	3.620255e-06	7.996735e-09	2.559450e+01	5.254226e+02
2.810000e-06	3.586507e-06	7.969082e-09	2.535591e+01	5.232562e+02
2.820000e-06	3.552057e-06	7.943896e-09	2.511235e+01	5.210536e+02
2.830000e-06	3.516920e-06	7.897752e-09	2.486394e+01	5.187936e+02
2.840000e-06	3.481229e-06	7.863743e-09	2.461162e+01	5.164575e+02
2.850000e-06	3.444971e-06	7.819142e-09	2.435528e+01	5.140358e+02
2.860000e-06	3.408185e-06	7.802956e-09	2.409521e+01	5.115324e+02
2.870000e-06	3.370785e-06	7.764005e-09	2.383079e+01	5.089615e+02
2.880000e-06	3.332717e-06	7.706549e-09	2.356166e+01	5.063410e+02
2.890000e-06	3.294076e-06	7.672152e-09	2.328848e+01	5.036843e+02
2.900000e-06	3.254907e-06	7.629209e-09	2.301156e+01	5.009936e+02
2.910000e-06	3.215246e-06	7.594744e-09	2.273116e+01	4.982585e+02
2.920000e-06	3.175051e-06	7.549206e-09	2.244699e+01	4.954592e+02
2.930000e-06	3.134214e-06	7.499145e-09	2.215828e+01	4.925746e+02
2.940000e-06	3.092748e-06	7.462227e-09	2.186513e+01	4.895901e+02
