# Temperatura_=_20.0
# Concentracion g/m^3_=_10000.0
# C_Vs_to_Am_M_A/Vsm_=_65563218390.804596
# pendiente_HvsI_1/m_=_3716.3
# ordenada_HvsI_A/m_=_1297.0
# frecuencia_Hz_=_301421.9009066713

Tiempo_(s)	Campo_(V.s)	Magnetizacion_(V.s)	Campo_(kA/m)	Magnetizacion_(A/m)
0.000000e+00	-2.410853e-06	-5.211578e-09	-1.613206e+01	-3.419463e+02
1.000000e-08	-2.410446e-06	-5.217808e-09	-1.612934e+01	-3.423594e+02
2.000000e-08	-2.409384e-06	-5.223862e-09	-1.612223e+01	-3.426318e+02
3.000000e-08	-2.407419e-06	-5.226297e-09	-1.610908e+01	-3.427570e+02
4.000000e-08	-2.404340e-06	-5.225132e-09	-1.608848e+01	-3.427659e+02
5.000000e-08	-2.400328e-06	-5.221360e-09	-1.606163e+01	-3.427113e+02
6.000000e-08	-2.395674e-06	-5.217601e-09	-1.603049e+01	-3.426307e+02
7.000000e-08	-2.390302e-06	-5.212659e-09	-1.599455e+01	-3.425145e+02
8.000000e-08	-2.383996e-06	-5.246939e-09	-1.595235e+01	-3.423042e+02
9.000000e-08	-2.376648e-06	-5.262948e-09	-1.590318e+01	-3.419263e+02
1.000000e-07	-2.368484e-06	-5.173610e-09	-1.584855e+01	-3.413444e+02
1.100000e-07	-2.359905e-06	-5.117134e-09	-1.579115e+01	-3.405925e+02
1.200000e-07	-2.350711e-06	-5.182265e-09	-1.572962e+01	-3.397667e+02
1.300000e-07	-2.340251e-06	-5.270734e-09	-1.565964e+01	-3.389752e+02
1.400000e-07	-2.328502e-06	-5.125130e-09	-1.558102e+01	-3.382767e+02
1.500000e-07	-2.316000e-06	-5.108570e-09	-1.549736e+01	-3.376453e+02
1.600000e-07	-2.302711e-06	-5.183059e-09	-1.540843e+01	-3.369842e+02
1.700000e-07	-2.288379e-06	-5.155909e-09	-1.531254e+01	-3.361796e+02
1.800000e-07	-2.273273e-06	-5.066546e-09	-1.521145e+01	-3.351605e+02
1.900000e-07	-2.257317e-06	-5.116957e-09	-1.510469e+01	-3.339274e+02
2.000000e-07	-2.240099e-06	-5.145444e-09	-1.498947e+01	-3.325378e+02
2.100000e-07	-2.221863e-06	-4.947636e-09	-1.486745e+01	-3.310599e+02
2.200000e-07	-2.203167e-06	-5.035745e-09	-1.474234e+01	-3.295306e+02
2.300000e-07	-2.183863e-06	-5.108153e-09	-1.461317e+01	-3.279418e+02
2.400000e-07	-2.163708e-06	-4.954561e-09	-1.447831e+01	-3.262622e+02
2.500000e-07	-2.142896e-06	-4.870515e-09	-1.433904e+01	-3.244710e+02
2.600000e-07	-2.121476e-06	-4.963340e-09	-1.419572e+01	-3.225792e+02
2.700000e-07	-2.099362e-06	-4.911522e-09	-1.404774e+01	-3.206206e+02
2.800000e-07	-2.076434e-06	-4.843730e-09	-1.389432e+01	-3.186235e+02
2.900000e-07	-2.052690e-06	-4.830322e-09	-1.373544e+01	-3.165834e+02
3.000000e-07	-2.028333e-06	-4.788161e-09	-1.357245e+01	-3.144616e+02
3.100000e-07	-2.003516e-06	-4.757659e-09	-1.340640e+01	-3.122097e+02
3.200000e-07	-1.977991e-06	-4.771937e-09	-1.323559e+01	-3.098045e+02
3.300000e-07	-1.951336e-06	-4.689935e-09	-1.305723e+01	-3.072687e+02
3.400000e-07	-1.923626e-06	-4.598454e-09	-1.287181e+01	-3.046621e+02
3.500000e-07	-1.895299e-06	-4.617443e-09	-1.268227e+01	-3.020485e+02
3.600000e-07	-1.866556e-06	-4.564450e-09	-1.248994e+01	-2.994604e+02
3.700000e-07	-1.837237e-06	-4.549652e-09	-1.229375e+01	-2.968817e+02
3.800000e-07	-1.807197e-06	-4.495150e-09	-1.209274e+01	-2.942584e+02
3.900000e-07	-1.776496e-06	-4.425089e-09	-1.188730e+01	-2.915283e+02
4.000000e-07	-1.745235e-06	-4.388073e-09	-1.167813e+01	-2.886514e+02
4.100000e-07	-1.713450e-06	-4.400645e-09	-1.146544e+01	-2.856239e+02
4.200000e-07	-1.681165e-06	-4.307971e-09	-1.124940e+01	-2.824731e+02
4.300000e-07	-1.648466e-06	-4.211844e-09	-1.103060e+01	-2.792391e+02
4.400000e-07	-1.615218e-06	-4.206439e-09	-1.080812e+01	-2.759562e+02
4.500000e-07	-1.581121e-06	-4.164460e-09	-1.057996e+01	-2.726412e+02
4.600000e-07	-1.546070e-06	-4.127322e-09	-1.034542e+01	-2.692906e+02
4.700000e-07	-1.510241e-06	-4.051679e-09	-1.010567e+01	-2.658839e+02
4.800000e-07	-1.473967e-06	-3.991040e-09	-9.862949e+00	-2.623896e+02
4.900000e-07	-1.437424e-06	-3.937978e-09	-9.618428e+00	-2.587758e+02
5.000000e-07	-1.400471e-06	-3.912129e-09	-9.371160e+00	-2.550238e+02
5.100000e-07	-1.362910e-06	-3.836942e-09	-9.119822e+00	-2.511410e+02
5.200000e-07	-1.324842e-06	-3.753377e-09	-8.865094e+00	-2.471663e+02
5.300000e-07	-1.286366e-06	-3.701869e-09	-8.607630e+00	-2.431592e+02
5.400000e-07	-1.247433e-06	-3.657715e-09	-8.347114e+00	-2.391737e+02
5.500000e-07	-1.208029e-06	-3.614322e-09	-8.083447e+00	-2.352289e+02
5.600000e-07	-1.168177e-06	-3.526601e-09	-7.816780e+00	-2.312925e+02
5.700000e-07	-1.128015e-06	-3.453192e-09	-7.548034e+00	-2.272901e+02
5.800000e-07	-1.087674e-06	-3.393093e-09	-7.278096e+00	-2.231397e+02
5.900000e-07	-1.047150e-06	-3.352800e-09	-7.006937e+00	-2.187935e+02
6.000000e-07	-1.006274e-06	-3.274331e-09	-6.733413e+00	-2.142646e+02
6.100000e-07	-9.648985e-07	-3.186004e-09	-6.456554e+00	-2.096213e+02
6.200000e-07	-9.229855e-07	-3.115898e-09	-6.176096e+00	-2.049521e+02
6.300000e-07	-8.805587e-07	-3.060125e-09	-5.892200e+00	-2.003181e+02
6.400000e-07	-8.375635e-07	-3.004205e-09	-5.604500e+00	-1.957219e+02
6.500000e-07	-7.939919e-07	-2.916459e-09	-5.312943e+00	-1.911084e+02
6.600000e-07	-7.501026e-07	-2.833936e-09	-5.019261e+00	-1.863958e+02
6.700000e-07	-7.060250e-07	-2.761222e-09	-4.724319e+00	-1.815199e+02
6.800000e-07	-6.617590e-07	-2.706024e-09	-4.428116e+00	-1.764653e+02
6.900000e-07	-6.173833e-07	-2.623486e-09	-4.131179e+00	-1.712685e+02
7.000000e-07	-5.729221e-07	-2.527242e-09	-3.833670e+00	-1.659937e+02
7.100000e-07	-5.283388e-07	-2.441322e-09	-3.535343e+00	-1.606978e+02
7.200000e-07	-4.836081e-07	-2.372403e-09	-3.236031e+00	-1.554039e+02
7.300000e-07	-4.386777e-07	-2.304138e-09	-2.935383e+00	-1.500972e+02
7.400000e-07	-3.935318e-07	-2.211625e-09	-2.633291e+00	-1.447395e+02
7.500000e-07	-3.483237e-07	-2.120006e-09	-2.330785e+00	-1.392928e+02
7.600000e-07	-3.030721e-07	-2.035340e-09	-2.027986e+00	-1.337347e+02
7.700000e-07	-2.576531e-07	-1.963987e-09	-1.724069e+00	-1.280610e+02
7.800000e-07	-2.120598e-07	-1.875278e-09	-1.418984e+00	-1.222770e+02
7.900000e-07	-1.663469e-07	-1.776866e-09	-1.113099e+00	-1.163883e+02
8.000000e-07	-1.206189e-07	-1.680867e-09	-8.071134e-01	-1.103969e+02
8.100000e-07	-7.491350e-08	-1.594387e-09	-5.012786e-01	-1.043071e+02
8.200000e-07	-2.914807e-08	-1.510296e-09	-1.950423e-01	-9.813116e+01
8.300000e-07	1.667544e-08	-1.409908e-09	1.115826e-01	-9.189010e+01
8.400000e-07	6.243612e-08	-1.306695e-09	4.177871e-01	-8.560411e+01
8.500000e-07	1.081311e-07	-1.207236e-09	7.235523e-01	-7.927863e+01
8.600000e-07	1.538623e-07	-1.120152e-09	1.029559e+00	-7.289558e+01
8.700000e-07	1.995658e-07	-1.023114e-09	1.335381e+00	-6.641800e+01
8.800000e-07	2.451768e-07	-9.141317e-10	1.640584e+00	-5.980786e+01
8.900000e-07	2.906841e-07	-8.032090e-10	1.945093e+00	-5.304747e+01
9.000000e-07	3.359764e-07	-7.026152e-10	2.248163e+00	-4.615141e+01
9.100000e-07	3.811017e-07	-6.062688e-10	2.550116e+00	-3.916021e+01
9.200000e-07	4.261271e-07	-4.964458e-10	2.851401e+00	-3.211876e+01
9.300000e-07	4.709943e-07	-3.814422e-10	3.151627e+00	-2.505184e+01
9.400000e-07	5.156608e-07	-2.719126e-10	3.450510e+00	-1.795189e+01
9.500000e-07	5.601726e-07	-1.739809e-10	3.748358e+00	-1.078682e+01
9.600000e-07	6.046023e-07	-6.661492e-11	4.045656e+00	-3.522576e+00
9.700000e-07	6.489816e-07	5.215926e-11	4.342617e+00	3.853845e+00
9.800000e-07	6.932874e-07	1.742562e-10	4.639086e+00	1.132588e+01
9.900000e-07	7.374214e-07	2.870793e-10	4.934406e+00	1.885808e+01
1.000000e-06	7.813524e-07	3.949253e-10	5.228367e+00	2.641798e+01
1.010000e-06	8.250157e-07	5.113095e-10	5.520537e+00	3.399371e+01
1.020000e-06	8.682335e-07	6.326731e-10	5.809726e+00	4.159518e+01
1.030000e-06	9.108582e-07	7.528574e-10	6.094947e+00	4.923882e+01
1.040000e-06	9.528468e-07	8.604969e-10	6.375911e+00	5.692757e+01
1.050000e-06	9.942105e-07	9.719700e-10	6.652693e+00	6.464168e+01
1.060000e-06	1.035082e-06	1.094833e-09	6.926184e+00	7.234801e+01
1.070000e-06	1.075668e-06	1.221734e-09	7.197758e+00	8.002202e+01
1.080000e-06	1.116054e-06	1.339986e-09	7.467999e+00	8.766652e+01
1.090000e-06	1.156229e-06	1.449915e-09	7.736827e+00	9.531243e+01
1.100000e-06	1.196102e-06	1.565390e-09	8.003634e+00	1.029985e+02
1.110000e-06	1.235566e-06	1.689226e-09	8.267706e+00	1.107415e+02
1.120000e-06	1.274562e-06	1.812997e-09	8.528647e+00	1.185168e+02
1.130000e-06	1.313066e-06	1.926952e-09	8.786290e+00	1.262621e+02
1.140000e-06	1.351068e-06	2.039233e-09	9.040583e+00	1.339044e+02
1.150000e-06	1.388614e-06	2.155316e-09	9.291817e+00	1.413949e+02
1.160000e-06	1.425702e-06	2.273682e-09	9.539989e+00	1.487317e+02
1.170000e-06	1.462370e-06	2.386357e-09	9.785351e+00	1.559570e+02
1.180000e-06	1.498729e-06	2.492182e-09	1.002864e+01	1.631314e+02
1.190000e-06	1.534747e-06	2.600712e-09	1.026966e+01	1.702996e+02
1.200000e-06	1.570147e-06	2.715118e-09	1.050653e+01	1.774661e+02
1.210000e-06	1.604684e-06	2.827678e-09	1.073764e+01	1.845916e+02
1.220000e-06	1.638349e-06	2.929670e-09	1.096290e+01	1.916098e+02
1.230000e-06	1.671265e-06	3.027849e-09	1.118316e+01	1.984542e+02
1.240000e-06	1.703694e-06	3.129199e-09	1.140016e+01	2.050827e+02
1.250000e-06	1.735729e-06	3.233690e-09	1.161451e+01	2.114902e+02
1.260000e-06	1.767165e-06	3.331588e-09	1.182487e+01	2.177067e+02
1.270000e-06	1.797940e-06	3.421745e-09	1.203079e+01	2.237820e+02
1.280000e-06	1.828129e-06	3.512496e-09	1.223280e+01	2.297633e+02
1.290000e-06	1.857668e-06	3.606420e-09	1.243046e+01	2.356731e+02
1.300000e-06	1.886581e-06	3.698803e-09	1.262393e+01	2.414946e+02
1.310000e-06	1.915059e-06	3.781536e-09	1.281449e+01	2.471743e+02
1.320000e-06	1.943094e-06	3.860319e-09	1.300208e+01	2.526420e+02
1.330000e-06	1.970327e-06	3.939163e-09	1.318431e+01	2.578418e+02
1.340000e-06	1.996477e-06	4.018668e-09	1.335929e+01	2.627608e+02
1.350000e-06	2.021665e-06	4.093572e-09	1.352783e+01	2.674392e+02
1.360000e-06	2.046141e-06	4.160997e-09	1.369161e+01	2.719524e+02
1.370000e-06	2.069957e-06	4.225302e-09	1.385098e+01	2.763748e+02
1.380000e-06	2.093069e-06	4.291699e-09	1.400563e+01	2.807415e+02
1.390000e-06	2.115490e-06	4.358894e-09	1.415566e+01	2.850314e+02
1.400000e-06	2.137181e-06	4.419877e-09	1.430081e+01	2.891807e+02
1.410000e-06	2.158182e-06	4.475502e-09	1.444133e+01	2.931193e+02
1.420000e-06	2.178640e-06	4.530310e-09	1.457822e+01	2.968096e+02
1.430000e-06	2.198496e-06	4.587568e-09	1.471109e+01	3.002636e+02
1.440000e-06	2.217500e-06	4.641755e-09	1.483825e+01	3.035316e+02
1.450000e-06	2.235575e-06	4.687159e-09	1.495920e+01	3.066711e+02
1.460000e-06	2.252926e-06	4.727009e-09	1.507530e+01	3.097156e+02
1.470000e-06	2.269536e-06	4.769366e-09	1.518645e+01	3.126629e+02
1.480000e-06	2.285223e-06	4.815560e-09	1.529142e+01	3.154855e+02
1.490000e-06	2.299954e-06	4.858162e-09	1.538999e+01	3.181525e+02
1.500000e-06	2.313816e-06	4.893655e-09	1.548274e+01	3.206473e+02
1.510000e-06	2.326876e-06	4.927173e-09	1.557013e+01	3.229713e+02
1.520000e-06	2.339103e-06	4.963051e-09	1.565195e+01	3.251351e+02
1.530000e-06	2.350321e-06	4.996900e-09	1.572701e+01	3.271487e+02
1.540000e-06	2.360330e-06	5.023899e-09	1.579399e+01	3.290187e+02
1.550000e-06	2.369313e-06	5.044763e-09	1.585410e+01	3.307537e+02
1.560000e-06	2.377565e-06	5.067456e-09	1.590932e+01	3.323685e+02
1.570000e-06	2.385097e-06	5.093809e-09	1.595972e+01	3.338816e+02
1.580000e-06	2.391813e-06	5.117479e-09	1.600466e+01	3.353040e+02
1.590000e-06	2.397675e-06	5.135236e-09	1.604388e+01	3.366295e+02
1.600000e-06	2.402756e-06	5.151371e-09	1.607788e+01	3.378359e+02
1.610000e-06	2.407178e-06	5.169538e-09	1.610747e+01	3.388993e+02
1.620000e-06	2.410835e-06	5.186919e-09	1.613194e+01	3.398125e+02
1.630000e-06	2.413375e-06	5.197830e-09	1.614894e+01	3.405928e+02
1.640000e-06	2.414757e-06	5.204925e-09	1.615818e+01	3.412710e+02
1.650000e-06	2.415357e-06	5.214087e-09	1.616220e+01	3.418691e+02
1.660000e-06	2.415236e-06	5.225391e-09	1.616139e+01	3.423826e+02
1.670000e-06	2.414310e-06	5.231386e-09	1.615519e+01	3.427826e+02
1.680000e-06	2.412646e-06	5.233595e-09	1.614406e+01	3.430395e+02
1.690000e-06	2.410222e-06	5.233802e-09	1.612784e+01	3.431508e+02
1.700000e-06	2.407095e-06	5.234508e-09	1.610692e+01	3.431510e+02
1.710000e-06	2.403403e-06	5.238461e-09	1.608221e+01	3.430931e+02
1.720000e-06	2.399030e-06	5.248660e-09	1.605295e+01	3.430108e+02
1.730000e-06	2.393631e-06	5.234104e-09	1.601682e+01	3.428887e+02
1.740000e-06	2.387022e-06	5.173953e-09	1.597260e+01	3.426643e+02
1.750000e-06	2.379110e-06	5.185370e-09	1.591966e+01	3.422660e+02
1.760000e-06	2.370074e-06	5.299147e-09	1.585919e+01	3.416635e+02
1.770000e-06	2.360592e-06	5.227728e-09	1.579575e+01	3.408990e+02
1.780000e-06	2.351018e-06	5.135151e-09	1.573168e+01	3.400728e+02
1.790000e-06	2.340685e-06	5.151262e-09	1.566254e+01	3.392905e+02
1.800000e-06	2.328836e-06	5.213599e-09	1.558325e+01	3.386026e+02
1.810000e-06	2.316159e-06	5.139060e-09	1.549842e+01	3.379742e+02
1.820000e-06	2.303127e-06	5.063899e-09	1.541122e+01	3.373035e+02
1.830000e-06	2.288854e-06	5.202480e-09	1.531571e+01	3.364789e+02
1.840000e-06	2.273206e-06	5.120299e-09	1.521101e+01	3.354361e+02
1.850000e-06	2.257014e-06	5.005546e-09	1.510266e+01	3.341836e+02
1.860000e-06	2.240269e-06	5.113234e-09	1.499061e+01	3.327822e+02
1.870000e-06	2.222365e-06	5.133936e-09	1.487081e+01	3.312986e+02
1.880000e-06	2.203566e-06	4.926572e-09	1.474502e+01	3.297646e+02
1.890000e-06	2.184314e-06	4.936369e-09	1.461619e+01	3.281684e+02
1.900000e-06	2.164507e-06	5.089374e-09	1.448365e+01	3.264779e+02
1.910000e-06	2.143828e-06	4.962931e-09	1.434528e+01	3.246755e+02
1.920000e-06	2.122102e-06	4.834835e-09	1.419991e+01	3.227754e+02
1.930000e-06	2.099397e-06	4.926466e-09	1.404797e+01	3.208125e+02
1.940000e-06	2.075985e-06	4.877289e-09	1.389132e+01	3.188123e+02
1.950000e-06	2.052012e-06	4.810730e-09	1.373090e+01	3.167665e+02
1.960000e-06	2.027329e-06	4.833748e-09	1.356574e+01	3.146335e+02
1.970000e-06	2.001980e-06	4.722910e-09	1.339612e+01	3.123662e+02
1.980000e-06	1.975930e-06	4.693559e-09	1.322180e+01	3.099458e+02
1.990000e-06	1.949102e-06	4.734059e-09	1.304229e+01	3.073999e+02
2.000000e-06	1.921771e-06	4.654766e-09	1.285940e+01	3.047904e+02
2.010000e-06	1.893936e-06	4.584025e-09	1.267315e+01	3.021795e+02
2.020000e-06	1.865132e-06	4.589603e-09	1.248041e+01	2.995947e+02
2.030000e-06	1.835264e-06	4.500488e-09	1.228054e+01	2.970149e+02
2.040000e-06	1.804644e-06	4.490841e-09	1.207566e+01	2.943836e+02
2.050000e-06	1.773482e-06	4.497921e-09	1.186714e+01	2.916398e+02
2.060000e-06	1.741814e-06	4.351319e-09	1.165523e+01	2.887469e+02
2.070000e-06	1.709565e-06	4.330685e-09	1.143944e+01	2.857051e+02
2.080000e-06	1.676733e-06	4.356949e-09	1.121974e+01	2.825442e+02
2.090000e-06	1.643370e-06	4.277826e-09	1.099650e+01	2.793042e+02
2.100000e-06	1.609411e-06	4.203833e-09	1.076927e+01	2.760181e+02
2.110000e-06	1.574830e-06	4.150203e-09	1.053787e+01	2.727004e+02
2.120000e-06	1.539797e-06	4.091274e-09	1.030345e+01	2.693457e+02
2.130000e-06	1.504416e-06	4.070217e-09	1.006670e+01	2.659319e+02
2.140000e-06	1.468680e-06	4.016252e-09	9.827573e+00	2.624269e+02
2.150000e-06	1.432434e-06	3.922371e-09	9.585033e+00	2.587995e+02
2.160000e-06	1.395361e-06	3.885129e-09	9.336962e+00	2.550332e+02
2.170000e-06	1.357400e-06	3.836561e-09	9.082950e+00	2.511389e+02
2.180000e-06	1.318738e-06	3.783070e-09	8.824247e+00	2.471584e+02
2.190000e-06	1.279598e-06	3.704870e-09	8.562344e+00	2.431521e+02
2.200000e-06	1.240197e-06	3.623300e-09	8.298692e+00	2.391715e+02
2.210000e-06	1.200522e-06	3.575378e-09	8.033214e+00	2.352308e+02
2.220000e-06	1.160449e-06	3.537443e-09	7.765065e+00	2.312920e+02
2.230000e-06	1.120023e-06	3.478549e-09	7.494562e+00	2.272781e+02
2.240000e-06	1.079231e-06	3.392220e-09	7.221600e+00	2.231087e+02
2.250000e-06	1.038037e-06	3.324417e-09	6.945956e+00	2.187419e+02
2.260000e-06	9.965163e-07	3.271276e-09	6.668122e+00	2.141973e+02
2.270000e-06	9.546199e-07	3.212709e-09	6.387775e+00	2.095479e+02
2.280000e-06	9.123151e-07	3.122898e-09	6.104695e+00	2.048810e+02
2.290000e-06	8.696607e-07	3.040134e-09	5.819276e+00	2.002527e+02
2.300000e-06	8.267098e-07	2.971844e-09	5.531873e+00	1.956589e+02
2.310000e-06	7.835374e-07	2.919265e-09	5.242988e+00	1.910393e+02
2.320000e-06	7.402038e-07	2.852795e-09	4.953024e+00	1.863123e+02
2.330000e-06	6.967760e-07	2.755453e-09	4.662430e+00	1.814176e+02
2.340000e-06	6.532626e-07	2.675090e-09	4.371263e+00	1.763460e+02
2.350000e-06	6.096067e-07	2.607380e-09	4.079142e+00	1.711382e+02
2.360000e-06	5.656916e-07	2.540637e-09	3.785287e+00	1.658596e+02
2.370000e-06	5.215414e-07	2.452033e-09	3.489859e+00	1.605641e+02
2.380000e-06	4.773026e-07	2.355545e-09	3.193838e+00	1.552709e+02
2.390000e-06	4.328939e-07	2.274486e-09	2.896680e+00	1.499614e+02
2.400000e-06	3.882390e-07	2.207823e-09	2.597875e+00	1.445965e+02
2.410000e-06	3.433443e-07	2.128886e-09	2.297465e+00	1.391392e+02
2.420000e-06	2.982770e-07	2.030813e-09	1.995900e+00	1.335693e+02
2.430000e-06	2.531156e-07	1.936700e-09	1.693706e+00	1.278841e+02
2.440000e-06	2.078322e-07	1.853508e-09	1.390695e+00	1.220895e+02
2.450000e-06	1.624458e-07	1.777114e-09	1.086995e+00	1.161903e+02
2.460000e-06	1.169943e-07	1.680560e-09	7.828594e-01	1.101888e+02
2.470000e-06	7.151901e-08	1.576164e-09	4.785647e-01	1.040896e+02
2.480000e-06	2.606384e-08	1.479486e-09	1.744044e-01	9.790626e+01
2.490000e-06	-1.937096e-08	1.394785e-09	-1.296195e-01	9.166023e+01
2.500000e-06	-6.483235e-08	1.304943e-09	-4.338213e-01	8.537080e+01
2.510000e-06	-1.102944e-07	1.197995e-09	-7.380276e-01	7.904111e+01
2.520000e-06	-1.556137e-07	1.094093e-09	-1.041279e+00	7.265057e+01
2.530000e-06	-2.008153e-07	1.000694e-09	-1.343742e+00	6.616109e+01
2.540000e-06	-2.459854e-07	9.132565e-10	-1.645995e+00	5.953584e+01
2.550000e-06	-2.911127e-07	8.088225e-10	-1.947961e+00	5.276031e+01
2.560000e-06	-3.360800e-07	6.925567e-10	-2.248857e+00	4.585249e+01
2.570000e-06	-3.808666e-07	5.814526e-10	-2.548544e+00	3.885460e+01
2.580000e-06	-4.255076e-07	4.831399e-10	-2.847256e+00	3.181044e+01
2.590000e-06	-4.699151e-07	3.818166e-10	-3.144405e+00	2.474158e+01
2.600000e-06	-5.140778e-07	2.647878e-10	-3.439917e+00	1.763712e+01
2.610000e-06	-5.579903e-07	1.447396e-10	-3.733755e+00	1.046350e+01
2.620000e-06	-6.017101e-07	3.554336e-11	-4.026303e+00	3.188014e+00
2.630000e-06	-6.453043e-07	-6.550194e-11	-4.318010e+00	-4.199259e+00
2.640000e-06	-6.887804e-07	-1.783159e-10	-4.608928e+00	-1.167891e+01
2.650000e-06	-7.321703e-07	-2.999452e-10	-4.899268e+00	-1.921470e+01
2.660000e-06	-7.754729e-07	-4.189648e-10	-5.189025e+00	-2.677575e+01
2.670000e-06	-8.186193e-07	-5.274185e-10	-5.477736e+00	-3.435281e+01
2.680000e-06	-8.615204e-07	-6.372830e-10	-5.764806e+00	-4.195742e+01
2.690000e-06	-9.041069e-07	-7.601456e-10	-6.049771e+00	-4.960547e+01
2.700000e-06	-9.462755e-07	-8.875978e-10	-6.331939e+00	-5.729759e+01
2.710000e-06	-9.880249e-07	-1.005981e-09	-6.611303e+00	-6.501184e+01
2.720000e-06	-1.029509e-06	-1.113652e-09	-6.888891e+00	-7.271484e+01
2.730000e-06	-1.070755e-06	-1.225543e-09	-7.164888e+00	-8.038431e+01
2.740000e-06	-1.111624e-06	-1.344526e-09	-7.438357e+00	-8.802645e+01
2.750000e-06	-1.152033e-06	-1.465611e-09	-7.708752e+00	-9.567427e+01
2.760000e-06	-1.192020e-06	-1.579425e-09	-7.976319e+00	-1.033656e+02
2.770000e-06	-1.231640e-06	-1.691564e-09	-8.241437e+00	-1.111134e+02
2.780000e-06	-1.271019e-06	-1.810876e-09	-8.504940e+00	-1.188883e+02
2.790000e-06	-1.310183e-06	-1.934564e-09	-8.767002e+00	-1.266252e+02
2.800000e-06	-1.348915e-06	-2.052286e-09	-9.026177e+00	-1.342522e+02
2.810000e-06	-1.386901e-06	-2.159876e-09	-9.280355e+00	-1.417247e+02
2.820000e-06	-1.423956e-06	-2.268269e-09	-9.528309e+00	-1.490463e+02
2.830000e-06	-1.460201e-06	-2.379854e-09	-9.770835e+00	-1.562626e+02
2.840000e-06	-1.495932e-06	-2.491577e-09	-1.000993e+01	-1.634340e+02
2.850000e-06	-1.531321e-06	-2.596545e-09	-1.024673e+01	-1.706020e+02
2.860000e-06	-1.566372e-06	-2.701138e-09	-1.048127e+01	-1.777660e+02
2.870000e-06	-1.600934e-06	-2.810798e-09	-1.071254e+01	-1.848828e+02
2.880000e-06	-1.634924e-06	-2.922524e-09	-1.093999e+01	-1.918846e+02
2.890000e-06	-1.668370e-06	-3.030151e-09	-1.116379e+01	-1.987066e+02
2.900000e-06	-1.701175e-06	-3.127615e-09	-1.138330e+01	-2.053103e+02
2.910000e-06	-1.733319e-06	-3.222018e-09	-1.159839e+01	-2.116948e+02
2.920000e-06	-1.764971e-06	-3.316774e-09	-1.181018e+01	-2.178929e+02
2.930000e-06	-1.796209e-06	-3.409937e-09	-1.201921e+01	-2.239555e+02
2.940000e-06	-1.826795e-06	-3.497430e-09	-1.222388e+01	-2.299280e+02
