# Temperatura_=_20.0
# Concentracion g/m^3_=_10000.0
# C_Vs_to_Am_M_A/Vsm_=_65563218390.804596
# pendiente_HvsI_1/m_=_3716.3
# ordenada_HvsI_A/m_=_1297.0
# frecuencia_Hz_=_81139.74935001292

Tiempo_(s)	Campo_(V.s)	Magnetizacion_(V.s)	Campo_(kA/m)	Magnetizacion_(A/m)
0.000000e+00	-2.075251e-06	-4.528067e-09	-1.614930e+01	-2.970832e+02
1.000000e-08	-2.075266e-06	-4.467687e-09	-1.614942e+01	-2.972540e+02
2.000000e-08	-2.075212e-06	-4.468721e-09	-1.614899e+01	-2.974178e+02
3.000000e-08	-2.075157e-06	-4.539478e-09	-1.614856e+01	-2.975747e+02
4.000000e-08	-2.075075e-06	-4.725511e-09	-1.614793e+01	-2.977250e+02
5.000000e-08	-2.074929e-06	-4.785177e-09	-1.614679e+01	-2.978688e+02
6.000000e-08	-2.074697e-06	-4.526411e-09	-1.614499e+01	-2.980062e+02
7.000000e-08	-2.074411e-06	-4.405998e-09	-1.614276e+01	-2.981375e+02
8.000000e-08	-2.074062e-06	-4.502253e-09	-1.614005e+01	-2.982626e+02
9.000000e-08	-2.073653e-06	-4.616703e-09	-1.613687e+01	-2.983815e+02
1.000000e-07	-2.073185e-06	-4.524951e-09	-1.613322e+01	-2.984943e+02
1.100000e-07	-2.072680e-06	-4.519806e-09	-1.612929e+01	-2.986007e+02
1.200000e-07	-2.072174e-06	-4.694508e-09	-1.612536e+01	-2.987004e+02
1.300000e-07	-2.071604e-06	-4.703794e-09	-1.612092e+01	-2.987932e+02
1.400000e-07	-2.070946e-06	-4.613115e-09	-1.611580e+01	-2.988785e+02
1.500000e-07	-2.070228e-06	-4.431533e-09	-1.611022e+01	-2.989558e+02
1.600000e-07	-2.069487e-06	-4.429938e-09	-1.610445e+01	-2.990246e+02
1.700000e-07	-2.068686e-06	-4.538751e-09	-1.609821e+01	-2.990841e+02
1.800000e-07	-2.067794e-06	-4.635206e-09	-1.609127e+01	-2.991337e+02
1.900000e-07	-2.066872e-06	-4.688872e-09	-1.608409e+01	-2.991726e+02
2.000000e-07	-2.065902e-06	-4.566330e-09	-1.607654e+01	-2.992003e+02
2.100000e-07	-2.064878e-06	-4.550947e-09	-1.606858e+01	-2.992160e+02
2.200000e-07	-2.063789e-06	-4.521683e-09	-1.606011e+01	-2.992194e+02
2.300000e-07	-2.062634e-06	-4.552266e-09	-1.605112e+01	-2.992099e+02
2.400000e-07	-2.061413e-06	-4.561398e-09	-1.604161e+01	-2.991874e+02
2.500000e-07	-2.060128e-06	-4.540801e-09	-1.603161e+01	-2.991518e+02
2.600000e-07	-2.058801e-06	-4.606785e-09	-1.602129e+01	-2.991031e+02
2.700000e-07	-2.057403e-06	-4.588387e-09	-1.601041e+01	-2.990416e+02
2.800000e-07	-2.055963e-06	-4.593096e-09	-1.599920e+01	-2.989677e+02
2.900000e-07	-2.054456e-06	-4.510783e-09	-1.598748e+01	-2.988821e+02
3.000000e-07	-2.052859e-06	-4.482773e-09	-1.597505e+01	-2.987854e+02
3.100000e-07	-2.051211e-06	-4.521432e-09	-1.596222e+01	-2.986787e+02
3.200000e-07	-2.049514e-06	-4.555293e-09	-1.594902e+01	-2.985627e+02
3.300000e-07	-2.047754e-06	-4.607446e-09	-1.593532e+01	-2.984385e+02
3.400000e-07	-2.045915e-06	-4.547561e-09	-1.592102e+01	-2.983071e+02
3.500000e-07	-2.044032e-06	-4.536393e-09	-1.590636e+01	-2.981695e+02
3.600000e-07	-2.042100e-06	-4.511613e-09	-1.589132e+01	-2.980265e+02
3.700000e-07	-2.040122e-06	-4.521116e-09	-1.587593e+01	-2.978790e+02
3.800000e-07	-2.038107e-06	-4.531999e-09	-1.586025e+01	-2.977276e+02
3.900000e-07	-2.036033e-06	-4.503458e-09	-1.584411e+01	-2.975728e+02
4.000000e-07	-2.033912e-06	-4.534802e-09	-1.582761e+01	-2.974148e+02
4.100000e-07	-2.031738e-06	-4.521784e-09	-1.581069e+01	-2.972539e+02
4.200000e-07	-2.029526e-06	-4.543381e-09	-1.579347e+01	-2.970899e+02
4.300000e-07	-2.027275e-06	-4.513606e-09	-1.577596e+01	-2.969225e+02
4.400000e-07	-2.024978e-06	-4.489665e-09	-1.575808e+01	-2.967514e+02
4.500000e-07	-2.022627e-06	-4.499955e-09	-1.573979e+01	-2.965761e+02
4.600000e-07	-2.020220e-06	-4.496174e-09	-1.572106e+01	-2.963959e+02
4.700000e-07	-2.017785e-06	-4.518968e-09	-1.570211e+01	-2.962101e+02
4.800000e-07	-2.015284e-06	-4.474621e-09	-1.568265e+01	-2.960181e+02
4.900000e-07	-2.012719e-06	-4.476793e-09	-1.566269e+01	-2.958193e+02
5.000000e-07	-2.010106e-06	-4.489016e-09	-1.564235e+01	-2.956129e+02
5.100000e-07	-2.007438e-06	-4.508878e-09	-1.562159e+01	-2.953986e+02
5.200000e-07	-2.004705e-06	-4.508456e-09	-1.560032e+01	-2.951760e+02
5.300000e-07	-2.001899e-06	-4.459443e-09	-1.557848e+01	-2.949449e+02
5.400000e-07	-1.999049e-06	-4.466496e-09	-1.555631e+01	-2.947052e+02
5.500000e-07	-1.996147e-06	-4.461504e-09	-1.553372e+01	-2.944571e+02
5.600000e-07	-1.993189e-06	-4.471797e-09	-1.551070e+01	-2.942008e+02
5.700000e-07	-1.990184e-06	-4.445184e-09	-1.548732e+01	-2.939369e+02
5.800000e-07	-1.987146e-06	-4.431500e-09	-1.546368e+01	-2.936658e+02
5.900000e-07	-1.984067e-06	-4.458481e-09	-1.543972e+01	-2.933881e+02
6.000000e-07	-1.980927e-06	-4.453178e-09	-1.541528e+01	-2.931047e+02
6.100000e-07	-1.977743e-06	-4.442950e-09	-1.539051e+01	-2.928163e+02
6.200000e-07	-1.974522e-06	-4.397899e-09	-1.536544e+01	-2.925235e+02
6.300000e-07	-1.971270e-06	-4.407500e-09	-1.534014e+01	-2.922271e+02
6.400000e-07	-1.967970e-06	-4.425293e-09	-1.531445e+01	-2.919275e+02
6.500000e-07	-1.964599e-06	-4.419645e-09	-1.528822e+01	-2.916252e+02
6.600000e-07	-1.961166e-06	-4.408790e-09	-1.526151e+01	-2.913205e+02
6.700000e-07	-1.957675e-06	-4.389822e-09	-1.523434e+01	-2.910136e+02
6.800000e-07	-1.954126e-06	-4.414614e-09	-1.520672e+01	-2.907043e+02
6.900000e-07	-1.950504e-06	-4.405476e-09	-1.517854e+01	-2.903923e+02
7.000000e-07	-1.946831e-06	-4.387890e-09	-1.514995e+01	-2.900773e+02
7.100000e-07	-1.943119e-06	-4.373255e-09	-1.512107e+01	-2.897587e+02
7.200000e-07	-1.939359e-06	-4.381750e-09	-1.509181e+01	-2.894357e+02
7.300000e-07	-1.935556e-06	-4.399558e-09	-1.506222e+01	-2.891074e+02
7.400000e-07	-1.931707e-06	-4.370397e-09	-1.503226e+01	-2.887730e+02
7.500000e-07	-1.927815e-06	-4.352345e-09	-1.500197e+01	-2.884313e+02
7.600000e-07	-1.923876e-06	-4.339004e-09	-1.497132e+01	-2.880814e+02
7.700000e-07	-1.919887e-06	-4.354252e-09	-1.494028e+01	-2.877222e+02
7.800000e-07	-1.915845e-06	-4.353443e-09	-1.490883e+01	-2.873528e+02
7.900000e-07	-1.911761e-06	-4.330957e-09	-1.487704e+01	-2.869723e+02
8.000000e-07	-1.907641e-06	-4.327941e-09	-1.484498e+01	-2.865797e+02
8.100000e-07	-1.903471e-06	-4.324787e-09	-1.481253e+01	-2.861745e+02
8.200000e-07	-1.899245e-06	-4.332820e-09	-1.477965e+01	-2.857560e+02
8.300000e-07	-1.894965e-06	-4.308608e-09	-1.474634e+01	-2.853238e+02
8.400000e-07	-1.890632e-06	-4.290214e-09	-1.471262e+01	-2.848774e+02
8.500000e-07	-1.886233e-06	-4.287525e-09	-1.467839e+01	-2.844168e+02
8.600000e-07	-1.881784e-06	-4.286712e-09	-1.464377e+01	-2.839419e+02
8.700000e-07	-1.877291e-06	-4.282172e-09	-1.460880e+01	-2.834527e+02
8.800000e-07	-1.872737e-06	-4.254941e-09	-1.457336e+01	-2.829493e+02
8.900000e-07	-1.868137e-06	-4.251699e-09	-1.453757e+01	-2.824322e+02
9.000000e-07	-1.863497e-06	-4.251569e-09	-1.450146e+01	-2.819017e+02
9.100000e-07	-1.858819e-06	-4.247928e-09	-1.446505e+01	-2.813582e+02
9.200000e-07	-1.854092e-06	-4.226113e-09	-1.442827e+01	-2.808025e+02
9.300000e-07	-1.849308e-06	-4.204086e-09	-1.439104e+01	-2.802350e+02
9.400000e-07	-1.844487e-06	-4.210091e-09	-1.435353e+01	-2.796567e+02
9.500000e-07	-1.839627e-06	-4.206734e-09	-1.431571e+01	-2.790684e+02
9.600000e-07	-1.834719e-06	-4.199634e-09	-1.427752e+01	-2.784710e+02
9.700000e-07	-1.829748e-06	-4.182645e-09	-1.423883e+01	-2.778656e+02
9.800000e-07	-1.824714e-06	-4.180471e-09	-1.419966e+01	-2.772533e+02
9.900000e-07	-1.819635e-06	-4.181171e-09	-1.416013e+01	-2.766351e+02
1.000000e-06	-1.814486e-06	-4.164153e-09	-1.412006e+01	-2.760126e+02
1.010000e-06	-1.809269e-06	-4.145099e-09	-1.407947e+01	-2.753868e+02
1.020000e-06	-1.803989e-06	-4.125302e-09	-1.403838e+01	-2.747592e+02
1.030000e-06	-1.798648e-06	-4.127571e-09	-1.399681e+01	-2.741312e+02
1.040000e-06	-1.793258e-06	-4.123031e-09	-1.395487e+01	-2.735040e+02
1.050000e-06	-1.787830e-06	-4.107918e-09	-1.391263e+01	-2.728791e+02
1.060000e-06	-1.782363e-06	-4.093299e-09	-1.387009e+01	-2.722576e+02
1.070000e-06	-1.776844e-06	-4.083717e-09	-1.382714e+01	-2.716406e+02
1.080000e-06	-1.771282e-06	-4.079387e-09	-1.378386e+01	-2.710292e+02
1.090000e-06	-1.765675e-06	-4.061087e-09	-1.374023e+01	-2.704242e+02
1.100000e-06	-1.760029e-06	-4.052569e-09	-1.369629e+01	-2.698261e+02
1.110000e-06	-1.754342e-06	-4.049824e-09	-1.365204e+01	-2.692352e+02
1.120000e-06	-1.748608e-06	-4.049822e-09	-1.360741e+01	-2.686516e+02
1.130000e-06	-1.742830e-06	-4.040655e-09	-1.356244e+01	-2.680751e+02
1.140000e-06	-1.736997e-06	-4.020265e-09	-1.351705e+01	-2.675052e+02
1.150000e-06	-1.731117e-06	-4.011513e-09	-1.347130e+01	-2.669410e+02
1.160000e-06	-1.725192e-06	-4.002579e-09	-1.342519e+01	-2.663816e+02
1.170000e-06	-1.719214e-06	-3.995853e-09	-1.337867e+01	-2.658257e+02
1.180000e-06	-1.713187e-06	-3.980963e-09	-1.333177e+01	-2.652716e+02
1.190000e-06	-1.707099e-06	-3.970029e-09	-1.328439e+01	-2.647179e+02
1.200000e-06	-1.700960e-06	-3.970299e-09	-1.323663e+01	-2.641626e+02
1.210000e-06	-1.694798e-06	-3.970181e-09	-1.318867e+01	-2.636041e+02
1.220000e-06	-1.688608e-06	-3.963925e-09	-1.314050e+01	-2.630405e+02
1.230000e-06	-1.682367e-06	-3.943189e-09	-1.309193e+01	-2.624701e+02
1.240000e-06	-1.676083e-06	-3.930463e-09	-1.304303e+01	-2.618914e+02
1.250000e-06	-1.669767e-06	-3.920843e-09	-1.299389e+01	-2.613028e+02
1.260000e-06	-1.663416e-06	-3.910288e-09	-1.294446e+01	-2.607033e+02
1.270000e-06	-1.657024e-06	-3.897445e-09	-1.289472e+01	-2.600921e+02
1.280000e-06	-1.650598e-06	-3.881812e-09	-1.284471e+01	-2.594684e+02
1.290000e-06	-1.644130e-06	-3.877807e-09	-1.279438e+01	-2.588322e+02
1.300000e-06	-1.637614e-06	-3.872948e-09	-1.274367e+01	-2.581833e+02
1.310000e-06	-1.631055e-06	-3.863270e-09	-1.269264e+01	-2.575223e+02
1.320000e-06	-1.624453e-06	-3.847100e-09	-1.264125e+01	-2.568497e+02
1.330000e-06	-1.617801e-06	-3.832781e-09	-1.258949e+01	-2.561665e+02
1.340000e-06	-1.611112e-06	-3.823617e-09	-1.253744e+01	-2.554737e+02
1.350000e-06	-1.604371e-06	-3.809963e-09	-1.248498e+01	-2.547727e+02
1.360000e-06	-1.597570e-06	-3.795653e-09	-1.243206e+01	-2.540647e+02
1.370000e-06	-1.590731e-06	-3.784151e-09	-1.237884e+01	-2.533512e+02
1.380000e-06	-1.583856e-06	-3.779505e-09	-1.232533e+01	-2.526334e+02
1.390000e-06	-1.576947e-06	-3.767611e-09	-1.227157e+01	-2.519127e+02
1.400000e-06	-1.570009e-06	-3.750050e-09	-1.221758e+01	-2.511901e+02
1.410000e-06	-1.563035e-06	-3.736473e-09	-1.216331e+01	-2.504666e+02
1.420000e-06	-1.556031e-06	-3.727488e-09	-1.210880e+01	-2.497429e+02
1.430000e-06	-1.548992e-06	-3.723845e-09	-1.205403e+01	-2.490195e+02
1.440000e-06	-1.541905e-06	-3.712415e-09	-1.199888e+01	-2.482966e+02
1.450000e-06	-1.534767e-06	-3.699177e-09	-1.194333e+01	-2.475743e+02
1.460000e-06	-1.527591e-06	-3.688800e-09	-1.188749e+01	-2.468522e+02
1.470000e-06	-1.520395e-06	-3.677663e-09	-1.183149e+01	-2.461299e+02
1.480000e-06	-1.513164e-06	-3.662157e-09	-1.177522e+01	-2.454068e+02
1.490000e-06	-1.505888e-06	-3.642796e-09	-1.171860e+01	-2.446822e+02
1.500000e-06	-1.498586e-06	-3.635145e-09	-1.166178e+01	-2.439550e+02
1.510000e-06	-1.491245e-06	-3.633821e-09	-1.160465e+01	-2.432245e+02
1.520000e-06	-1.483854e-06	-3.627240e-09	-1.154714e+01	-2.424898e+02
1.530000e-06	-1.476407e-06	-3.611783e-09	-1.148918e+01	-2.417499e+02
1.540000e-06	-1.468904e-06	-3.591635e-09	-1.143079e+01	-2.410042e+02
1.550000e-06	-1.461359e-06	-3.580022e-09	-1.137208e+01	-2.402518e+02
1.560000e-06	-1.453774e-06	-3.569220e-09	-1.131305e+01	-2.394925e+02
1.570000e-06	-1.446141e-06	-3.553121e-09	-1.125366e+01	-2.387257e+02
1.580000e-06	-1.438457e-06	-3.535781e-09	-1.119386e+01	-2.379514e+02
1.590000e-06	-1.430727e-06	-3.522040e-09	-1.113371e+01	-2.371696e+02
1.600000e-06	-1.422968e-06	-3.517230e-09	-1.107333e+01	-2.363805e+02
1.610000e-06	-1.415187e-06	-3.509720e-09	-1.101278e+01	-2.355844e+02
1.620000e-06	-1.407357e-06	-3.496580e-09	-1.095185e+01	-2.347818e+02
1.630000e-06	-1.399495e-06	-3.481165e-09	-1.089066e+01	-2.339732e+02
1.640000e-06	-1.391586e-06	-3.469977e-09	-1.082912e+01	-2.331593e+02
1.650000e-06	-1.383625e-06	-3.456629e-09	-1.076717e+01	-2.323409e+02
1.660000e-06	-1.375621e-06	-3.433849e-09	-1.070488e+01	-2.315185e+02
1.670000e-06	-1.367582e-06	-3.413319e-09	-1.064232e+01	-2.306930e+02
1.680000e-06	-1.359500e-06	-3.398212e-09	-1.057943e+01	-2.298649e+02
1.690000e-06	-1.351373e-06	-3.391269e-09	-1.051619e+01	-2.290348e+02
1.700000e-06	-1.343217e-06	-3.382526e-09	-1.045272e+01	-2.282032e+02
1.710000e-06	-1.335014e-06	-3.370997e-09	-1.038889e+01	-2.273704e+02
1.720000e-06	-1.326774e-06	-3.361334e-09	-1.032476e+01	-2.265369e+02
1.730000e-06	-1.318515e-06	-3.347554e-09	-1.026049e+01	-2.257027e+02
1.740000e-06	-1.310239e-06	-3.332067e-09	-1.019609e+01	-2.248681e+02
1.750000e-06	-1.301925e-06	-3.313387e-09	-1.013139e+01	-2.240329e+02
1.760000e-06	-1.293579e-06	-3.298746e-09	-1.006644e+01	-2.231972e+02
1.770000e-06	-1.285194e-06	-3.287124e-09	-1.000119e+01	-2.223608e+02
1.780000e-06	-1.276768e-06	-3.276770e-09	-9.935622e+00	-2.215236e+02
1.790000e-06	-1.268318e-06	-3.266837e-09	-9.869862e+00	-2.206853e+02
1.800000e-06	-1.259845e-06	-3.254060e-09	-9.803929e+00	-2.198457e+02
1.810000e-06	-1.251352e-06	-3.246431e-09	-9.737839e+00	-2.190047e+02
1.820000e-06	-1.242831e-06	-3.233450e-09	-9.671532e+00	-2.181619e+02
1.830000e-06	-1.234290e-06	-3.214795e-09	-9.605062e+00	-2.173170e+02
1.840000e-06	-1.225716e-06	-3.194881e-09	-9.538343e+00	-2.164699e+02
1.850000e-06	-1.217110e-06	-3.178771e-09	-9.471371e+00	-2.156202e+02
1.860000e-06	-1.208487e-06	-3.169622e-09	-9.404267e+00	-2.147676e+02
1.870000e-06	-1.199830e-06	-3.158580e-09	-9.336905e+00	-2.139119e+02
1.880000e-06	-1.191144e-06	-3.145736e-09	-9.269307e+00	-2.130527e+02
1.890000e-06	-1.182434e-06	-3.133142e-09	-9.201532e+00	-2.121896e+02
1.900000e-06	-1.173694e-06	-3.124044e-09	-9.133513e+00	-2.113222e+02
1.910000e-06	-1.164915e-06	-3.115677e-09	-9.065198e+00	-2.104500e+02
1.920000e-06	-1.156104e-06	-3.101404e-09	-8.996633e+00	-2.095726e+02
1.930000e-06	-1.147268e-06	-3.084957e-09	-8.927874e+00	-2.086892e+02
1.940000e-06	-1.138407e-06	-3.069515e-09	-8.858915e+00	-2.077994e+02
1.950000e-06	-1.129528e-06	-3.056795e-09	-8.789822e+00	-2.069024e+02
1.960000e-06	-1.120634e-06	-3.041889e-09	-8.720606e+00	-2.059976e+02
1.970000e-06	-1.111717e-06	-3.025570e-09	-8.651217e+00	-2.050843e+02
1.980000e-06	-1.102784e-06	-3.011886e-09	-8.581703e+00	-2.041618e+02
1.990000e-06	-1.093832e-06	-2.999223e-09	-8.512041e+00	-2.032295e+02
2.000000e-06	-1.084858e-06	-2.985945e-09	-8.442209e+00	-2.022867e+02
2.010000e-06	-1.075854e-06	-2.968496e-09	-8.372142e+00	-2.013330e+02
2.020000e-06	-1.066791e-06	-2.951259e-09	-8.301608e+00	-2.003677e+02
2.030000e-06	-1.057660e-06	-2.932981e-09	-8.230555e+00	-1.993907e+02
2.040000e-06	-1.048495e-06	-2.916835e-09	-8.159233e+00	-1.984015e+02
2.050000e-06	-1.039291e-06	-2.901706e-09	-8.087613e+00	-1.974002e+02
2.060000e-06	-1.030050e-06	-2.884982e-09	-8.015702e+00	-1.963868e+02
2.070000e-06	-1.020797e-06	-2.870482e-09	-7.943690e+00	-1.953612e+02
2.080000e-06	-1.011532e-06	-2.851708e-09	-7.871591e+00	-1.943239e+02
2.090000e-06	-1.002250e-06	-2.831651e-09	-7.799361e+00	-1.932753e+02
2.100000e-06	-9.929495e-07	-2.813714e-09	-7.726988e+00	-1.922157e+02
2.110000e-06	-9.836309e-07	-2.799176e-09	-7.654472e+00	-1.911459e+02
2.120000e-06	-9.742765e-07	-2.784721e-09	-7.581677e+00	-1.900664e+02
2.130000e-06	-9.648967e-07	-2.766875e-09	-7.508685e+00	-1.889781e+02
2.140000e-06	-9.555015e-07	-2.750316e-09	-7.435573e+00	-1.878817e+02
2.150000e-06	-9.460784e-07	-2.733372e-09	-7.362244e+00	-1.867780e+02
2.160000e-06	-9.366356e-07	-2.717839e-09	-7.288761e+00	-1.856678e+02
2.170000e-06	-9.271734e-07	-2.699544e-09	-7.215128e+00	-1.845520e+02
2.180000e-06	-9.176877e-07	-2.679960e-09	-7.141312e+00	-1.834312e+02
2.190000e-06	-9.081842e-07	-2.664493e-09	-7.067356e+00	-1.823063e+02
2.200000e-06	-8.986540e-07	-2.652403e-09	-6.993194e+00	-1.811779e+02
2.210000e-06	-8.890933e-07	-2.640459e-09	-6.918794e+00	-1.800466e+02
2.220000e-06	-8.795129e-07	-2.624599e-09	-6.844241e+00	-1.789130e+02
2.230000e-06	-8.699094e-07	-2.605653e-09	-6.769508e+00	-1.777775e+02
2.240000e-06	-8.602763e-07	-2.582124e-09	-6.694544e+00	-1.766407e+02
2.250000e-06	-8.506162e-07	-2.559932e-09	-6.619371e+00	-1.755029e+02
2.260000e-06	-8.409350e-07	-2.542665e-09	-6.544033e+00	-1.743644e+02
2.270000e-06	-8.312346e-07	-2.528887e-09	-6.468546e+00	-1.732254e+02
2.280000e-06	-8.215273e-07	-2.515604e-09	-6.393005e+00	-1.720861e+02
2.290000e-06	-8.118125e-07	-2.497781e-09	-6.317406e+00	-1.709466e+02
2.300000e-06	-8.020797e-07	-2.480767e-09	-6.241667e+00	-1.698071e+02
2.310000e-06	-7.923239e-07	-2.464916e-09	-6.165749e+00	-1.686675e+02
2.320000e-06	-7.825538e-07	-2.447650e-09	-6.089720e+00	-1.675278e+02
2.330000e-06	-7.727669e-07	-2.431469e-09	-6.013559e+00	-1.663880e+02
2.340000e-06	-7.629452e-07	-2.417702e-09	-5.937128e+00	-1.652478e+02
2.350000e-06	-7.530958e-07	-2.402713e-09	-5.860482e+00	-1.641071e+02
2.360000e-06	-7.432156e-07	-2.382820e-09	-5.783595e+00	-1.629658e+02
2.370000e-06	-7.332960e-07	-2.361453e-09	-5.706402e+00	-1.618234e+02
2.380000e-06	-7.233457e-07	-2.338388e-09	-5.628971e+00	-1.606798e+02
2.390000e-06	-7.133612e-07	-2.320202e-09	-5.551273e+00	-1.595345e+02
2.400000e-06	-7.033564e-07	-2.307099e-09	-5.473417e+00	-1.583873e+02
2.410000e-06	-6.933423e-07	-2.291410e-09	-5.395489e+00	-1.572378e+02
2.420000e-06	-6.832979e-07	-2.277052e-09	-5.317325e+00	-1.560855e+02
2.430000e-06	-6.732317e-07	-2.260487e-09	-5.238991e+00	-1.549303e+02
2.440000e-06	-6.631546e-07	-2.241759e-09	-5.160572e+00	-1.537716e+02
2.450000e-06	-6.530651e-07	-2.222713e-09	-5.082057e+00	-1.526094e+02
2.460000e-06	-6.429738e-07	-2.203647e-09	-5.003528e+00	-1.514432e+02
2.470000e-06	-6.328825e-07	-2.186575e-09	-4.924999e+00	-1.502730e+02
2.480000e-06	-6.227840e-07	-2.169060e-09	-4.846414e+00	-1.490986e+02
2.490000e-06	-6.126799e-07	-2.152717e-09	-4.767785e+00	-1.479200e+02
2.500000e-06	-6.025649e-07	-2.137548e-09	-4.689072e+00	-1.467372e+02
2.510000e-06	-5.924385e-07	-2.122855e-09	-4.610270e+00	-1.455503e+02
2.520000e-06	-5.822989e-07	-2.107888e-09	-4.531365e+00	-1.443595e+02
2.530000e-06	-5.721330e-07	-2.092321e-09	-4.452256e+00	-1.431649e+02
2.540000e-06	-5.619525e-07	-2.074570e-09	-4.373032e+00	-1.419668e+02
2.550000e-06	-5.517461e-07	-2.053505e-09	-4.293608e+00	-1.407655e+02
2.560000e-06	-5.415100e-07	-2.033687e-09	-4.213951e+00	-1.395611e+02
2.570000e-06	-5.312689e-07	-2.014147e-09	-4.134257e+00	-1.383539e+02
2.580000e-06	-5.210117e-07	-1.995264e-09	-4.054437e+00	-1.371441e+02
2.590000e-06	-5.107434e-07	-1.975457e-09	-3.974530e+00	-1.359318e+02
2.600000e-06	-5.004674e-07	-1.956415e-09	-3.894564e+00	-1.347169e+02
2.610000e-06	-4.901789e-07	-1.942079e-09	-3.814501e+00	-1.334994e+02
2.620000e-06	-4.798838e-07	-1.925895e-09	-3.734385e+00	-1.322790e+02
2.630000e-06	-4.695679e-07	-1.905241e-09	-3.654109e+00	-1.310554e+02
2.640000e-06	-4.592428e-07	-1.883012e-09	-3.573760e+00	-1.298283e+02
2.650000e-06	-4.489025e-07	-1.865901e-09	-3.493294e+00	-1.285970e+02
2.660000e-06	-4.385424e-07	-1.852590e-09	-3.412673e+00	-1.273609e+02
2.670000e-06	-4.281687e-07	-1.836445e-09	-3.331946e+00	-1.261193e+02
2.680000e-06	-4.177794e-07	-1.818160e-09	-3.251098e+00	-1.248716e+02
2.690000e-06	-4.073974e-07	-1.800730e-09	-3.170307e+00	-1.236168e+02
2.700000e-06	-3.970034e-07	-1.784336e-09	-3.089423e+00	-1.223542e+02
2.710000e-06	-3.866026e-07	-1.766996e-09	-3.008485e+00	-1.210832e+02
2.720000e-06	-3.762046e-07	-1.746765e-09	-2.927569e+00	-1.198032e+02
2.730000e-06	-3.657858e-07	-1.723862e-09	-2.846491e+00	-1.185135e+02
2.740000e-06	-3.553487e-07	-1.704408e-09	-2.765271e+00	-1.172138e+02
2.750000e-06	-3.448996e-07	-1.690253e-09	-2.683958e+00	-1.159039e+02
2.760000e-06	-3.344509e-07	-1.672495e-09	-2.602648e+00	-1.145837e+02
2.770000e-06	-3.240002e-07	-1.650744e-09	-2.521322e+00	-1.132532e+02
2.780000e-06	-3.135399e-07	-1.628498e-09	-2.439921e+00	-1.119127e+02
2.790000e-06	-3.030771e-07	-1.606519e-09	-2.358502e+00	-1.105626e+02
2.800000e-06	-2.926055e-07	-1.585083e-09	-2.277013e+00	-1.092035e+02
2.810000e-06	-2.821236e-07	-1.563745e-09	-2.195444e+00	-1.078359e+02
2.820000e-06	-2.716396e-07	-1.545443e-09	-2.113860e+00	-1.064606e+02
2.830000e-06	-2.611612e-07	-1.528920e-09	-2.032318e+00	-1.050782e+02
2.840000e-06	-2.506751e-07	-1.512309e-09	-1.950717e+00	-1.036897e+02
