# Temperatura_=_20.0
# Concentracion g/m^3_=_10000.0
# C_Vs_to_Am_M_A/Vsm_=_65563218390.804596
# pendiente_HvsI_1/m_=_3716.3
# ordenada_HvsI_A/m_=_1297.0
# frecuencia_Hz_=_81140.10172214692

Tiempo_(s)	Campo_(V.s)	Magnetizacion_(V.s)	Campo_(kA/m)	Magnetizacion_(A/m)
0.000000e+00	-2.074061e-06	-4.363544e-09	-1.614687e+01	-2.862830e+02
1.000000e-08	-2.074034e-06	-4.353851e-09	-1.614667e+01	-2.865251e+02
2.000000e-08	-2.074035e-06	-4.329005e-09	-1.614667e+01	-2.867664e+02
3.000000e-08	-2.074032e-06	-4.346922e-09	-1.614665e+01	-2.870062e+02
4.000000e-08	-2.073957e-06	-4.396431e-09	-1.614607e+01	-2.872437e+02
5.000000e-08	-2.073782e-06	-4.367439e-09	-1.614471e+01	-2.874779e+02
6.000000e-08	-2.073529e-06	-4.356341e-09	-1.614274e+01	-2.877081e+02
7.000000e-08	-2.073201e-06	-4.391675e-09	-1.614019e+01	-2.879334e+02
8.000000e-08	-2.072818e-06	-4.410364e-09	-1.613720e+01	-2.881527e+02
9.000000e-08	-2.072387e-06	-4.357632e-09	-1.613384e+01	-2.883653e+02
1.000000e-07	-2.071936e-06	-4.329854e-09	-1.613034e+01	-2.885702e+02
1.100000e-07	-2.071473e-06	-4.368199e-09	-1.612673e+01	-2.887663e+02
1.200000e-07	-2.070935e-06	-4.384759e-09	-1.612254e+01	-2.889528e+02
1.300000e-07	-2.070313e-06	-4.391721e-09	-1.611770e+01	-2.891287e+02
1.400000e-07	-2.069635e-06	-4.377914e-09	-1.611242e+01	-2.892931e+02
1.500000e-07	-2.068924e-06	-4.391821e-09	-1.610689e+01	-2.894451e+02
1.600000e-07	-2.068150e-06	-4.401460e-09	-1.610086e+01	-2.895838e+02
1.700000e-07	-2.067287e-06	-4.397401e-09	-1.609414e+01	-2.897083e+02
1.800000e-07	-2.066391e-06	-4.390692e-09	-1.608717e+01	-2.898181e+02
1.900000e-07	-2.065476e-06	-4.355114e-09	-1.608004e+01	-2.899123e+02
2.000000e-07	-2.064506e-06	-4.369584e-09	-1.607249e+01	-2.899904e+02
2.100000e-07	-2.063448e-06	-4.381343e-09	-1.606425e+01	-2.900518e+02
2.200000e-07	-2.062348e-06	-4.397014e-09	-1.605569e+01	-2.900962e+02
2.300000e-07	-2.061183e-06	-4.393116e-09	-1.604662e+01	-2.901233e+02
2.400000e-07	-2.059951e-06	-4.381017e-09	-1.603703e+01	-2.901328e+02
2.500000e-07	-2.058678e-06	-4.397513e-09	-1.602712e+01	-2.901247e+02
2.600000e-07	-2.057330e-06	-4.392023e-09	-1.601663e+01	-2.900990e+02
2.700000e-07	-2.055939e-06	-4.391354e-09	-1.600580e+01	-2.900558e+02
2.800000e-07	-2.054489e-06	-4.367367e-09	-1.599451e+01	-2.899953e+02
2.900000e-07	-2.052975e-06	-4.359383e-09	-1.598272e+01	-2.899178e+02
3.000000e-07	-2.051400e-06	-4.362806e-09	-1.597046e+01	-2.898237e+02
3.100000e-07	-2.049763e-06	-4.361917e-09	-1.595771e+01	-2.897134e+02
3.200000e-07	-2.048063e-06	-4.372016e-09	-1.594448e+01	-2.895875e+02
3.300000e-07	-2.046279e-06	-4.360659e-09	-1.593059e+01	-2.894464e+02
3.400000e-07	-2.044431e-06	-4.368079e-09	-1.591621e+01	-2.892908e+02
3.500000e-07	-2.042537e-06	-4.363928e-09	-1.590146e+01	-2.891212e+02
3.600000e-07	-2.040613e-06	-4.359725e-09	-1.588648e+01	-2.889383e+02
3.700000e-07	-2.038640e-06	-4.352768e-09	-1.587112e+01	-2.887427e+02
3.800000e-07	-2.036609e-06	-4.339715e-09	-1.585531e+01	-2.885351e+02
3.900000e-07	-2.034526e-06	-4.345073e-09	-1.583910e+01	-2.883163e+02
4.000000e-07	-2.032390e-06	-4.340538e-09	-1.582247e+01	-2.880870e+02
4.100000e-07	-2.030230e-06	-4.348444e-09	-1.580565e+01	-2.878479e+02
4.200000e-07	-2.028033e-06	-4.340021e-09	-1.578854e+01	-2.875999e+02
4.300000e-07	-2.025781e-06	-4.332708e-09	-1.577101e+01	-2.873440e+02
4.400000e-07	-2.023469e-06	-4.329000e-09	-1.575301e+01	-2.870811e+02
4.500000e-07	-2.021112e-06	-4.318338e-09	-1.573466e+01	-2.868121e+02
4.600000e-07	-2.018715e-06	-4.317394e-09	-1.571600e+01	-2.865383e+02
4.700000e-07	-2.016256e-06	-4.303422e-09	-1.569686e+01	-2.862608e+02
4.800000e-07	-2.013736e-06	-4.300382e-09	-1.567724e+01	-2.859808e+02
4.900000e-07	-2.011166e-06	-4.292878e-09	-1.565723e+01	-2.856996e+02
5.000000e-07	-2.008567e-06	-4.291543e-09	-1.563700e+01	-2.854185e+02
5.100000e-07	-2.005914e-06	-4.293216e-09	-1.561635e+01	-2.851389e+02
5.200000e-07	-2.003177e-06	-4.284901e-09	-1.559504e+01	-2.848620e+02
5.300000e-07	-2.000372e-06	-4.284692e-09	-1.557320e+01	-2.845892e+02
5.400000e-07	-1.997504e-06	-4.277845e-09	-1.555087e+01	-2.843215e+02
5.500000e-07	-1.994579e-06	-4.277125e-09	-1.552810e+01	-2.840600e+02
5.600000e-07	-1.991614e-06	-4.263079e-09	-1.550502e+01	-2.838058e+02
5.700000e-07	-1.988616e-06	-4.253545e-09	-1.548168e+01	-2.835594e+02
5.800000e-07	-1.985566e-06	-4.257335e-09	-1.545793e+01	-2.833214e+02
5.900000e-07	-1.982458e-06	-4.255984e-09	-1.543374e+01	-2.830921e+02
6.000000e-07	-1.979305e-06	-4.255821e-09	-1.540919e+01	-2.828714e+02
6.100000e-07	-1.976120e-06	-4.243334e-09	-1.538439e+01	-2.826591e+02
6.200000e-07	-1.972901e-06	-4.238698e-09	-1.535933e+01	-2.824546e+02
6.300000e-07	-1.969625e-06	-4.235529e-09	-1.533383e+01	-2.822571e+02
6.400000e-07	-1.966291e-06	-4.232253e-09	-1.530788e+01	-2.820655e+02
6.500000e-07	-1.962910e-06	-4.230262e-09	-1.528155e+01	-2.818785e+02
6.600000e-07	-1.959490e-06	-4.229024e-09	-1.525493e+01	-2.816945e+02
6.700000e-07	-1.956018e-06	-4.236710e-09	-1.522789e+01	-2.815118e+02
6.800000e-07	-1.952460e-06	-4.231445e-09	-1.520020e+01	-2.813286e+02
6.900000e-07	-1.948844e-06	-4.224055e-09	-1.517204e+01	-2.811430e+02
7.000000e-07	-1.945175e-06	-4.212576e-09	-1.514348e+01	-2.809531e+02
7.100000e-07	-1.941450e-06	-4.206218e-09	-1.511448e+01	-2.807569e+02
7.200000e-07	-1.937694e-06	-4.207735e-09	-1.508524e+01	-2.805526e+02
7.300000e-07	-1.933902e-06	-4.204799e-09	-1.505572e+01	-2.803385e+02
7.400000e-07	-1.930074e-06	-4.207136e-09	-1.502592e+01	-2.801131e+02
7.500000e-07	-1.926192e-06	-4.205133e-09	-1.499569e+01	-2.798748e+02
7.600000e-07	-1.922250e-06	-4.207058e-09	-1.496501e+01	-2.796225e+02
7.700000e-07	-1.918250e-06	-4.202373e-09	-1.493387e+01	-2.793553e+02
7.800000e-07	-1.914206e-06	-4.190437e-09	-1.490238e+01	-2.790723e+02
7.900000e-07	-1.910125e-06	-4.181048e-09	-1.487061e+01	-2.787731e+02
8.000000e-07	-1.905994e-06	-4.171169e-09	-1.483845e+01	-2.784571e+02
8.100000e-07	-1.901825e-06	-4.168148e-09	-1.480599e+01	-2.781242e+02
8.200000e-07	-1.897608e-06	-4.161934e-09	-1.477317e+01	-2.777743e+02
8.300000e-07	-1.893325e-06	-4.158669e-09	-1.473982e+01	-2.774074e+02
8.400000e-07	-1.888976e-06	-4.158629e-09	-1.470596e+01	-2.770237e+02
8.500000e-07	-1.884554e-06	-4.158917e-09	-1.467154e+01	-2.766232e+02
8.600000e-07	-1.880074e-06	-4.153311e-09	-1.463666e+01	-2.762061e+02
8.700000e-07	-1.875551e-06	-4.138896e-09	-1.460145e+01	-2.757725e+02
8.800000e-07	-1.871000e-06	-4.129568e-09	-1.456602e+01	-2.753225e+02
8.900000e-07	-1.866419e-06	-4.119855e-09	-1.453036e+01	-2.748563e+02
9.000000e-07	-1.861782e-06	-4.110593e-09	-1.449426e+01	-2.743737e+02
9.100000e-07	-1.857081e-06	-4.097796e-09	-1.445766e+01	-2.738747e+02
9.200000e-07	-1.852337e-06	-4.084314e-09	-1.442072e+01	-2.733594e+02
9.300000e-07	-1.847555e-06	-4.077172e-09	-1.438350e+01	-2.728278e+02
9.400000e-07	-1.842731e-06	-4.070196e-09	-1.434594e+01	-2.722797e+02
9.500000e-07	-1.837862e-06	-4.064545e-09	-1.430803e+01	-2.717154e+02
9.600000e-07	-1.832940e-06	-4.053663e-09	-1.426972e+01	-2.711351e+02
9.700000e-07	-1.827967e-06	-4.045339e-09	-1.423100e+01	-2.705390e+02
9.800000e-07	-1.822946e-06	-4.035581e-09	-1.419191e+01	-2.699277e+02
9.900000e-07	-1.817887e-06	-4.018178e-09	-1.415253e+01	-2.693021e+02
1.000000e-06	-1.812763e-06	-4.001024e-09	-1.411263e+01	-2.686629e+02
1.010000e-06	-1.807546e-06	-3.986290e-09	-1.407202e+01	-2.680115e+02
1.020000e-06	-1.802260e-06	-3.980992e-09	-1.403087e+01	-2.673494e+02
1.030000e-06	-1.796921e-06	-3.975295e-09	-1.398930e+01	-2.666782e+02
1.040000e-06	-1.791527e-06	-3.968721e-09	-1.394731e+01	-2.659998e+02
1.050000e-06	-1.786077e-06	-3.960770e-09	-1.390488e+01	-2.653163e+02
1.060000e-06	-1.780590e-06	-3.952108e-09	-1.386216e+01	-2.646300e+02
1.070000e-06	-1.775074e-06	-3.942448e-09	-1.381922e+01	-2.639430e+02
1.080000e-06	-1.769509e-06	-3.923178e-09	-1.377590e+01	-2.632578e+02
1.090000e-06	-1.763899e-06	-3.906486e-09	-1.373222e+01	-2.625766e+02
1.100000e-06	-1.758245e-06	-3.895524e-09	-1.368820e+01	-2.619015e+02
1.110000e-06	-1.752552e-06	-3.886908e-09	-1.364389e+01	-2.612345e+02
1.120000e-06	-1.746821e-06	-3.874809e-09	-1.359926e+01	-2.605772e+02
1.130000e-06	-1.741056e-06	-3.860253e-09	-1.355439e+01	-2.599311e+02
1.140000e-06	-1.735260e-06	-3.850905e-09	-1.350926e+01	-2.592973e+02
1.150000e-06	-1.729412e-06	-3.843864e-09	-1.346373e+01	-2.586765e+02
1.160000e-06	-1.723496e-06	-3.837523e-09	-1.341767e+01	-2.580689e+02
1.170000e-06	-1.717501e-06	-3.825795e-09	-1.337100e+01	-2.574746e+02
1.180000e-06	-1.711442e-06	-3.815261e-09	-1.332384e+01	-2.568931e+02
1.190000e-06	-1.705341e-06	-3.808638e-09	-1.327634e+01	-2.563235e+02
1.200000e-06	-1.699202e-06	-3.800195e-09	-1.322854e+01	-2.557648e+02
1.210000e-06	-1.693035e-06	-3.790333e-09	-1.318053e+01	-2.552156e+02
1.220000e-06	-1.686844e-06	-3.778843e-09	-1.313233e+01	-2.546744e+02
1.230000e-06	-1.680611e-06	-3.772240e-09	-1.308381e+01	-2.541393e+02
1.240000e-06	-1.674330e-06	-3.766665e-09	-1.303491e+01	-2.536087e+02
1.250000e-06	-1.668008e-06	-3.756953e-09	-1.298569e+01	-2.530807e+02
1.260000e-06	-1.661649e-06	-3.743402e-09	-1.293619e+01	-2.525537e+02
1.270000e-06	-1.655248e-06	-3.733392e-09	-1.288636e+01	-2.520259e+02
1.280000e-06	-1.648795e-06	-3.729477e-09	-1.283612e+01	-2.514960e+02
1.290000e-06	-1.642302e-06	-3.723745e-09	-1.278557e+01	-2.509627e+02
1.300000e-06	-1.635771e-06	-3.716323e-09	-1.273473e+01	-2.504250e+02
1.310000e-06	-1.629203e-06	-3.707852e-09	-1.268359e+01	-2.498822e+02
1.320000e-06	-1.622609e-06	-3.701613e-09	-1.263226e+01	-2.493336e+02
1.330000e-06	-1.615975e-06	-3.694237e-09	-1.258061e+01	-2.487789e+02
1.340000e-06	-1.609298e-06	-3.682671e-09	-1.252863e+01	-2.482181e+02
1.350000e-06	-1.602576e-06	-3.672229e-09	-1.247630e+01	-2.476512e+02
1.360000e-06	-1.595784e-06	-3.664872e-09	-1.242342e+01	-2.470782e+02
1.370000e-06	-1.588942e-06	-3.660225e-09	-1.237015e+01	-2.464995e+02
1.380000e-06	-1.582058e-06	-3.650826e-09	-1.231656e+01	-2.459152e+02
1.390000e-06	-1.575130e-06	-3.635850e-09	-1.226262e+01	-2.453256e+02
1.400000e-06	-1.568173e-06	-3.623371e-09	-1.220846e+01	-2.447308e+02
1.410000e-06	-1.561193e-06	-3.613204e-09	-1.215412e+01	-2.441308e+02
1.420000e-06	-1.554190e-06	-3.604031e-09	-1.209961e+01	-2.435255e+02
1.430000e-06	-1.547154e-06	-3.595270e-09	-1.204483e+01	-2.429146e+02
1.440000e-06	-1.540077e-06	-3.587479e-09	-1.198973e+01	-2.422977e+02
1.450000e-06	-1.532955e-06	-3.581643e-09	-1.193429e+01	-2.416741e+02
1.460000e-06	-1.525799e-06	-3.576227e-09	-1.187858e+01	-2.410430e+02
1.470000e-06	-1.518598e-06	-3.567927e-09	-1.182251e+01	-2.404037e+02
1.480000e-06	-1.511354e-06	-3.551279e-09	-1.176612e+01	-2.397550e+02
1.490000e-06	-1.504080e-06	-3.535863e-09	-1.170949e+01	-2.390960e+02
1.500000e-06	-1.496754e-06	-3.526886e-09	-1.165246e+01	-2.384255e+02
1.510000e-06	-1.489399e-06	-3.515822e-09	-1.159519e+01	-2.377427e+02
1.520000e-06	-1.482014e-06	-3.504077e-09	-1.153770e+01	-2.370465e+02
1.530000e-06	-1.474573e-06	-3.491748e-09	-1.147978e+01	-2.363363e+02
1.540000e-06	-1.467091e-06	-3.478996e-09	-1.142152e+01	-2.356113e+02
1.550000e-06	-1.459564e-06	-3.466974e-09	-1.136292e+01	-2.348712e+02
1.560000e-06	-1.451994e-06	-3.456449e-09	-1.130399e+01	-2.341159e+02
1.570000e-06	-1.444368e-06	-3.446255e-09	-1.124462e+01	-2.333454e+02
1.580000e-06	-1.436686e-06	-3.432486e-09	-1.118482e+01	-2.325600e+02
1.590000e-06	-1.428972e-06	-3.417004e-09	-1.112476e+01	-2.317604e+02
1.600000e-06	-1.421213e-06	-3.404139e-09	-1.106436e+01	-2.309472e+02
1.610000e-06	-1.413415e-06	-3.392502e-09	-1.100365e+01	-2.301216e+02
1.620000e-06	-1.405580e-06	-3.377971e-09	-1.094265e+01	-2.292846e+02
1.630000e-06	-1.397712e-06	-3.363897e-09	-1.088140e+01	-2.284376e+02
1.640000e-06	-1.389812e-06	-3.354023e-09	-1.081990e+01	-2.275819e+02
1.650000e-06	-1.381875e-06	-3.345825e-09	-1.075811e+01	-2.267191e+02
1.660000e-06	-1.373913e-06	-3.335307e-09	-1.069612e+01	-2.258505e+02
1.670000e-06	-1.365903e-06	-3.321774e-09	-1.063376e+01	-2.249775e+02
1.680000e-06	-1.357837e-06	-3.303929e-09	-1.057097e+01	-2.241016e+02
1.690000e-06	-1.349722e-06	-3.284685e-09	-1.050779e+01	-2.232240e+02
1.700000e-06	-1.341557e-06	-3.265424e-09	-1.044422e+01	-2.223458e+02
1.710000e-06	-1.333358e-06	-3.246219e-09	-1.038039e+01	-2.214680e+02
1.720000e-06	-1.325125e-06	-3.232899e-09	-1.031630e+01	-2.205916e+02
1.730000e-06	-1.316866e-06	-3.223742e-09	-1.025200e+01	-2.197173e+02
1.740000e-06	-1.308579e-06	-3.214191e-09	-1.018749e+01	-2.188457e+02
1.750000e-06	-1.300255e-06	-3.203559e-09	-1.012268e+01	-2.179773e+02
1.760000e-06	-1.291905e-06	-3.193689e-09	-1.005768e+01	-2.171125e+02
1.770000e-06	-1.283528e-06	-3.184174e-09	-9.992458e+00	-2.162517e+02
1.780000e-06	-1.275131e-06	-3.169985e-09	-9.927089e+00	-2.153950e+02
1.790000e-06	-1.266701e-06	-3.156098e-09	-9.861455e+00	-2.145426e+02
1.800000e-06	-1.258227e-06	-3.145731e-09	-9.795486e+00	-2.136948e+02
1.810000e-06	-1.249724e-06	-3.134726e-09	-9.729288e+00	-2.128515e+02
1.820000e-06	-1.241202e-06	-3.121649e-09	-9.662944e+00	-2.120129e+02
1.830000e-06	-1.232663e-06	-3.107868e-09	-9.596469e+00	-2.111791e+02
1.840000e-06	-1.224105e-06	-3.096053e-09	-9.529842e+00	-2.103499e+02
1.850000e-06	-1.215522e-06	-3.083868e-09	-9.463024e+00	-2.095255e+02
1.860000e-06	-1.206905e-06	-3.069543e-09	-9.395936e+00	-2.087057e+02
1.870000e-06	-1.198251e-06	-3.056559e-09	-9.328565e+00	-2.078904e+02
1.880000e-06	-1.189567e-06	-3.045297e-09	-9.260959e+00	-2.070793e+02
1.890000e-06	-1.180854e-06	-3.033248e-09	-9.193127e+00	-2.062721e+02
1.900000e-06	-1.172113e-06	-3.021959e-09	-9.125075e+00	-2.054684e+02
1.910000e-06	-1.163351e-06	-3.010478e-09	-9.056864e+00	-2.046675e+02
1.920000e-06	-1.154557e-06	-2.997601e-09	-8.988402e+00	-2.038689e+02
1.930000e-06	-1.145723e-06	-2.981447e-09	-8.919630e+00	-2.030715e+02
1.940000e-06	-1.136861e-06	-2.967069e-09	-8.850633e+00	-2.022745e+02
1.950000e-06	-1.127971e-06	-2.957140e-09	-8.781425e+00	-2.014768e+02
1.960000e-06	-1.119063e-06	-2.950603e-09	-8.712074e+00	-2.006772e+02
1.970000e-06	-1.110138e-06	-2.944536e-09	-8.642590e+00	-1.998744e+02
1.980000e-06	-1.101184e-06	-2.933373e-09	-8.572887e+00	-1.990671e+02
1.990000e-06	-1.092208e-06	-2.919036e-09	-8.503008e+00	-1.982540e+02
2.000000e-06	-1.083211e-06	-2.901928e-09	-8.432965e+00	-1.974337e+02
2.010000e-06	-1.074185e-06	-2.885246e-09	-8.362693e+00	-1.966051e+02
2.020000e-06	-1.065120e-06	-2.866743e-09	-8.292118e+00	-1.957669e+02
2.030000e-06	-1.056012e-06	-2.849763e-09	-8.221216e+00	-1.949181e+02
2.040000e-06	-1.046858e-06	-2.839383e-09	-8.149947e+00	-1.940578e+02
2.050000e-06	-1.037653e-06	-2.831718e-09	-8.078285e+00	-1.931853e+02
2.060000e-06	-1.028423e-06	-2.823949e-09	-8.006432e+00	-1.923001e+02
2.070000e-06	-1.019169e-06	-2.810801e-09	-7.934381e+00	-1.914019e+02
2.080000e-06	-1.009882e-06	-2.793824e-09	-7.862086e+00	-1.904905e+02
2.090000e-06	-1.000581e-06	-2.776947e-09	-7.789675e+00	-1.895659e+02
2.100000e-06	-9.912713e-07	-2.759940e-09	-7.717197e+00	-1.886285e+02
2.110000e-06	-9.819453e-07	-2.741893e-09	-7.644593e+00	-1.876785e+02
2.120000e-06	-9.725893e-07	-2.725511e-09	-7.571754e+00	-1.867164e+02
2.130000e-06	-9.632165e-07	-2.716842e-09	-7.498786e+00	-1.857429e+02
2.140000e-06	-9.538314e-07	-2.710021e-09	-7.425721e+00	-1.847585e+02
2.150000e-06	-9.444146e-07	-2.696924e-09	-7.352411e+00	-1.837639e+02
2.160000e-06	-9.349696e-07	-2.678114e-09	-7.278879e+00	-1.827595e+02
2.170000e-06	-9.255006e-07	-2.656916e-09	-7.205162e+00	-1.817461e+02
2.180000e-06	-9.160058e-07	-2.636396e-09	-7.131243e+00	-1.807241e+02
2.190000e-06	-9.064892e-07	-2.619215e-09	-7.057156e+00	-1.796937e+02
2.200000e-06	-8.969567e-07	-2.607152e-09	-6.982943e+00	-1.786553e+02
2.210000e-06	-8.874029e-07	-2.596649e-09	-6.908566e+00	-1.776089e+02
2.220000e-06	-8.778220e-07	-2.584976e-09	-6.833977e+00	-1.765546e+02
2.230000e-06	-8.682254e-07	-2.567994e-09	-6.759266e+00	-1.754922e+02
2.240000e-06	-8.586066e-07	-2.545511e-09	-6.684382e+00	-1.744216e+02
2.250000e-06	-8.489537e-07	-2.524873e-09	-6.609233e+00	-1.733426e+02
2.260000e-06	-8.392855e-07	-2.507480e-09	-6.533964e+00	-1.722547e+02
2.270000e-06	-8.296016e-07	-2.493642e-09	-6.458574e+00	-1.711578e+02
2.280000e-06	-8.198944e-07	-2.481695e-09	-6.383002e+00	-1.700516e+02
2.290000e-06	-8.101817e-07	-2.469308e-09	-6.307387e+00	-1.689360e+02
2.300000e-06	-8.004566e-07	-2.454524e-09	-6.231676e+00	-1.678108e+02
2.310000e-06	-7.907142e-07	-2.435538e-09	-6.155829e+00	-1.666760e+02
2.320000e-06	-7.809597e-07	-2.413580e-09	-6.079889e+00	-1.655320e+02
2.330000e-06	-7.711828e-07	-2.391725e-09	-6.003775e+00	-1.643790e+02
2.340000e-06	-7.613863e-07	-2.373935e-09	-5.927507e+00	-1.632175e+02
2.350000e-06	-7.515591e-07	-2.357215e-09	-5.851002e+00	-1.620483e+02
2.360000e-06	-7.416856e-07	-2.341073e-09	-5.774135e+00	-1.608723e+02
2.370000e-06	-7.317723e-07	-2.326275e-09	-5.696958e+00	-1.596903e+02
2.380000e-06	-7.218227e-07	-2.312213e-09	-5.619499e+00	-1.585035e+02
2.390000e-06	-7.118449e-07	-2.299008e-09	-5.541820e+00	-1.573132e+02
2.400000e-06	-7.018310e-07	-2.281329e-09	-5.463860e+00	-1.561206e+02
2.410000e-06	-6.917849e-07	-2.260061e-09	-5.385650e+00	-1.549270e+02
2.420000e-06	-6.817365e-07	-2.239901e-09	-5.307422e+00	-1.537337e+02
2.430000e-06	-6.716841e-07	-2.220366e-09	-5.229162e+00	-1.525420e+02
2.440000e-06	-6.616178e-07	-2.201148e-09	-5.150794e+00	-1.513531e+02
2.450000e-06	-6.515371e-07	-2.184028e-09	-5.072315e+00	-1.501679e+02
2.460000e-06	-6.414386e-07	-2.171357e-09	-4.993696e+00	-1.489876e+02
2.470000e-06	-6.313332e-07	-2.158974e-09	-4.915025e+00	-1.478128e+02
2.480000e-06	-6.212312e-07	-2.142787e-09	-4.836379e+00	-1.466443e+02
2.490000e-06	-6.111226e-07	-2.124153e-09	-4.757682e+00	-1.454824e+02
2.500000e-06	-6.010026e-07	-2.105342e-09	-4.678896e+00	-1.443276e+02
2.510000e-06	-5.908617e-07	-2.087711e-09	-4.599948e+00	-1.431799e+02
2.520000e-06	-5.807032e-07	-2.068659e-09	-4.520862e+00	-1.420394e+02
2.530000e-06	-5.705395e-07	-2.049372e-09	-4.441736e+00	-1.409058e+02
2.540000e-06	-5.603631e-07	-2.035353e-09	-4.362511e+00	-1.397789e+02
2.550000e-06	-5.501617e-07	-2.026596e-09	-4.283092e+00	-1.386583e+02
2.560000e-06	-5.399274e-07	-2.017371e-09	-4.203416e+00	-1.375435e+02
2.570000e-06	-5.296801e-07	-2.001989e-09	-4.123639e+00	-1.364339e+02
2.580000e-06	-5.194223e-07	-1.983540e-09	-4.043781e+00	-1.353289e+02
2.590000e-06	-5.091592e-07	-1.964677e-09	-3.963881e+00	-1.342279e+02
2.600000e-06	-4.988970e-07	-1.943106e-09	-3.883989e+00	-1.331299e+02
2.610000e-06	-4.886210e-07	-1.919197e-09	-3.803989e+00	-1.320344e+02
2.620000e-06	-4.783306e-07	-1.897376e-09	-3.723876e+00	-1.309404e+02
2.630000e-06	-4.680246e-07	-1.880653e-09	-3.643643e+00	-1.298471e+02
2.640000e-06	-4.577034e-07	-1.868490e-09	-3.563290e+00	-1.287537e+02
2.650000e-06	-4.473682e-07	-1.858651e-09	-3.482829e+00	-1.276592e+02
2.660000e-06	-4.370245e-07	-1.845156e-09	-3.402302e+00	-1.265627e+02
2.670000e-06	-4.266714e-07	-1.829020e-09	-3.321701e+00	-1.254631e+02
2.680000e-06	-4.163055e-07	-1.813202e-09	-3.241001e+00	-1.243595e+02
2.690000e-06	-4.059151e-07	-1.795369e-09	-3.160110e+00	-1.232506e+02
2.700000e-06	-3.955236e-07	-1.775458e-09	-3.079211e+00	-1.221354e+02
2.710000e-06	-3.851401e-07	-1.757997e-09	-2.998374e+00	-1.210127e+02
2.720000e-06	-3.747287e-07	-1.743897e-09	-2.917320e+00	-1.198811e+02
2.730000e-06	-3.643076e-07	-1.730184e-09	-2.836189e+00	-1.187396e+02
2.740000e-06	-3.538681e-07	-1.717685e-09	-2.754917e+00	-1.175867e+02
2.750000e-06	-3.434212e-07	-1.704631e-09	-2.673586e+00	-1.164213e+02
2.760000e-06	-3.329685e-07	-1.688826e-09	-2.592210e+00	-1.152421e+02
2.770000e-06	-3.225016e-07	-1.670223e-09	-2.510724e+00	-1.140480e+02
2.780000e-06	-3.120413e-07	-1.647208e-09	-2.429288e+00	-1.128380e+02
2.790000e-06	-3.015753e-07	-1.622591e-09	-2.347810e+00	-1.116110e+02
2.800000e-06	-2.911034e-07	-1.600505e-09	-2.266284e+00	-1.103663e+02
2.810000e-06	-2.806298e-07	-1.583081e-09	-2.184746e+00	-1.091032e+02
2.820000e-06	-2.701518e-07	-1.567466e-09	-2.103173e+00	-1.078213e+02
2.830000e-06	-2.596659e-07	-1.549099e-09	-2.021538e+00	-1.065201e+02
2.840000e-06	-2.491776e-07	-1.529090e-09	-1.939886e+00	-1.051997e+02
