# Temperatura_=_20.0
# Concentracion g/m^3_=_10000.0
# C_Vs_to_Am_M_A/Vsm_=_65563218390.804596
# pendiente_HvsI_1/m_=_3716.3
# ordenada_HvsI_A/m_=_1297.0
# frecuencia_Hz_=_81137.7784973943

Tiempo_(s)	Campo_(V.s)	Magnetizacion_(V.s)	Campo_(kA/m)	Magnetizacion_(A/m)
0.000000e+00	-2.069328e-06	4.879235e-11	-1.614850e+01	1.837062e+00
1.000000e-08	-2.069344e-06	9.294722e-11	-1.614862e+01	1.864807e+00
2.000000e-08	-2.069273e-06	6.872608e-11	-1.614806e+01	1.893603e+00
3.000000e-08	-2.069207e-06	-4.890141e-11	-1.614755e+01	1.922575e+00
4.000000e-08	-2.069116e-06	-2.816742e-10	-1.614684e+01	1.950826e+00
5.000000e-08	-2.068959e-06	-2.637856e-10	-1.614561e+01	1.977482e+00
6.000000e-08	-2.068716e-06	5.860860e-11	-1.614372e+01	2.001733e+00
7.000000e-08	-2.068401e-06	1.603477e-10	-1.614126e+01	2.022866e+00
8.000000e-08	-2.068039e-06	3.155936e-13	-1.613843e+01	2.040296e+00
9.000000e-08	-2.067623e-06	-5.519928e-11	-1.613519e+01	2.053596e+00
1.000000e-07	-2.067154e-06	5.773456e-11	-1.613153e+01	2.062504e+00
1.100000e-07	-2.066651e-06	-1.811261e-11	-1.612760e+01	2.066939e+00
1.200000e-07	-2.066116e-06	-2.041937e-10	-1.612343e+01	2.066996e+00
1.300000e-07	-2.065511e-06	-2.155284e-10	-1.611871e+01	2.062934e+00
1.400000e-07	-2.064822e-06	-5.928215e-11	-1.611333e+01	2.055165e+00
1.500000e-07	-2.064084e-06	1.287722e-10	-1.610757e+01	2.044226e+00
1.600000e-07	-2.063332e-06	1.026078e-10	-1.610170e+01	2.030752e+00
1.700000e-07	-2.062523e-06	-4.208822e-11	-1.609539e+01	2.015447e+00
1.800000e-07	-2.061634e-06	-1.655722e-10	-1.608846e+01	1.999046e+00
1.900000e-07	-2.060711e-06	-1.545087e-10	-1.608125e+01	1.982290e+00
2.000000e-07	-2.059732e-06	-4.927999e-11	-1.607361e+01	1.965887e+00
2.100000e-07	-2.058700e-06	-3.573788e-11	-1.606555e+01	1.950493e+00
2.200000e-07	-2.057598e-06	-2.806411e-11	-1.605696e+01	1.936685e+00
2.300000e-07	-2.056419e-06	-4.974187e-11	-1.604776e+01	1.924943e+00
2.400000e-07	-2.055181e-06	-2.964588e-11	-1.603810e+01	1.915644e+00
2.500000e-07	-2.053889e-06	-4.906247e-11	-1.602801e+01	1.909049e+00
2.600000e-07	-2.052547e-06	-1.126731e-10	-1.601754e+01	1.905308e+00
2.700000e-07	-2.051134e-06	-1.173827e-10	-1.600651e+01	1.904463e+00
2.800000e-07	-2.049662e-06	-9.216754e-11	-1.599503e+01	1.906455e+00
2.900000e-07	-2.048117e-06	-4.227944e-13	-1.598297e+01	1.911138e+00
3.000000e-07	-2.046504e-06	1.044802e-11	-1.597038e+01	1.918293e+00
3.100000e-07	-2.044849e-06	-3.941638e-11	-1.595746e+01	1.927640e+00
3.200000e-07	-2.043142e-06	-1.036500e-10	-1.594415e+01	1.938853e+00
3.300000e-07	-2.041381e-06	-1.249783e-10	-1.593040e+01	1.951576e+00
3.400000e-07	-2.039547e-06	-7.200131e-11	-1.591609e+01	1.965432e+00
3.500000e-07	-2.037650e-06	-6.210221e-11	-1.590129e+01	1.980034e+00
3.600000e-07	-2.035696e-06	-5.513634e-11	-1.588604e+01	1.994993e+00
3.700000e-07	-2.033697e-06	-6.979815e-11	-1.587044e+01	2.009924e+00
3.800000e-07	-2.031661e-06	-5.796344e-11	-1.585455e+01	2.024446e+00
3.900000e-07	-2.029576e-06	-5.128768e-11	-1.583828e+01	2.038191e+00
4.000000e-07	-2.027451e-06	-8.053985e-11	-1.582169e+01	2.050797e+00
4.100000e-07	-2.025282e-06	-8.421524e-11	-1.580477e+01	2.061919e+00
4.200000e-07	-2.023069e-06	-9.352667e-11	-1.578750e+01	2.071220e+00
4.300000e-07	-2.020803e-06	-6.303642e-11	-1.576982e+01	2.078381e+00
4.400000e-07	-2.018486e-06	-5.914329e-11	-1.575174e+01	2.083102e+00
4.500000e-07	-2.016123e-06	-7.201688e-11	-1.573330e+01	2.085105e+00
4.600000e-07	-2.013722e-06	-8.129470e-11	-1.571456e+01	2.084146e+00
4.700000e-07	-2.011269e-06	-7.831984e-11	-1.569542e+01	2.080015e+00
4.800000e-07	-2.008741e-06	-3.787358e-11	-1.567569e+01	2.072551e+00
4.900000e-07	-2.006165e-06	-4.371220e-11	-1.565559e+01	2.061645e+00
5.000000e-07	-2.003543e-06	-6.471076e-11	-1.563512e+01	2.047255e+00
5.100000e-07	-2.000864e-06	-9.431046e-11	-1.561422e+01	2.029405e+00
5.200000e-07	-1.998126e-06	-8.468560e-11	-1.559285e+01	2.008194e+00
5.300000e-07	-1.995333e-06	-5.785820e-11	-1.557106e+01	1.983796e+00
5.400000e-07	-1.992492e-06	-6.645391e-11	-1.554889e+01	1.956459e+00
5.500000e-07	-1.989584e-06	-6.640586e-11	-1.552619e+01	1.926498e+00
5.600000e-07	-1.986618e-06	-6.586335e-11	-1.550305e+01	1.894286e+00
5.700000e-07	-1.983606e-06	-3.827263e-11	-1.547954e+01	1.860241e+00
5.800000e-07	-1.980565e-06	-4.426871e-11	-1.545581e+01	1.824806e+00
5.900000e-07	-1.977471e-06	-7.381377e-11	-1.543167e+01	1.788434e+00
6.000000e-07	-1.974318e-06	-7.715302e-11	-1.540706e+01	1.751561e+00
6.100000e-07	-1.971128e-06	-5.942633e-11	-1.538217e+01	1.714590e+00
6.200000e-07	-1.967896e-06	-3.291423e-11	-1.535694e+01	1.677865e+00
6.300000e-07	-1.964625e-06	-5.498831e-11	-1.533142e+01	1.641655e+00
6.400000e-07	-1.961309e-06	-7.023329e-11	-1.530554e+01	1.606139e+00
6.500000e-07	-1.957930e-06	-6.350526e-11	-1.527917e+01	1.571392e+00
6.600000e-07	-1.954491e-06	-4.871035e-11	-1.525233e+01	1.537385e+00
6.700000e-07	-1.951001e-06	-4.970363e-11	-1.522511e+01	1.503983e+00
6.800000e-07	-1.947458e-06	-7.003560e-11	-1.519745e+01	1.470956e+00
6.900000e-07	-1.943856e-06	-5.364454e-11	-1.516935e+01	1.437989e+00
7.000000e-07	-1.940198e-06	-3.794326e-11	-1.514080e+01	1.404706e+00
7.100000e-07	-1.936494e-06	-3.893005e-11	-1.511189e+01	1.370695e+00
7.200000e-07	-1.932737e-06	-6.500603e-11	-1.508258e+01	1.335536e+00
7.300000e-07	-1.928932e-06	-7.864376e-11	-1.505288e+01	1.298830e+00
7.400000e-07	-1.925088e-06	-6.063761e-11	-1.502289e+01	1.260233e+00
7.500000e-07	-1.921189e-06	-5.281029e-11	-1.499246e+01	1.219485e+00
7.600000e-07	-1.917230e-06	-5.621180e-11	-1.496156e+01	1.176432e+00
7.700000e-07	-1.913224e-06	-7.167211e-11	-1.493030e+01	1.131048e+00
7.800000e-07	-1.909187e-06	-5.984858e-11	-1.489879e+01	1.083452e+00
7.900000e-07	-1.905119e-06	-4.295092e-11	-1.486705e+01	1.033904e+00
8.000000e-07	-1.901001e-06	-4.795229e-11	-1.483491e+01	9.828119e-01
8.100000e-07	-1.896820e-06	-6.217385e-11	-1.480228e+01	9.307113e-01
8.200000e-07	-1.892579e-06	-7.230313e-11	-1.476919e+01	8.782487e-01
8.300000e-07	-1.888268e-06	-5.757508e-11	-1.473555e+01	8.261521e-01
8.400000e-07	-1.883899e-06	-5.742397e-11	-1.470145e+01	7.751971e-01
8.500000e-07	-1.879495e-06	-6.737124e-11	-1.466708e+01	7.261684e-01
8.600000e-07	-1.875044e-06	-7.250495e-11	-1.463235e+01	6.798189e-01
8.700000e-07	-1.870544e-06	-6.227518e-11	-1.459724e+01	6.368299e-01
8.800000e-07	-1.865986e-06	-4.582387e-11	-1.456167e+01	5.977731e-01
8.900000e-07	-1.861380e-06	-5.450368e-11	-1.452572e+01	5.630782e-01
9.000000e-07	-1.856747e-06	-6.532716e-11	-1.448957e+01	5.330071e-01
9.100000e-07	-1.852076e-06	-6.917613e-11	-1.445312e+01	5.076372e-01
9.200000e-07	-1.847351e-06	-5.780394e-11	-1.441624e+01	4.868540e-01
9.300000e-07	-1.842580e-06	-5.860065e-11	-1.437901e+01	4.703551e-01
9.400000e-07	-1.837766e-06	-7.319283e-11	-1.434145e+01	4.576642e-01
9.500000e-07	-1.832893e-06	-7.158815e-11	-1.430341e+01	4.481548e-01
9.600000e-07	-1.827972e-06	-6.014156e-11	-1.426501e+01	4.410836e-01
9.700000e-07	-1.822993e-06	-4.725832e-11	-1.422616e+01	4.356295e-01
9.800000e-07	-1.817946e-06	-5.282814e-11	-1.418677e+01	4.309386e-01
9.900000e-07	-1.812831e-06	-5.594951e-11	-1.414686e+01	4.261701e-01
1.000000e-06	-1.807656e-06	-4.655336e-11	-1.410648e+01	4.205425e-01
1.010000e-06	-1.802446e-06	-3.736070e-11	-1.406582e+01	4.133758e-01
1.020000e-06	-1.797168e-06	-4.071242e-11	-1.402463e+01	4.041282e-01
1.030000e-06	-1.791827e-06	-5.711660e-11	-1.398295e+01	3.924246e-01
1.040000e-06	-1.786443e-06	-5.968443e-11	-1.394094e+01	3.780743e-01
1.050000e-06	-1.781010e-06	-5.484203e-11	-1.389854e+01	3.610792e-01
1.060000e-06	-1.775531e-06	-4.807841e-11	-1.385578e+01	3.416281e-01
1.070000e-06	-1.770005e-06	-4.606522e-11	-1.381265e+01	3.200817e-01
1.080000e-06	-1.764437e-06	-4.372403e-11	-1.376920e+01	2.969450e-01
1.090000e-06	-1.758837e-06	-3.296132e-11	-1.372550e+01	2.728318e-01
1.100000e-06	-1.753196e-06	-3.308123e-11	-1.368149e+01	2.484216e-01
1.110000e-06	-1.747506e-06	-3.804701e-11	-1.363708e+01	2.244125e-01
1.120000e-06	-1.741780e-06	-4.431835e-11	-1.359239e+01	2.014719e-01
1.130000e-06	-1.736011e-06	-4.179139e-11	-1.354737e+01	1.801897e-01
1.140000e-06	-1.730187e-06	-3.841042e-11	-1.350193e+01	1.610348e-01
1.150000e-06	-1.724312e-06	-4.201363e-11	-1.345608e+01	1.443193e-01
1.160000e-06	-1.718379e-06	-4.040612e-11	-1.340978e+01	1.301726e-01
1.170000e-06	-1.712398e-06	-3.492446e-11	-1.336311e+01	1.185258e-01
1.180000e-06	-1.706358e-06	-2.493604e-11	-1.331597e+01	1.091093e-01
1.190000e-06	-1.700273e-06	-2.441775e-11	-1.326849e+01	1.014627e-01
1.200000e-06	-1.694162e-06	-3.038612e-11	-1.322080e+01	9.495702e-02
1.210000e-06	-1.688009e-06	-3.727729e-11	-1.317278e+01	8.882794e-02
1.220000e-06	-1.681814e-06	-4.108181e-11	-1.312444e+01	8.221857e-02
1.230000e-06	-1.675589e-06	-4.158923e-11	-1.307586e+01	7.422874e-02
1.240000e-06	-1.669322e-06	-4.470586e-11	-1.302695e+01	6.396823e-02
1.250000e-06	-1.663014e-06	-3.990879e-11	-1.297772e+01	5.061077e-02
1.260000e-06	-1.656670e-06	-3.094297e-11	-1.292822e+01	3.344539e-02
1.270000e-06	-1.650280e-06	-2.167034e-11	-1.287835e+01	1.192222e-02
1.280000e-06	-1.643853e-06	-1.801772e-11	-1.282820e+01	-1.431030e-02
1.290000e-06	-1.637392e-06	-2.462891e-11	-1.277778e+01	-4.537903e-02
1.300000e-06	-1.630876e-06	-3.123732e-11	-1.272693e+01	-8.117215e-02
1.310000e-06	-1.624321e-06	-3.632303e-11	-1.267578e+01	-1.213389e-01
1.320000e-06	-1.617735e-06	-3.850234e-11	-1.262438e+01	-1.653026e-01
1.330000e-06	-1.611103e-06	-4.008921e-11	-1.257263e+01	-2.122873e-01
1.340000e-06	-1.604420e-06	-3.626062e-11	-1.252047e+01	-2.613551e-01
1.350000e-06	-1.597681e-06	-2.957882e-11	-1.246788e+01	-3.114538e-01
1.360000e-06	-1.590891e-06	-2.839805e-11	-1.241490e+01	-3.614704e-01
1.370000e-06	-1.584056e-06	-2.973745e-11	-1.236156e+01	-4.102886e-01
1.380000e-06	-1.577190e-06	-3.127207e-11	-1.230798e+01	-4.568466e-01
1.390000e-06	-1.570300e-06	-2.570158e-11	-1.225421e+01	-5.001910e-01
1.400000e-06	-1.563372e-06	-2.218363e-11	-1.220014e+01	-5.395254e-01
1.410000e-06	-1.556393e-06	-2.385714e-11	-1.214569e+01	-5.742486e-01
1.420000e-06	-1.549373e-06	-2.889209e-11	-1.209090e+01	-6.039820e-01
1.430000e-06	-1.542335e-06	-3.440013e-11	-1.203598e+01	-6.285838e-01
1.440000e-06	-1.535267e-06	-3.682653e-11	-1.198082e+01	-6.481497e-01
1.450000e-06	-1.528141e-06	-4.097341e-11	-1.192522e+01	-6.629985e-01
1.460000e-06	-1.520967e-06	-3.899698e-11	-1.186923e+01	-6.736469e-01
1.470000e-06	-1.513760e-06	-3.620901e-11	-1.181299e+01	-6.807709e-01
1.480000e-06	-1.506517e-06	-3.237333e-11	-1.175647e+01	-6.851600e-01
1.490000e-06	-1.499249e-06	-2.925175e-11	-1.169975e+01	-6.876645e-01
1.500000e-06	-1.491955e-06	-3.494716e-11	-1.164282e+01	-6.891402e-01
1.510000e-06	-1.484620e-06	-4.268129e-11	-1.158559e+01	-6.903944e-01
1.520000e-06	-1.477256e-06	-4.942601e-11	-1.152812e+01	-6.921351e-01
1.530000e-06	-1.469840e-06	-4.756530e-11	-1.147025e+01	-6.949279e-01
1.540000e-06	-1.462359e-06	-4.396358e-11	-1.141186e+01	-6.991630e-01
1.550000e-06	-1.454835e-06	-4.370230e-11	-1.135315e+01	-7.050333e-01
1.560000e-06	-1.447258e-06	-4.334242e-11	-1.129403e+01	-7.125264e-01
1.570000e-06	-1.439624e-06	-4.130046e-11	-1.123445e+01	-7.214303e-01
1.580000e-06	-1.431947e-06	-3.695201e-11	-1.117454e+01	-7.313516e-01
1.590000e-06	-1.424235e-06	-3.732396e-11	-1.111436e+01	-7.417472e-01
1.600000e-06	-1.416487e-06	-3.678060e-11	-1.105390e+01	-7.519648e-01
1.610000e-06	-1.408707e-06	-3.758398e-11	-1.099318e+01	-7.612915e-01
1.620000e-06	-1.400894e-06	-4.193567e-11	-1.093221e+01	-7.690075e-01
1.630000e-06	-1.393045e-06	-4.890734e-11	-1.087096e+01	-7.744395e-01
1.640000e-06	-1.385148e-06	-5.652991e-11	-1.080933e+01	-7.770131e-01
1.650000e-06	-1.377190e-06	-5.880526e-11	-1.074723e+01	-7.762990e-01
1.660000e-06	-1.369198e-06	-5.665708e-11	-1.068486e+01	-7.720500e-01
1.670000e-06	-1.361185e-06	-4.938446e-11	-1.062233e+01	-7.642278e-01
1.680000e-06	-1.353138e-06	-4.299901e-11	-1.055954e+01	-7.530166e-01
1.690000e-06	-1.345032e-06	-3.996220e-11	-1.049628e+01	-7.388221e-01
1.700000e-06	-1.336872e-06	-4.191655e-11	-1.043260e+01	-7.222580e-01
1.710000e-06	-1.328682e-06	-4.963962e-11	-1.036869e+01	-7.041174e-01
1.720000e-06	-1.320467e-06	-5.641062e-11	-1.030458e+01	-6.853338e-01
1.730000e-06	-1.312226e-06	-5.990611e-11	-1.024027e+01	-6.669324e-01
1.740000e-06	-1.303959e-06	-5.557956e-11	-1.017576e+01	-6.499739e-01
1.750000e-06	-1.295662e-06	-5.055120e-11	-1.011100e+01	-6.354965e-01
1.760000e-06	-1.287343e-06	-4.808762e-11	-1.004608e+01	-6.244566e-01
1.770000e-06	-1.278991e-06	-4.797823e-11	-9.980910e+00	-6.176744e-01
1.780000e-06	-1.270591e-06	-5.194706e-11	-9.915357e+00	-6.157859e-01
1.790000e-06	-1.262156e-06	-5.504303e-11	-9.849535e+00	-6.192051e-01
1.800000e-06	-1.253702e-06	-5.831319e-11	-9.783566e+00	-6.280980e-01
1.810000e-06	-1.245226e-06	-5.902198e-11	-9.717416e+00	-6.423712e-01
1.820000e-06	-1.236727e-06	-5.717756e-11	-9.651091e+00	-6.616743e-01
1.830000e-06	-1.228201e-06	-5.422699e-11	-9.584560e+00	-6.854173e-01
1.840000e-06	-1.219642e-06	-5.254381e-11	-9.517770e+00	-7.128012e-01
1.850000e-06	-1.211067e-06	-5.419085e-11	-9.450852e+00	-7.428602e-01
1.860000e-06	-1.202465e-06	-5.540495e-11	-9.383723e+00	-7.745139e-01
1.870000e-06	-1.193823e-06	-5.638854e-11	-9.316281e+00	-8.066247e-01
1.880000e-06	-1.185154e-06	-5.610041e-11	-9.248632e+00	-8.380587e-01
1.890000e-06	-1.176459e-06	-5.539881e-11	-9.180776e+00	-8.677461e-01
1.900000e-06	-1.167739e-06	-5.558791e-11	-9.112727e+00	-8.947367e-01
1.910000e-06	-1.158987e-06	-5.546408e-11	-9.044435e+00	-9.182488e-01
1.920000e-06	-1.150201e-06	-5.640773e-11	-8.975871e+00	-9.377079e-01
1.930000e-06	-1.141391e-06	-5.603206e-11	-8.907118e+00	-9.527726e-01
1.940000e-06	-1.132554e-06	-6.066038e-11	-8.838154e+00	-9.633475e-01
1.950000e-06	-1.123692e-06	-6.605626e-11	-8.768996e+00	-9.695819e-01
1.960000e-06	-1.114817e-06	-6.757575e-11	-8.699737e+00	-9.718536e-01
1.970000e-06	-1.105919e-06	-6.579643e-11	-8.630301e+00	-9.707417e-01
1.980000e-06	-1.096996e-06	-5.950030e-11	-8.560672e+00	-9.669866e-01
1.990000e-06	-1.088055e-06	-5.347519e-11	-8.490894e+00	-9.614426e-01
2.000000e-06	-1.079079e-06	-4.872935e-11	-8.420851e+00	-9.550247e-01
2.010000e-06	-1.070069e-06	-4.798475e-11	-8.350535e+00	-9.486535e-01
2.020000e-06	-1.061012e-06	-4.910898e-11	-8.279857e+00	-9.432003e-01
2.030000e-06	-1.051916e-06	-5.184668e-11	-8.208878e+00	-9.394376e-01
2.040000e-06	-1.042801e-06	-5.502378e-11	-8.137747e+00	-9.379962e-01
2.050000e-06	-1.033633e-06	-5.650935e-11	-8.066202e+00	-9.393321e-01
2.060000e-06	-1.024405e-06	-5.433213e-11	-7.994185e+00	-9.437054e-01
2.070000e-06	-1.015149e-06	-4.734760e-11	-7.921955e+00	-9.511705e-01
2.080000e-06	-1.005878e-06	-4.216996e-11	-7.849609e+00	-9.615812e-01
2.090000e-06	-9.965977e-07	-4.035889e-11	-7.777187e+00	-9.746057e-01
2.100000e-06	-9.873054e-07	-3.982707e-11	-7.704673e+00	-9.897553e-01
2.110000e-06	-9.779961e-07	-3.937307e-11	-7.632025e+00	-1.006420e+00
2.120000e-06	-9.686684e-07	-4.143552e-11	-7.559234e+00	-1.023912e+00
2.130000e-06	-9.593160e-07	-4.673266e-11	-7.486251e+00	-1.041514e+00
2.140000e-06	-9.499281e-07	-4.802509e-11	-7.412990e+00	-1.058525e+00
2.150000e-06	-9.405018e-07	-4.661115e-11	-7.339430e+00	-1.074310e+00
2.160000e-06	-9.310555e-07	-4.598261e-11	-7.265713e+00	-1.088335e+00
2.170000e-06	-9.216048e-07	-4.380557e-11	-7.191963e+00	-1.100206e+00
2.180000e-06	-9.121420e-07	-3.821977e-11	-7.118118e+00	-1.109690e+00
2.190000e-06	-9.026555e-07	-3.218279e-11	-7.044087e+00	-1.116728e+00
2.200000e-06	-8.931454e-07	-3.410196e-11	-6.969873e+00	-1.121437e+00
2.210000e-06	-8.836002e-07	-4.026936e-11	-6.895385e+00	-1.124098e+00
2.220000e-06	-8.740275e-07	-4.478532e-11	-6.820682e+00	-1.125137e+00
2.230000e-06	-8.644360e-07	-4.470566e-11	-6.745832e+00	-1.125094e+00
2.240000e-06	-8.548003e-07	-4.114564e-11	-6.670638e+00	-1.124588e+00
2.250000e-06	-8.451543e-07	-4.252048e-11	-6.595363e+00	-1.124272e+00
2.260000e-06	-8.355109e-07	-4.372571e-11	-6.520108e+00	-1.124790e+00
2.270000e-06	-8.258416e-07	-4.114599e-11	-6.444652e+00	-1.126736e+00
2.280000e-06	-8.161576e-07	-3.706346e-11	-6.369080e+00	-1.130614e+00
2.290000e-06	-8.064660e-07	-3.599941e-11	-6.293449e+00	-1.136802e+00
2.300000e-06	-7.967624e-07	-3.833024e-11	-6.217725e+00	-1.145532e+00
2.310000e-06	-7.870402e-07	-3.933241e-11	-6.141856e+00	-1.156871e+00
2.320000e-06	-7.773013e-07	-4.064291e-11	-6.065856e+00	-1.170717e+00
2.330000e-06	-7.675461e-07	-4.308093e-11	-5.989729e+00	-1.186807e+00
2.340000e-06	-7.577637e-07	-4.754598e-11	-5.913389e+00	-1.204730e+00
2.350000e-06	-7.479445e-07	-4.865858e-11	-5.836763e+00	-1.223955e+00
2.360000e-06	-7.380907e-07	-4.405414e-11	-5.759867e+00	-1.243862e+00
2.370000e-06	-7.282153e-07	-3.766207e-11	-5.682802e+00	-1.263784e+00
2.380000e-06	-7.183098e-07	-3.277575e-11	-5.605502e+00	-1.283044e+00
2.390000e-06	-7.083504e-07	-3.061155e-11	-5.527782e+00	-1.300998e+00
2.400000e-06	-6.983581e-07	-2.814194e-11	-5.449803e+00	-1.317076e+00
2.410000e-06	-6.883516e-07	-2.621700e-11	-5.371716e+00	-1.330812e+00
2.420000e-06	-6.783364e-07	-2.816972e-11	-5.293560e+00	-1.341877e+00
2.430000e-06	-6.683111e-07	-3.339938e-11	-5.215325e+00	-1.350094e+00
2.440000e-06	-6.582601e-07	-3.647349e-11	-5.136890e+00	-1.355449e+00
2.450000e-06	-6.481973e-07	-3.445610e-11	-5.058362e+00	-1.358090e+00
2.460000e-06	-6.381270e-07	-3.198556e-11	-4.979776e+00	-1.358317e+00
2.470000e-06	-6.280491e-07	-2.971678e-11	-4.901131e+00	-1.356560e+00
2.480000e-06	-6.179663e-07	-2.608780e-11	-4.822447e+00	-1.353357e+00
2.490000e-06	-6.078687e-07	-2.142677e-11	-4.743648e+00	-1.349316e+00
2.500000e-06	-5.977644e-07	-1.838257e-11	-4.664797e+00	-1.345080e+00
2.510000e-06	-5.876524e-07	-1.766449e-11	-4.585885e+00	-1.341289e+00
2.520000e-06	-5.775234e-07	-1.686143e-11	-4.506842e+00	-1.338544e+00
2.530000e-06	-5.673865e-07	-1.990679e-11	-4.427736e+00	-1.337369e+00
2.540000e-06	-5.572313e-07	-2.413182e-11	-4.348488e+00	-1.338188e+00
2.550000e-06	-5.470450e-07	-2.759510e-11	-4.268996e+00	-1.341301e+00
2.560000e-06	-5.368393e-07	-3.215882e-11	-4.189354e+00	-1.346872e+00
2.570000e-06	-5.266258e-07	-3.165413e-11	-4.109650e+00	-1.354924e+00
2.580000e-06	-5.164072e-07	-2.611992e-11	-4.029906e+00	-1.365344e+00
2.590000e-06	-5.061659e-07	-1.959490e-11	-3.949986e+00	-1.377898e+00
2.600000e-06	-4.959090e-07	-1.337894e-11	-3.869944e+00	-1.392249e+00
2.610000e-06	-4.856526e-07	-1.184281e-11	-3.789906e+00	-1.407986e+00
2.620000e-06	-4.753874e-07	-1.407640e-11	-3.709799e+00	-1.424654e+00
2.630000e-06	-4.651052e-07	-1.658375e-11	-3.629559e+00	-1.441784e+00
2.640000e-06	-4.548107e-07	-1.926321e-11	-3.549224e+00	-1.458925e+00
2.650000e-06	-4.445019e-07	-2.691859e-11	-3.468777e+00	-1.475677e+00
2.660000e-06	-4.341731e-07	-3.314118e-11	-3.388173e+00	-1.491708e+00
2.670000e-06	-4.238312e-07	-2.891664e-11	-3.307468e+00	-1.506783e+00
2.680000e-06	-4.134803e-07	-2.074651e-11	-3.226692e+00	-1.520764e+00
2.690000e-06	-4.031310e-07	-1.472266e-11	-3.145929e+00	-1.533624e+00
2.700000e-06	-3.927841e-07	-1.411616e-11	-3.065184e+00	-1.545433e+00
2.710000e-06	-3.824175e-07	-1.734159e-11	-2.984286e+00	-1.556355e+00
2.720000e-06	-3.720413e-07	-1.963232e-11	-2.903313e+00	-1.566624e+00
2.730000e-06	-3.616602e-07	-2.173313e-11	-2.822301e+00	-1.576519e+00
2.740000e-06	-3.512463e-07	-2.661803e-11	-2.741034e+00	-1.586342e+00
2.750000e-06	-3.408233e-07	-3.180512e-11	-2.659696e+00	-1.596388e+00
2.760000e-06	-3.304032e-07	-2.964756e-11	-2.578380e+00	-1.606915e+00
2.770000e-06	-3.199706e-07	-2.348630e-11	-2.496967e+00	-1.618119e+00
2.780000e-06	-3.095343e-07	-1.934851e-11	-2.415525e+00	-1.630118e+00
2.790000e-06	-2.990902e-07	-1.457871e-11	-2.334021e+00	-1.642930e+00
2.800000e-06	-2.886317e-07	-9.151082e-12	-2.252406e+00	-1.656473e+00
2.810000e-06	-2.781754e-07	-4.968326e-12	-2.170808e+00	-1.670561e+00
2.820000e-06	-2.677232e-07	-6.813190e-12	-2.089242e+00	-1.684913e+00
2.830000e-06	-2.572624e-07	-1.311689e-11	-2.007608e+00	-1.699170e+00
2.840000e-06	-2.467898e-07	-1.902710e-11	-1.925883e+00	-1.712917e+00
2.850000e-06	-2.363173e-07	-2.339825e-11	-1.844158e+00	-1.725710e+00
2.860000e-06	-2.258521e-07	-2.564446e-11	-1.762491e+00	-1.737109e+00
2.870000e-06	-2.153831e-07	-2.553170e-11	-1.680793e+00	-1.746707e+00
