# Temperatura_=_20.0
# Concentracion g/m^3_=_10000.0
# C_Vs_to_Am_M_A/Vsm_=_65563218390.804596
# pendiente_HvsI_1/m_=_3716.3
# ordenada_HvsI_A/m_=_1297.0
# frecuencia_Hz_=_81139.45504267266

Tiempo_(s)	Campo_(V.s)	Magnetizacion_(V.s)	Campo_(kA/m)	Magnetizacion_(A/m)
0.000000e+00	-2.074368e-06	-4.397748e-09	-1.614784e+01	-2.904721e+02
1.000000e-08	-2.074351e-06	-4.396284e-09	-1.614771e+01	-2.905179e+02
2.000000e-08	-2.074364e-06	-4.378813e-09	-1.614781e+01	-2.905635e+02
3.000000e-08	-2.074355e-06	-4.412979e-09	-1.614774e+01	-2.906104e+02
4.000000e-08	-2.074260e-06	-4.468452e-09	-1.614700e+01	-2.906601e+02
5.000000e-08	-2.074064e-06	-4.418513e-09	-1.614548e+01	-2.907139e+02
6.000000e-08	-2.073804e-06	-4.381251e-09	-1.614345e+01	-2.907727e+02
7.000000e-08	-2.073477e-06	-4.395492e-09	-1.614090e+01	-2.908376e+02
8.000000e-08	-2.073096e-06	-4.441161e-09	-1.613794e+01	-2.909093e+02
9.000000e-08	-2.072656e-06	-4.386804e-09	-1.613451e+01	-2.909883e+02
1.000000e-07	-2.072194e-06	-4.352936e-09	-1.613092e+01	-2.910750e+02
1.100000e-07	-2.071728e-06	-4.415247e-09	-1.612729e+01	-2.911695e+02
1.200000e-07	-2.071185e-06	-4.440266e-09	-1.612307e+01	-2.912715e+02
1.300000e-07	-2.070569e-06	-4.454353e-09	-1.611827e+01	-2.913806e+02
1.400000e-07	-2.069891e-06	-4.407106e-09	-1.611299e+01	-2.914962e+02
1.500000e-07	-2.069175e-06	-4.409957e-09	-1.610742e+01	-2.916175e+02
1.600000e-07	-2.068383e-06	-4.421446e-09	-1.610125e+01	-2.917431e+02
1.700000e-07	-2.067527e-06	-4.424190e-09	-1.609459e+01	-2.918720e+02
1.800000e-07	-2.066655e-06	-4.436685e-09	-1.608780e+01	-2.920024e+02
1.900000e-07	-2.065728e-06	-4.388664e-09	-1.608058e+01	-2.921329e+02
2.000000e-07	-2.064746e-06	-4.409616e-09	-1.607294e+01	-2.922617e+02
2.100000e-07	-2.063687e-06	-4.412375e-09	-1.606470e+01	-2.923869e+02
2.200000e-07	-2.062579e-06	-4.443278e-09	-1.605607e+01	-2.925069e+02
2.300000e-07	-2.061408e-06	-4.447402e-09	-1.604696e+01	-2.926197e+02
2.400000e-07	-2.060166e-06	-4.424876e-09	-1.603729e+01	-2.927238e+02
2.500000e-07	-2.058889e-06	-4.449525e-09	-1.602735e+01	-2.928175e+02
2.600000e-07	-2.057541e-06	-4.438814e-09	-1.601685e+01	-2.928993e+02
2.700000e-07	-2.056135e-06	-4.450212e-09	-1.600591e+01	-2.929681e+02
2.800000e-07	-2.054648e-06	-4.413893e-09	-1.599433e+01	-2.930228e+02
2.900000e-07	-2.053092e-06	-4.407292e-09	-1.598222e+01	-2.930625e+02
3.000000e-07	-2.051501e-06	-4.424808e-09	-1.596984e+01	-2.930866e+02
3.100000e-07	-2.049853e-06	-4.432512e-09	-1.595701e+01	-2.930948e+02
3.200000e-07	-2.048139e-06	-4.455500e-09	-1.594366e+01	-2.930868e+02
3.300000e-07	-2.046351e-06	-4.431736e-09	-1.592975e+01	-2.930626e+02
3.400000e-07	-2.044523e-06	-4.444201e-09	-1.591552e+01	-2.930226e+02
3.500000e-07	-2.042641e-06	-4.433740e-09	-1.590086e+01	-2.929669e+02
3.600000e-07	-2.040702e-06	-4.428793e-09	-1.588577e+01	-2.928960e+02
3.700000e-07	-2.038711e-06	-4.424162e-09	-1.587027e+01	-2.928105e+02
3.800000e-07	-2.036662e-06	-4.406626e-09	-1.585432e+01	-2.927107e+02
3.900000e-07	-2.034565e-06	-4.424882e-09	-1.583800e+01	-2.925974e+02
4.000000e-07	-2.032418e-06	-4.416797e-09	-1.582128e+01	-2.924709e+02
4.100000e-07	-2.030262e-06	-4.429435e-09	-1.580450e+01	-2.923317e+02
4.200000e-07	-2.028059e-06	-4.416610e-09	-1.578735e+01	-2.921802e+02
4.300000e-07	-2.025797e-06	-4.409268e-09	-1.576974e+01	-2.920165e+02
4.400000e-07	-2.023491e-06	-4.410420e-09	-1.575179e+01	-2.918409e+02
4.500000e-07	-2.021134e-06	-4.394552e-09	-1.573344e+01	-2.916534e+02
4.600000e-07	-2.018732e-06	-4.395751e-09	-1.571474e+01	-2.914539e+02
4.700000e-07	-2.016259e-06	-4.370974e-09	-1.569550e+01	-2.912425e+02
4.800000e-07	-2.013739e-06	-4.375670e-09	-1.567588e+01	-2.910189e+02
4.900000e-07	-2.011183e-06	-4.377119e-09	-1.565598e+01	-2.907830e+02
5.000000e-07	-2.008577e-06	-4.381502e-09	-1.563570e+01	-2.905346e+02
5.100000e-07	-2.005897e-06	-4.385364e-09	-1.561483e+01	-2.902737e+02
5.200000e-07	-2.003142e-06	-4.370092e-09	-1.559338e+01	-2.900003e+02
5.300000e-07	-2.000337e-06	-4.375822e-09	-1.557155e+01	-2.897144e+02
5.400000e-07	-1.997466e-06	-4.363705e-09	-1.554920e+01	-2.894165e+02
5.500000e-07	-1.994542e-06	-4.361211e-09	-1.552644e+01	-2.891067e+02
5.600000e-07	-1.991586e-06	-4.341325e-09	-1.550343e+01	-2.887859e+02
5.700000e-07	-1.988603e-06	-4.325470e-09	-1.548021e+01	-2.884547e+02
5.800000e-07	-1.985568e-06	-4.326403e-09	-1.545658e+01	-2.881141e+02
5.900000e-07	-1.982460e-06	-4.319399e-09	-1.543239e+01	-2.877652e+02
6.000000e-07	-1.979309e-06	-4.324338e-09	-1.540786e+01	-2.874094e+02
6.100000e-07	-1.976117e-06	-4.305180e-09	-1.538301e+01	-2.870479e+02
6.200000e-07	-1.972880e-06	-4.302317e-09	-1.535781e+01	-2.866825e+02
6.300000e-07	-1.969596e-06	-4.303720e-09	-1.533225e+01	-2.863145e+02
6.400000e-07	-1.966251e-06	-4.300687e-09	-1.530621e+01	-2.859455e+02
6.500000e-07	-1.962865e-06	-4.293719e-09	-1.527985e+01	-2.855771e+02
6.600000e-07	-1.959436e-06	-4.274498e-09	-1.525316e+01	-2.852108e+02
6.700000e-07	-1.955922e-06	-4.275158e-09	-1.522581e+01	-2.848478e+02
6.800000e-07	-1.952334e-06	-4.265595e-09	-1.519787e+01	-2.844893e+02
6.900000e-07	-1.948711e-06	-4.259921e-09	-1.516967e+01	-2.841363e+02
7.000000e-07	-1.945040e-06	-4.252470e-09	-1.514109e+01	-2.837896e+02
7.100000e-07	-1.941309e-06	-4.253709e-09	-1.511205e+01	-2.834495e+02
7.200000e-07	-1.937541e-06	-4.261869e-09	-1.508272e+01	-2.831164e+02
7.300000e-07	-1.933744e-06	-4.249778e-09	-1.505316e+01	-2.827901e+02
7.400000e-07	-1.929895e-06	-4.241676e-09	-1.502319e+01	-2.824705e+02
7.500000e-07	-1.925985e-06	-4.229905e-09	-1.499276e+01	-2.821568e+02
7.600000e-07	-1.922031e-06	-4.231036e-09	-1.496198e+01	-2.818484e+02
7.700000e-07	-1.918021e-06	-4.227916e-09	-1.493076e+01	-2.815441e+02
7.800000e-07	-1.913953e-06	-4.218170e-09	-1.489910e+01	-2.812429e+02
7.900000e-07	-1.909853e-06	-4.214250e-09	-1.486718e+01	-2.809433e+02
8.000000e-07	-1.905724e-06	-4.204762e-09	-1.483504e+01	-2.806440e+02
8.100000e-07	-1.901543e-06	-4.206313e-09	-1.480249e+01	-2.803434e+02
8.200000e-07	-1.897312e-06	-4.198768e-09	-1.476956e+01	-2.800401e+02
8.300000e-07	-1.893026e-06	-4.195124e-09	-1.473620e+01	-2.797324e+02
8.400000e-07	-1.888657e-06	-4.193715e-09	-1.470218e+01	-2.794189e+02
8.500000e-07	-1.884220e-06	-4.192019e-09	-1.466764e+01	-2.790984e+02
8.600000e-07	-1.879737e-06	-4.188338e-09	-1.463274e+01	-2.787695e+02
8.700000e-07	-1.875217e-06	-4.170210e-09	-1.459756e+01	-2.784311e+02
8.800000e-07	-1.870667e-06	-4.164129e-09	-1.456214e+01	-2.780823e+02
8.900000e-07	-1.866063e-06	-4.159471e-09	-1.452630e+01	-2.777223e+02
9.000000e-07	-1.861408e-06	-4.158822e-09	-1.449006e+01	-2.773506e+02
9.100000e-07	-1.856705e-06	-4.151720e-09	-1.445345e+01	-2.769667e+02
9.200000e-07	-1.851960e-06	-4.141624e-09	-1.441651e+01	-2.765705e+02
9.300000e-07	-1.847177e-06	-4.139968e-09	-1.437928e+01	-2.761619e+02
9.400000e-07	-1.842341e-06	-4.133012e-09	-1.434163e+01	-2.757411e+02
9.500000e-07	-1.837467e-06	-4.129201e-09	-1.430370e+01	-2.753082e+02
9.600000e-07	-1.832554e-06	-4.118911e-09	-1.426545e+01	-2.748637e+02
9.700000e-07	-1.827589e-06	-4.112411e-09	-1.422680e+01	-2.744080e+02
9.800000e-07	-1.822562e-06	-4.104610e-09	-1.418767e+01	-2.739417e+02
9.900000e-07	-1.817470e-06	-4.091524e-09	-1.414803e+01	-2.734653e+02
1.000000e-06	-1.812315e-06	-4.080205e-09	-1.410790e+01	-2.729795e+02
1.010000e-06	-1.807071e-06	-4.065109e-09	-1.406708e+01	-2.724848e+02
1.020000e-06	-1.801766e-06	-4.060777e-09	-1.402578e+01	-2.719818e+02
1.030000e-06	-1.796415e-06	-4.053917e-09	-1.398413e+01	-2.714710e+02
1.040000e-06	-1.791028e-06	-4.046913e-09	-1.394219e+01	-2.709527e+02
1.050000e-06	-1.785596e-06	-4.041017e-09	-1.389991e+01	-2.704273e+02
1.060000e-06	-1.780099e-06	-4.035405e-09	-1.385711e+01	-2.698950e+02
1.070000e-06	-1.774561e-06	-4.028511e-09	-1.381400e+01	-2.693558e+02
1.080000e-06	-1.768984e-06	-4.009388e-09	-1.377059e+01	-2.688097e+02
1.090000e-06	-1.763372e-06	-3.995741e-09	-1.372690e+01	-2.682566e+02
1.100000e-06	-1.757720e-06	-3.985349e-09	-1.368291e+01	-2.676961e+02
1.110000e-06	-1.752031e-06	-3.977307e-09	-1.363862e+01	-2.671280e+02
1.120000e-06	-1.746311e-06	-3.966054e-09	-1.359409e+01	-2.665516e+02
1.130000e-06	-1.740542e-06	-3.950973e-09	-1.354919e+01	-2.659664e+02
1.140000e-06	-1.734717e-06	-3.944144e-09	-1.350384e+01	-2.653719e+02
1.150000e-06	-1.728831e-06	-3.937763e-09	-1.345803e+01	-2.647675e+02
1.160000e-06	-1.722886e-06	-3.928686e-09	-1.341174e+01	-2.641524e+02
1.170000e-06	-1.716883e-06	-3.910578e-09	-1.336501e+01	-2.635262e+02
1.180000e-06	-1.710825e-06	-3.893305e-09	-1.331785e+01	-2.628882e+02
1.190000e-06	-1.704729e-06	-3.883925e-09	-1.327040e+01	-2.622382e+02
1.200000e-06	-1.698601e-06	-3.875964e-09	-1.322270e+01	-2.615757e+02
1.210000e-06	-1.692439e-06	-3.867826e-09	-1.317473e+01	-2.609006e+02
1.220000e-06	-1.686245e-06	-3.856037e-09	-1.312651e+01	-2.602130e+02
1.230000e-06	-1.680017e-06	-3.849559e-09	-1.307803e+01	-2.595130e+02
1.240000e-06	-1.673740e-06	-3.840903e-09	-1.302917e+01	-2.588011e+02
1.250000e-06	-1.667416e-06	-3.824145e-09	-1.297994e+01	-2.580777e+02
1.260000e-06	-1.661063e-06	-3.804412e-09	-1.293049e+01	-2.573438e+02
1.270000e-06	-1.654681e-06	-3.787522e-09	-1.288081e+01	-2.566003e+02
1.280000e-06	-1.648250e-06	-3.777050e-09	-1.283074e+01	-2.558483e+02
1.290000e-06	-1.641769e-06	-3.764058e-09	-1.278029e+01	-2.550892e+02
1.300000e-06	-1.635250e-06	-3.753336e-09	-1.272954e+01	-2.543245e+02
1.310000e-06	-1.628697e-06	-3.745881e-09	-1.267853e+01	-2.535556e+02
1.320000e-06	-1.622100e-06	-3.740091e-09	-1.262718e+01	-2.527843e+02
1.330000e-06	-1.615460e-06	-3.729730e-09	-1.257549e+01	-2.520120e+02
1.340000e-06	-1.608768e-06	-3.711685e-09	-1.252339e+01	-2.512405e+02
1.350000e-06	-1.602015e-06	-3.697823e-09	-1.247083e+01	-2.504714e+02
1.360000e-06	-1.595208e-06	-3.688211e-09	-1.241784e+01	-2.497061e+02
1.370000e-06	-1.588361e-06	-3.679737e-09	-1.236454e+01	-2.489459e+02
1.380000e-06	-1.581479e-06	-3.661902e-09	-1.231096e+01	-2.481921e+02
1.390000e-06	-1.574552e-06	-3.641168e-09	-1.225704e+01	-2.474458e+02
1.400000e-06	-1.567602e-06	-3.630144e-09	-1.220294e+01	-2.467076e+02
1.410000e-06	-1.560630e-06	-3.621452e-09	-1.214867e+01	-2.459783e+02
1.420000e-06	-1.553616e-06	-3.614515e-09	-1.209406e+01	-2.452581e+02
1.430000e-06	-1.546556e-06	-3.606068e-09	-1.203911e+01	-2.445473e+02
1.440000e-06	-1.539452e-06	-3.601325e-09	-1.198380e+01	-2.438457e+02
1.450000e-06	-1.532310e-06	-3.600077e-09	-1.192821e+01	-2.431530e+02
1.460000e-06	-1.525122e-06	-3.590480e-09	-1.187226e+01	-2.424687e+02
1.470000e-06	-1.517886e-06	-3.570283e-09	-1.181593e+01	-2.417921e+02
1.480000e-06	-1.510619e-06	-3.545099e-09	-1.175936e+01	-2.411224e+02
1.490000e-06	-1.503322e-06	-3.530198e-09	-1.170255e+01	-2.404587e+02
1.500000e-06	-1.495996e-06	-3.523925e-09	-1.164553e+01	-2.397997e+02
1.510000e-06	-1.488636e-06	-3.518385e-09	-1.158823e+01	-2.391445e+02
1.520000e-06	-1.481241e-06	-3.516085e-09	-1.153067e+01	-2.384918e+02
1.530000e-06	-1.473800e-06	-3.512268e-09	-1.147274e+01	-2.378404e+02
1.540000e-06	-1.466284e-06	-3.504220e-09	-1.141424e+01	-2.371890e+02
1.550000e-06	-1.458710e-06	-3.489486e-09	-1.135527e+01	-2.365365e+02
1.560000e-06	-1.451108e-06	-3.472472e-09	-1.129610e+01	-2.358818e+02
1.570000e-06	-1.443462e-06	-3.459408e-09	-1.123658e+01	-2.352236e+02
1.580000e-06	-1.435765e-06	-3.447958e-09	-1.117666e+01	-2.345611e+02
1.590000e-06	-1.428042e-06	-3.438225e-09	-1.111654e+01	-2.338932e+02
1.600000e-06	-1.420296e-06	-3.428271e-09	-1.105624e+01	-2.332190e+02
1.610000e-06	-1.412502e-06	-3.419710e-09	-1.099557e+01	-2.325378e+02
1.620000e-06	-1.404672e-06	-3.409796e-09	-1.093461e+01	-2.318487e+02
1.630000e-06	-1.396808e-06	-3.397411e-09	-1.087340e+01	-2.311511e+02
1.640000e-06	-1.388900e-06	-3.387443e-09	-1.081184e+01	-2.304445e+02
1.650000e-06	-1.380964e-06	-3.379037e-09	-1.075006e+01	-2.297282e+02
1.660000e-06	-1.372990e-06	-3.369556e-09	-1.068799e+01	-2.290019e+02
1.670000e-06	-1.364973e-06	-3.353572e-09	-1.062558e+01	-2.282652e+02
1.680000e-06	-1.356909e-06	-3.335029e-09	-1.056281e+01	-2.275176e+02
1.690000e-06	-1.348790e-06	-3.318374e-09	-1.049960e+01	-2.267591e+02
1.700000e-06	-1.340618e-06	-3.305982e-09	-1.043599e+01	-2.259893e+02
1.710000e-06	-1.332411e-06	-3.297232e-09	-1.037210e+01	-2.252082e+02
1.720000e-06	-1.324180e-06	-3.284773e-09	-1.030803e+01	-2.244156e+02
1.730000e-06	-1.315926e-06	-3.271828e-09	-1.024377e+01	-2.236116e+02
1.740000e-06	-1.307647e-06	-3.258244e-09	-1.017933e+01	-2.227962e+02
1.750000e-06	-1.299338e-06	-3.245891e-09	-1.011465e+01	-2.219695e+02
1.760000e-06	-1.290990e-06	-3.231337e-09	-1.004967e+01	-2.211317e+02
1.770000e-06	-1.282608e-06	-3.214020e-09	-9.984418e+00	-2.202829e+02
1.780000e-06	-1.274197e-06	-3.199987e-09	-9.918938e+00	-2.194235e+02
1.790000e-06	-1.265743e-06	-3.189175e-09	-9.853129e+00	-2.185537e+02
1.800000e-06	-1.257262e-06	-3.181025e-09	-9.787111e+00	-2.176739e+02
1.810000e-06	-1.248772e-06	-3.167676e-09	-9.721017e+00	-2.167844e+02
1.820000e-06	-1.240258e-06	-3.153474e-09	-9.654743e+00	-2.158855e+02
1.830000e-06	-1.231716e-06	-3.140484e-09	-9.588247e+00	-2.149777e+02
1.840000e-06	-1.223154e-06	-3.124516e-09	-9.521600e+00	-2.140613e+02
1.850000e-06	-1.214567e-06	-3.106330e-09	-9.454749e+00	-2.131367e+02
1.860000e-06	-1.205942e-06	-3.085767e-09	-9.387610e+00	-2.122042e+02
1.870000e-06	-1.197289e-06	-3.070561e-09	-9.320250e+00	-2.112641e+02
1.880000e-06	-1.188615e-06	-3.060082e-09	-9.252731e+00	-2.103168e+02
1.890000e-06	-1.179905e-06	-3.046737e-09	-9.184924e+00	-2.093626e+02
1.900000e-06	-1.171150e-06	-3.030696e-09	-9.116770e+00	-2.084017e+02
1.910000e-06	-1.162367e-06	-3.014899e-09	-9.048400e+00	-2.074346e+02
1.920000e-06	-1.153562e-06	-3.002477e-09	-8.979863e+00	-2.064614e+02
1.930000e-06	-1.144730e-06	-2.988025e-09	-8.911107e+00	-2.054827e+02
1.940000e-06	-1.135867e-06	-2.970521e-09	-8.842114e+00	-2.044988e+02
1.950000e-06	-1.126978e-06	-2.955940e-09	-8.772919e+00	-2.035101e+02
1.960000e-06	-1.118067e-06	-2.945871e-09	-8.703550e+00	-2.025171e+02
1.970000e-06	-1.109147e-06	-2.937424e-09	-8.634117e+00	-2.015206e+02
1.980000e-06	-1.100224e-06	-2.923694e-09	-8.564656e+00	-2.005211e+02
1.990000e-06	-1.091286e-06	-2.904667e-09	-8.495072e+00	-1.995195e+02
2.000000e-06	-1.082301e-06	-2.882684e-09	-8.425134e+00	-1.985165e+02
2.010000e-06	-1.073265e-06	-2.862718e-09	-8.354793e+00	-1.975132e+02
2.020000e-06	-1.064196e-06	-2.845096e-09	-8.284193e+00	-1.965104e+02
2.030000e-06	-1.055074e-06	-2.827606e-09	-8.213182e+00	-1.955093e+02
2.040000e-06	-1.045890e-06	-2.816697e-09	-8.141689e+00	-1.945109e+02
2.050000e-06	-1.036661e-06	-2.810817e-09	-8.069853e+00	-1.935163e+02
2.060000e-06	-1.027409e-06	-2.804570e-09	-7.997825e+00	-1.925263e+02
2.070000e-06	-1.018144e-06	-2.790015e-09	-7.925701e+00	-1.915420e+02
2.080000e-06	-1.008862e-06	-2.766674e-09	-7.853447e+00	-1.905641e+02
2.090000e-06	-9.995648e-07	-2.743563e-09	-7.781075e+00	-1.895933e+02
2.100000e-06	-9.902520e-07	-2.722726e-09	-7.708580e+00	-1.886301e+02
2.110000e-06	-9.809228e-07	-2.705966e-09	-7.635957e+00	-1.876747e+02
2.120000e-06	-9.715693e-07	-2.692458e-09	-7.563145e+00	-1.867272e+02
2.130000e-06	-9.621898e-07	-2.683153e-09	-7.490131e+00	-1.857874e+02
2.140000e-06	-9.527860e-07	-2.675630e-09	-7.416928e+00	-1.848548e+02
2.150000e-06	-9.433510e-07	-2.665867e-09	-7.343481e+00	-1.839286e+02
2.160000e-06	-9.339078e-07	-2.651698e-09	-7.269971e+00	-1.830081e+02
2.170000e-06	-9.244572e-07	-2.632739e-09	-7.196403e+00	-1.820918e+02
2.180000e-06	-9.149744e-07	-2.612435e-09	-7.122584e+00	-1.811786e+02
2.190000e-06	-9.054628e-07	-2.594017e-09	-7.048542e+00	-1.802667e+02
2.200000e-06	-8.959099e-07	-2.581723e-09	-6.974178e+00	-1.793547e+02
2.210000e-06	-8.863328e-07	-2.570321e-09	-6.899625e+00	-1.784407e+02
2.220000e-06	-8.767406e-07	-2.556835e-09	-6.824955e+00	-1.775229e+02
2.230000e-06	-8.671186e-07	-2.542393e-09	-6.750053e+00	-1.765997e+02
2.240000e-06	-8.574811e-07	-2.528076e-09	-6.675030e+00	-1.756694e+02
2.250000e-06	-8.478248e-07	-2.517794e-09	-6.599861e+00	-1.747304e+02
2.260000e-06	-8.381457e-07	-2.507491e-09	-6.524515e+00	-1.737814e+02
2.270000e-06	-8.284520e-07	-2.492572e-09	-6.449054e+00	-1.728212e+02
2.280000e-06	-8.187534e-07	-2.474890e-09	-6.373556e+00	-1.718488e+02
2.290000e-06	-8.090369e-07	-2.459092e-09	-6.297918e+00	-1.708634e+02
2.300000e-06	-7.992989e-07	-2.444586e-09	-6.222113e+00	-1.698645e+02
2.310000e-06	-7.895378e-07	-2.427122e-09	-6.146128e+00	-1.688520e+02
2.320000e-06	-7.797650e-07	-2.409854e-09	-6.070052e+00	-1.678257e+02
2.330000e-06	-7.699839e-07	-2.397977e-09	-5.993912e+00	-1.667857e+02
2.340000e-06	-7.601773e-07	-2.389248e-09	-5.917572e+00	-1.657324e+02
2.350000e-06	-7.503399e-07	-2.377053e-09	-5.840993e+00	-1.646663e+02
2.360000e-06	-7.404603e-07	-2.359269e-09	-5.764086e+00	-1.635879e+02
2.370000e-06	-7.305441e-07	-2.337866e-09	-5.686893e+00	-1.624977e+02
2.380000e-06	-7.205931e-07	-2.316811e-09	-5.609430e+00	-1.613965e+02
2.390000e-06	-7.105980e-07	-2.300520e-09	-5.531624e+00	-1.602848e+02
2.400000e-06	-7.005716e-07	-2.282326e-09	-5.453574e+00	-1.591632e+02
2.410000e-06	-6.905417e-07	-2.260890e-09	-5.375496e+00	-1.580320e+02
2.420000e-06	-6.805006e-07	-2.243828e-09	-5.297332e+00	-1.568918e+02
2.430000e-06	-6.704362e-07	-2.231052e-09	-5.218986e+00	-1.557427e+02
2.440000e-06	-6.603628e-07	-2.219319e-09	-5.140570e+00	-1.545849e+02
2.450000e-06	-6.502850e-07	-2.203123e-09	-5.062120e+00	-1.534184e+02
2.460000e-06	-6.401993e-07	-2.183919e-09	-4.983608e+00	-1.522432e+02
2.470000e-06	-6.301083e-07	-2.166325e-09	-4.905054e+00	-1.510590e+02
2.480000e-06	-6.200040e-07	-2.150166e-09	-4.826398e+00	-1.498658e+02
2.490000e-06	-6.098895e-07	-2.132111e-09	-4.747663e+00	-1.486632e+02
2.500000e-06	-5.997685e-07	-2.110555e-09	-4.668876e+00	-1.474512e+02
2.510000e-06	-5.896329e-07	-2.090435e-09	-4.589975e+00	-1.462296e+02
2.520000e-06	-5.794828e-07	-2.074005e-09	-4.510962e+00	-1.449982e+02
2.530000e-06	-5.693079e-07	-2.059357e-09	-4.431756e+00	-1.437572e+02
2.540000e-06	-5.591207e-07	-2.044186e-09	-4.352455e+00	-1.425068e+02
2.550000e-06	-5.489299e-07	-2.027352e-09	-4.273124e+00	-1.412472e+02
2.560000e-06	-5.387237e-07	-2.008995e-09	-4.193675e+00	-1.399789e+02
2.570000e-06	-5.284977e-07	-1.988381e-09	-4.114071e+00	-1.387027e+02
2.580000e-06	-5.182494e-07	-1.965240e-09	-4.034293e+00	-1.374192e+02
2.590000e-06	-5.079984e-07	-1.939528e-09	-3.954495e+00	-1.361296e+02
2.600000e-06	-4.977413e-07	-1.917023e-09	-3.874649e+00	-1.348348e+02
2.610000e-06	-4.874665e-07	-1.898374e-09	-3.794665e+00	-1.335361e+02
2.620000e-06	-4.771769e-07	-1.880209e-09	-3.714566e+00	-1.322347e+02
2.630000e-06	-4.668736e-07	-1.862981e-09	-3.634360e+00	-1.309319e+02
2.640000e-06	-4.565574e-07	-1.846299e-09	-3.554054e+00	-1.296289e+02
2.650000e-06	-4.462190e-07	-1.833255e-09	-3.473576e+00	-1.283270e+02
2.660000e-06	-4.358631e-07	-1.820225e-09	-3.392960e+00	-1.270272e+02
2.670000e-06	-4.255071e-07	-1.802527e-09	-3.312344e+00	-1.257307e+02
2.680000e-06	-4.151459e-07	-1.782657e-09	-3.231688e+00	-1.244383e+02
2.690000e-06	-4.047725e-07	-1.762629e-09	-3.150936e+00	-1.231506e+02
2.700000e-06	-3.943746e-07	-1.743211e-09	-3.069995e+00	-1.218683e+02
2.710000e-06	-3.839703e-07	-1.724115e-09	-2.989002e+00	-1.205917e+02
2.720000e-06	-3.735711e-07	-1.705447e-09	-2.908051e+00	-1.193208e+02
2.730000e-06	-3.631545e-07	-1.688140e-09	-2.826963e+00	-1.180556e+02
2.740000e-06	-3.527236e-07	-1.673229e-09	-2.745764e+00	-1.167959e+02
2.750000e-06	-3.422849e-07	-1.659639e-09	-2.664504e+00	-1.155412e+02
2.760000e-06	-3.318375e-07	-1.643030e-09	-2.583177e+00	-1.142911e+02
2.770000e-06	-3.213792e-07	-1.622506e-09	-2.501764e+00	-1.130448e+02
2.780000e-06	-3.109151e-07	-1.600675e-09	-2.420307e+00	-1.118015e+02
2.790000e-06	-3.004417e-07	-1.579896e-09	-2.338777e+00	-1.105605e+02
2.800000e-06	-2.899650e-07	-1.559679e-09	-2.257222e+00	-1.093207e+02
2.810000e-06	-2.794858e-07	-1.540500e-09	-2.175647e+00	-1.080813e+02
2.820000e-06	-2.690033e-07	-1.524262e-09	-2.094046e+00	-1.068414e+02
2.830000e-06	-2.585229e-07	-1.510269e-09	-2.012462e+00	-1.056001e+02
2.840000e-06	-2.480387e-07	-1.496008e-09	-1.930848e+00	-1.043565e+02
