# Temperatura_=_20.0
# Concentracion g/m^3_=_10000.0
# C_Vs_to_Am_M_A/Vsm_=_65563218390.804596
# pendiente_HvsI_1/m_=_3716.3
# ordenada_HvsI_A/m_=_1297.0
# frecuencia_Hz_=_81138.55648336772

Tiempo_(s)	Campo_(V.s)	Magnetizacion_(V.s)	Campo_(kA/m)	Magnetizacion_(A/m)
0.000000e+00	-2.073084e-06	-4.456077e-09	-1.614801e+01	-2.919806e+02
1.000000e-08	-2.073058e-06	-4.458303e-09	-1.614781e+01	-2.922663e+02
2.000000e-08	-2.073065e-06	-4.453144e-09	-1.614786e+01	-2.925396e+02
3.000000e-08	-2.073070e-06	-4.478307e-09	-1.614790e+01	-2.927989e+02
4.000000e-08	-2.073001e-06	-4.509087e-09	-1.614736e+01	-2.930425e+02
5.000000e-08	-2.072829e-06	-4.451381e-09	-1.614603e+01	-2.932690e+02
6.000000e-08	-2.072578e-06	-4.435409e-09	-1.614407e+01	-2.934769e+02
7.000000e-08	-2.072254e-06	-4.476000e-09	-1.614155e+01	-2.936648e+02
8.000000e-08	-2.071882e-06	-4.511406e-09	-1.613865e+01	-2.938315e+02
9.000000e-08	-2.071450e-06	-4.457463e-09	-1.613528e+01	-2.939756e+02
1.000000e-07	-2.070990e-06	-4.435201e-09	-1.613170e+01	-2.940964e+02
1.100000e-07	-2.070531e-06	-4.484376e-09	-1.612813e+01	-2.941927e+02
1.200000e-07	-2.070002e-06	-4.490039e-09	-1.612400e+01	-2.942640e+02
1.300000e-07	-2.069391e-06	-4.481092e-09	-1.611924e+01	-2.943096e+02
1.400000e-07	-2.068716e-06	-4.439247e-09	-1.611399e+01	-2.943293e+02
1.500000e-07	-2.068015e-06	-4.459955e-09	-1.610852e+01	-2.943227e+02
1.600000e-07	-2.067259e-06	-4.486716e-09	-1.610264e+01	-2.942900e+02
1.700000e-07	-2.066429e-06	-4.486134e-09	-1.609617e+01	-2.942313e+02
1.800000e-07	-2.065554e-06	-4.472482e-09	-1.608936e+01	-2.941470e+02
1.900000e-07	-2.064630e-06	-4.419702e-09	-1.608216e+01	-2.940378e+02
2.000000e-07	-2.063678e-06	-4.434247e-09	-1.607474e+01	-2.939046e+02
2.100000e-07	-2.062649e-06	-4.431372e-09	-1.606673e+01	-2.937484e+02
2.200000e-07	-2.061562e-06	-4.451131e-09	-1.605826e+01	-2.935706e+02
2.300000e-07	-2.060406e-06	-4.449822e-09	-1.604926e+01	-2.933727e+02
2.400000e-07	-2.059188e-06	-4.436370e-09	-1.603977e+01	-2.931563e+02
2.500000e-07	-2.057923e-06	-4.450677e-09	-1.602991e+01	-2.929234e+02
2.600000e-07	-2.056573e-06	-4.428127e-09	-1.601940e+01	-2.926760e+02
2.700000e-07	-2.055186e-06	-4.427722e-09	-1.600860e+01	-2.924162e+02
2.800000e-07	-2.053727e-06	-4.391733e-09	-1.599723e+01	-2.921465e+02
2.900000e-07	-2.052196e-06	-4.385336e-09	-1.598530e+01	-2.918689e+02
3.000000e-07	-2.050613e-06	-4.395244e-09	-1.597298e+01	-2.915859e+02
3.100000e-07	-2.048992e-06	-4.404754e-09	-1.596035e+01	-2.912997e+02
3.200000e-07	-2.047320e-06	-4.420262e-09	-1.594733e+01	-2.910124e+02
3.300000e-07	-2.045543e-06	-4.388681e-09	-1.593349e+01	-2.907261e+02
3.400000e-07	-2.043706e-06	-4.391073e-09	-1.591917e+01	-2.904426e+02
3.500000e-07	-2.041826e-06	-4.379712e-09	-1.590453e+01	-2.901635e+02
3.600000e-07	-2.039910e-06	-4.380199e-09	-1.588960e+01	-2.898902e+02
3.700000e-07	-2.037942e-06	-4.376313e-09	-1.587427e+01	-2.896238e+02
3.800000e-07	-2.035896e-06	-4.362717e-09	-1.585834e+01	-2.893650e+02
3.900000e-07	-2.033809e-06	-4.373397e-09	-1.584208e+01	-2.891143e+02
4.000000e-07	-2.031682e-06	-4.359900e-09	-1.582551e+01	-2.888720e+02
4.100000e-07	-2.029519e-06	-4.366032e-09	-1.580866e+01	-2.886379e+02
4.200000e-07	-2.027307e-06	-4.352637e-09	-1.579143e+01	-2.884118e+02
4.300000e-07	-2.025048e-06	-4.349666e-09	-1.577384e+01	-2.881930e+02
4.400000e-07	-2.022733e-06	-4.349527e-09	-1.575581e+01	-2.879810e+02
4.500000e-07	-2.020379e-06	-4.340396e-09	-1.573747e+01	-2.877750e+02
4.600000e-07	-2.018004e-06	-4.344028e-09	-1.571897e+01	-2.875739e+02
4.700000e-07	-2.015556e-06	-4.321359e-09	-1.569990e+01	-2.873769e+02
4.800000e-07	-2.013045e-06	-4.323025e-09	-1.568034e+01	-2.871831e+02
4.900000e-07	-2.010473e-06	-4.321604e-09	-1.566031e+01	-2.869917e+02
5.000000e-07	-2.007860e-06	-4.329517e-09	-1.563995e+01	-2.868019e+02
5.100000e-07	-2.005196e-06	-4.330467e-09	-1.561921e+01	-2.866131e+02
5.200000e-07	-2.002460e-06	-4.313454e-09	-1.559789e+01	-2.864249e+02
5.300000e-07	-1.999656e-06	-4.320306e-09	-1.557605e+01	-2.862370e+02
5.400000e-07	-1.996773e-06	-4.316338e-09	-1.555360e+01	-2.860492e+02
5.500000e-07	-1.993849e-06	-4.320556e-09	-1.553082e+01	-2.858614e+02
5.600000e-07	-1.990885e-06	-4.304502e-09	-1.550773e+01	-2.856738e+02
5.700000e-07	-1.987887e-06	-4.295737e-09	-1.548438e+01	-2.854863e+02
5.800000e-07	-1.984846e-06	-4.303557e-09	-1.546069e+01	-2.852993e+02
5.900000e-07	-1.981747e-06	-4.300796e-09	-1.543655e+01	-2.851127e+02
6.000000e-07	-1.978602e-06	-4.297347e-09	-1.541205e+01	-2.849268e+02
6.100000e-07	-1.975401e-06	-4.275944e-09	-1.538712e+01	-2.847415e+02
6.200000e-07	-1.972163e-06	-4.280191e-09	-1.536190e+01	-2.845566e+02
6.300000e-07	-1.968875e-06	-4.284689e-09	-1.533629e+01	-2.843719e+02
6.400000e-07	-1.965529e-06	-4.279529e-09	-1.531022e+01	-2.841869e+02
6.500000e-07	-1.962147e-06	-4.270512e-09	-1.528388e+01	-2.840007e+02
6.600000e-07	-1.958735e-06	-4.262754e-09	-1.525730e+01	-2.838126e+02
6.700000e-07	-1.955257e-06	-4.276459e-09	-1.523021e+01	-2.836214e+02
6.800000e-07	-1.951693e-06	-4.271663e-09	-1.520245e+01	-2.834258e+02
6.900000e-07	-1.948066e-06	-4.264154e-09	-1.517420e+01	-2.832243e+02
7.000000e-07	-1.944379e-06	-4.254367e-09	-1.514548e+01	-2.830154e+02
7.100000e-07	-1.940647e-06	-4.253299e-09	-1.511641e+01	-2.827973e+02
7.200000e-07	-1.936888e-06	-4.256040e-09	-1.508713e+01	-2.825683e+02
7.300000e-07	-1.933089e-06	-4.245041e-09	-1.505754e+01	-2.823267e+02
7.400000e-07	-1.929229e-06	-4.241878e-09	-1.502747e+01	-2.820709e+02
7.500000e-07	-1.925316e-06	-4.237084e-09	-1.499699e+01	-2.817993e+02
7.600000e-07	-1.921374e-06	-4.245391e-09	-1.496628e+01	-2.815104e+02
7.700000e-07	-1.917378e-06	-4.243266e-09	-1.493516e+01	-2.812031e+02
7.800000e-07	-1.913335e-06	-4.227830e-09	-1.490366e+01	-2.808762e+02
7.900000e-07	-1.909255e-06	-4.216332e-09	-1.487189e+01	-2.805290e+02
8.000000e-07	-1.905123e-06	-4.206340e-09	-1.483970e+01	-2.801608e+02
8.100000e-07	-1.900963e-06	-4.206161e-09	-1.480730e+01	-2.797712e+02
8.200000e-07	-1.896764e-06	-4.193279e-09	-1.477459e+01	-2.793602e+02
8.300000e-07	-1.892507e-06	-4.185255e-09	-1.474143e+01	-2.789278e+02
8.400000e-07	-1.888187e-06	-4.182327e-09	-1.470778e+01	-2.784742e+02
8.500000e-07	-1.883790e-06	-4.178341e-09	-1.467353e+01	-2.779998e+02
8.600000e-07	-1.879332e-06	-4.168552e-09	-1.463881e+01	-2.775054e+02
8.700000e-07	-1.874810e-06	-4.146195e-09	-1.460358e+01	-2.769915e+02
8.800000e-07	-1.870255e-06	-4.134693e-09	-1.456810e+01	-2.764591e+02
8.900000e-07	-1.865672e-06	-4.125525e-09	-1.453240e+01	-2.759090e+02
9.000000e-07	-1.861037e-06	-4.122020e-09	-1.449630e+01	-2.753424e+02
9.100000e-07	-1.856346e-06	-4.112228e-09	-1.445976e+01	-2.747603e+02
9.200000e-07	-1.851606e-06	-4.100201e-09	-1.442283e+01	-2.741639e+02
9.300000e-07	-1.846822e-06	-4.097836e-09	-1.438557e+01	-2.735546e+02
9.400000e-07	-1.841987e-06	-4.092125e-09	-1.434791e+01	-2.729335e+02
9.500000e-07	-1.837125e-06	-4.085531e-09	-1.431004e+01	-2.723023e+02
9.600000e-07	-1.832217e-06	-4.069019e-09	-1.427181e+01	-2.716624e+02
9.700000e-07	-1.827250e-06	-4.057965e-09	-1.423312e+01	-2.710154e+02
9.800000e-07	-1.822230e-06	-4.050107e-09	-1.419402e+01	-2.703633e+02
9.900000e-07	-1.817148e-06	-4.037559e-09	-1.415443e+01	-2.697077e+02
1.000000e-06	-1.811998e-06	-4.024239e-09	-1.411431e+01	-2.690506e+02
1.010000e-06	-1.806763e-06	-4.009922e-09	-1.407354e+01	-2.683942e+02
1.020000e-06	-1.801473e-06	-4.006585e-09	-1.403233e+01	-2.677406e+02
1.030000e-06	-1.796135e-06	-4.001864e-09	-1.399075e+01	-2.670918e+02
1.040000e-06	-1.790756e-06	-3.994965e-09	-1.394886e+01	-2.664500e+02
1.050000e-06	-1.785334e-06	-3.983084e-09	-1.390662e+01	-2.658174e+02
1.060000e-06	-1.779852e-06	-3.971569e-09	-1.386392e+01	-2.651960e+02
1.070000e-06	-1.774328e-06	-3.964738e-09	-1.382089e+01	-2.645875e+02
1.080000e-06	-1.768762e-06	-3.949732e-09	-1.377754e+01	-2.639937e+02
1.090000e-06	-1.763161e-06	-3.936454e-09	-1.373390e+01	-2.634160e+02
1.100000e-06	-1.757505e-06	-3.927156e-09	-1.368985e+01	-2.628555e+02
1.110000e-06	-1.751798e-06	-3.925770e-09	-1.364539e+01	-2.623130e+02
1.120000e-06	-1.746059e-06	-3.922029e-09	-1.360070e+01	-2.617889e+02
1.130000e-06	-1.740290e-06	-3.910865e-09	-1.355576e+01	-2.612831e+02
1.140000e-06	-1.734487e-06	-3.901931e-09	-1.351056e+01	-2.607954e+02
1.150000e-06	-1.728628e-06	-3.895804e-09	-1.346492e+01	-2.603250e+02
1.160000e-06	-1.722699e-06	-3.892746e-09	-1.341873e+01	-2.598707e+02
1.170000e-06	-1.716697e-06	-3.882411e-09	-1.337198e+01	-2.594310e+02
1.180000e-06	-1.710641e-06	-3.869951e-09	-1.332481e+01	-2.590043e+02
1.190000e-06	-1.704555e-06	-3.861271e-09	-1.327741e+01	-2.585884e+02
1.200000e-06	-1.698439e-06	-3.856903e-09	-1.322976e+01	-2.581811e+02
1.210000e-06	-1.692292e-06	-3.855385e-09	-1.318188e+01	-2.577803e+02
1.220000e-06	-1.686100e-06	-3.846707e-09	-1.313365e+01	-2.573835e+02
1.230000e-06	-1.679867e-06	-3.840824e-09	-1.308510e+01	-2.569885e+02
1.240000e-06	-1.673589e-06	-3.838098e-09	-1.303620e+01	-2.565930e+02
1.250000e-06	-1.667252e-06	-3.831983e-09	-1.298684e+01	-2.561949e+02
1.260000e-06	-1.660886e-06	-3.821803e-09	-1.293725e+01	-2.557925e+02
1.270000e-06	-1.654494e-06	-3.807611e-09	-1.288746e+01	-2.553840e+02
1.280000e-06	-1.648065e-06	-3.798490e-09	-1.283738e+01	-2.549680e+02
1.290000e-06	-1.641595e-06	-3.791247e-09	-1.278698e+01	-2.545433e+02
1.300000e-06	-1.635085e-06	-3.787106e-09	-1.273628e+01	-2.541091e+02
1.310000e-06	-1.628537e-06	-3.785045e-09	-1.268527e+01	-2.536646e+02
1.320000e-06	-1.621940e-06	-3.784826e-09	-1.263388e+01	-2.532093e+02
1.330000e-06	-1.615299e-06	-3.781864e-09	-1.258215e+01	-2.527428e+02
1.340000e-06	-1.608610e-06	-3.770596e-09	-1.253005e+01	-2.522649e+02
1.350000e-06	-1.601869e-06	-3.760531e-09	-1.247755e+01	-2.517752e+02
1.360000e-06	-1.595069e-06	-3.753337e-09	-1.242458e+01	-2.512736e+02
1.370000e-06	-1.588221e-06	-3.748300e-09	-1.237124e+01	-2.507597e+02
1.380000e-06	-1.581334e-06	-3.737110e-09	-1.231759e+01	-2.502331e+02
1.390000e-06	-1.574419e-06	-3.721179e-09	-1.226372e+01	-2.496934e+02
1.400000e-06	-1.567480e-06	-3.709812e-09	-1.220968e+01	-2.491398e+02
1.410000e-06	-1.560522e-06	-3.702090e-09	-1.215548e+01	-2.485716e+02
1.420000e-06	-1.553529e-06	-3.697397e-09	-1.210101e+01	-2.479879e+02
1.430000e-06	-1.546489e-06	-3.689922e-09	-1.204617e+01	-2.473875e+02
1.440000e-06	-1.539413e-06	-3.681538e-09	-1.199105e+01	-2.467696e+02
1.450000e-06	-1.532291e-06	-3.673702e-09	-1.193557e+01	-2.461328e+02
1.460000e-06	-1.525134e-06	-3.661876e-09	-1.187983e+01	-2.454762e+02
1.470000e-06	-1.517940e-06	-3.644364e-09	-1.182379e+01	-2.447987e+02
1.480000e-06	-1.510696e-06	-3.621109e-09	-1.176736e+01	-2.440995e+02
1.490000e-06	-1.503414e-06	-3.606222e-09	-1.171064e+01	-2.433781e+02
1.500000e-06	-1.496098e-06	-3.600492e-09	-1.165366e+01	-2.426341e+02
1.510000e-06	-1.488746e-06	-3.593702e-09	-1.159638e+01	-2.418675e+02
1.520000e-06	-1.481353e-06	-3.584556e-09	-1.153880e+01	-2.410788e+02
1.530000e-06	-1.473934e-06	-3.574958e-09	-1.148101e+01	-2.402686e+02
1.540000e-06	-1.466467e-06	-3.564959e-09	-1.142285e+01	-2.394382e+02
1.550000e-06	-1.458942e-06	-3.550535e-09	-1.136423e+01	-2.385891e+02
1.560000e-06	-1.451380e-06	-3.531177e-09	-1.130533e+01	-2.377231e+02
1.570000e-06	-1.443757e-06	-3.512421e-09	-1.124595e+01	-2.368426e+02
1.580000e-06	-1.436081e-06	-3.494923e-09	-1.118616e+01	-2.359500e+02
1.590000e-06	-1.428372e-06	-3.478248e-09	-1.112611e+01	-2.350480e+02
1.600000e-06	-1.420633e-06	-3.464670e-09	-1.106583e+01	-2.341392e+02
1.610000e-06	-1.412869e-06	-3.455069e-09	-1.100536e+01	-2.332267e+02
1.620000e-06	-1.405062e-06	-3.446988e-09	-1.094454e+01	-2.323130e+02
1.630000e-06	-1.397211e-06	-3.437416e-09	-1.088339e+01	-2.314008e+02
1.640000e-06	-1.389324e-06	-3.424856e-09	-1.082195e+01	-2.304926e+02
1.650000e-06	-1.381396e-06	-3.407770e-09	-1.076020e+01	-2.295904e+02
1.660000e-06	-1.373432e-06	-3.391712e-09	-1.069816e+01	-2.286962e+02
1.670000e-06	-1.365414e-06	-3.374504e-09	-1.063571e+01	-2.278112e+02
1.680000e-06	-1.357336e-06	-3.356202e-09	-1.057279e+01	-2.269365e+02
1.690000e-06	-1.349213e-06	-3.338852e-09	-1.050951e+01	-2.260729e+02
1.700000e-06	-1.341058e-06	-3.324959e-09	-1.044599e+01	-2.252206e+02
1.710000e-06	-1.332868e-06	-3.314973e-09	-1.038220e+01	-2.243794e+02
1.720000e-06	-1.324631e-06	-3.304061e-09	-1.031804e+01	-2.235491e+02
1.730000e-06	-1.316380e-06	-3.290183e-09	-1.025376e+01	-2.227288e+02
1.740000e-06	-1.308111e-06	-3.273271e-09	-1.018936e+01	-2.219177e+02
1.750000e-06	-1.299813e-06	-3.259455e-09	-1.012472e+01	-2.211148e+02
1.760000e-06	-1.291478e-06	-3.246942e-09	-1.005980e+01	-2.203188e+02
1.770000e-06	-1.283100e-06	-3.234749e-09	-9.994539e+00	-2.195287e+02
1.780000e-06	-1.274700e-06	-3.222762e-09	-9.929102e+00	-2.187431e+02
1.790000e-06	-1.266269e-06	-3.210849e-09	-9.863430e+00	-2.179611e+02
1.800000e-06	-1.257809e-06	-3.197557e-09	-9.797533e+00	-2.171816e+02
1.810000e-06	-1.249323e-06	-3.182610e-09	-9.731435e+00	-2.164038e+02
1.820000e-06	-1.240809e-06	-3.172312e-09	-9.665117e+00	-2.156269e+02
1.830000e-06	-1.232273e-06	-3.162606e-09	-9.598624e+00	-2.148503e+02
1.840000e-06	-1.223710e-06	-3.153068e-09	-9.531924e+00	-2.140734e+02
1.850000e-06	-1.215117e-06	-3.143702e-09	-9.464991e+00	-2.132961e+02
1.860000e-06	-1.206502e-06	-3.130287e-09	-9.397885e+00	-2.125179e+02
1.870000e-06	-1.197845e-06	-3.115144e-09	-9.330454e+00	-2.117385e+02
1.880000e-06	-1.189147e-06	-3.099862e-09	-9.262703e+00	-2.109577e+02
1.890000e-06	-1.180440e-06	-3.086975e-09	-9.194876e+00	-2.101751e+02
1.900000e-06	-1.171700e-06	-3.075225e-09	-9.126798e+00	-2.093903e+02
1.910000e-06	-1.162928e-06	-3.062127e-09	-9.058468e+00	-2.086027e+02
1.920000e-06	-1.154131e-06	-3.048340e-09	-8.989946e+00	-2.078116e+02
1.930000e-06	-1.145303e-06	-3.032552e-09	-8.921184e+00	-2.070162e+02
1.940000e-06	-1.136457e-06	-3.021871e-09	-8.852283e+00	-2.062154e+02
1.950000e-06	-1.127593e-06	-3.013787e-09	-8.783236e+00	-2.054079e+02
1.960000e-06	-1.118709e-06	-3.004410e-09	-8.714037e+00	-2.045924e+02
1.970000e-06	-1.109795e-06	-2.992072e-09	-8.644599e+00	-2.037673e+02
1.980000e-06	-1.100866e-06	-2.977104e-09	-8.575050e+00	-2.029310e+02
1.990000e-06	-1.091916e-06	-2.961350e-09	-8.505333e+00	-2.020819e+02
2.000000e-06	-1.082920e-06	-2.942732e-09	-8.435257e+00	-2.012182e+02
2.010000e-06	-1.073893e-06	-2.925260e-09	-8.364946e+00	-2.003382e+02
2.020000e-06	-1.064840e-06	-2.906872e-09	-8.294432e+00	-1.994404e+02
2.030000e-06	-1.055745e-06	-2.890151e-09	-8.223584e+00	-1.985233e+02
2.040000e-06	-1.046598e-06	-2.877550e-09	-8.152334e+00	-1.975857e+02
2.050000e-06	-1.037406e-06	-2.867778e-09	-8.080731e+00	-1.966264e+02
2.060000e-06	-1.028180e-06	-2.856607e-09	-8.008869e+00	-1.956447e+02
2.070000e-06	-1.018935e-06	-2.840682e-09	-7.936859e+00	-1.946401e+02
2.080000e-06	-1.009670e-06	-2.822543e-09	-7.864686e+00	-1.936122e+02
2.090000e-06	-1.000384e-06	-2.802116e-09	-7.792357e+00	-1.925613e+02
2.100000e-06	-9.910855e-07	-2.777836e-09	-7.719928e+00	-1.914875e+02
2.110000e-06	-9.817737e-07	-2.752317e-09	-7.647395e+00	-1.903916e+02
2.120000e-06	-9.724440e-07	-2.731271e-09	-7.574722e+00	-1.892743e+02
2.130000e-06	-9.630841e-07	-2.718691e-09	-7.501815e+00	-1.881368e+02
2.140000e-06	-9.536869e-07	-2.711436e-09	-7.428616e+00	-1.869804e+02
2.150000e-06	-9.442707e-07	-2.703024e-09	-7.355270e+00	-1.858065e+02
2.160000e-06	-9.348402e-07	-2.689967e-09	-7.281812e+00	-1.846166e+02
2.170000e-06	-9.253809e-07	-2.670069e-09	-7.208131e+00	-1.834124e+02
2.180000e-06	-9.159021e-07	-2.643371e-09	-7.134297e+00	-1.821958e+02
2.190000e-06	-9.064050e-07	-2.612072e-09	-7.060320e+00	-1.809682e+02
2.200000e-06	-8.968935e-07	-2.585380e-09	-6.986231e+00	-1.797316e+02
2.210000e-06	-8.873679e-07	-2.566815e-09	-6.912033e+00	-1.784877e+02
2.220000e-06	-8.778153e-07	-2.554104e-09	-6.837624e+00	-1.772380e+02
2.230000e-06	-8.682358e-07	-2.540910e-09	-6.763006e+00	-1.759842e+02
2.240000e-06	-8.586251e-07	-2.524180e-09	-6.688145e+00	-1.747279e+02
2.250000e-06	-8.489845e-07	-2.508888e-09	-6.613051e+00	-1.734706e+02
2.260000e-06	-8.393203e-07	-2.494064e-09	-6.537773e+00	-1.722135e+02
2.270000e-06	-8.296439e-07	-2.474700e-09	-6.462400e+00	-1.709581e+02
2.280000e-06	-8.199624e-07	-2.449833e-09	-6.386987e+00	-1.697056e+02
2.290000e-06	-8.102637e-07	-2.427009e-09	-6.311441e+00	-1.684572e+02
2.300000e-06	-8.005432e-07	-2.409229e-09	-6.235724e+00	-1.672139e+02
2.310000e-06	-7.908052e-07	-2.392642e-09	-6.159871e+00	-1.659768e+02
2.320000e-06	-7.810514e-07	-2.373733e-09	-6.083895e+00	-1.647468e+02
2.330000e-06	-7.712690e-07	-2.358286e-09	-6.007696e+00	-1.635247e+02
2.340000e-06	-7.614561e-07	-2.349056e-09	-5.931260e+00	-1.623114e+02
2.350000e-06	-7.516230e-07	-2.335076e-09	-5.854666e+00	-1.611075e+02
2.360000e-06	-7.417607e-07	-2.313245e-09	-5.777846e+00	-1.599136e+02
2.370000e-06	-7.318639e-07	-2.288617e-09	-5.700756e+00	-1.587301e+02
2.380000e-06	-7.219306e-07	-2.267870e-09	-5.623382e+00	-1.575575e+02
2.390000e-06	-7.119576e-07	-2.253641e-09	-5.545698e+00	-1.563959e+02
2.400000e-06	-7.019665e-07	-2.238135e-09	-5.467874e+00	-1.552455e+02
2.410000e-06	-6.919585e-07	-2.219860e-09	-5.389918e+00	-1.541063e+02
2.420000e-06	-6.819172e-07	-2.205656e-09	-5.311703e+00	-1.529783e+02
2.430000e-06	-6.718586e-07	-2.195968e-09	-5.233353e+00	-1.518611e+02
2.440000e-06	-6.617939e-07	-2.184758e-09	-5.154954e+00	-1.507544e+02
2.450000e-06	-6.517231e-07	-2.169254e-09	-5.076510e+00	-1.496579e+02
2.460000e-06	-6.416468e-07	-2.154164e-09	-4.998022e+00	-1.485709e+02
2.470000e-06	-6.315570e-07	-2.140974e-09	-4.919429e+00	-1.474929e+02
2.480000e-06	-6.214484e-07	-2.124243e-09	-4.840689e+00	-1.464231e+02
2.490000e-06	-6.113283e-07	-2.102631e-09	-4.761860e+00	-1.453608e+02
2.500000e-06	-6.012037e-07	-2.081440e-09	-4.682995e+00	-1.443051e+02
2.510000e-06	-5.910608e-07	-2.065054e-09	-4.603989e+00	-1.432551e+02
2.520000e-06	-5.809041e-07	-2.050936e-09	-4.524875e+00	-1.422099e+02
2.530000e-06	-5.707457e-07	-2.039181e-09	-4.445747e+00	-1.411685e+02
2.540000e-06	-5.605640e-07	-2.031351e-09	-4.366438e+00	-1.401299e+02
2.550000e-06	-5.503509e-07	-2.023199e-09	-4.286884e+00	-1.390929e+02
2.560000e-06	-5.401443e-07	-2.010344e-09	-4.207382e+00	-1.380564e+02
2.570000e-06	-5.299220e-07	-1.990319e-09	-4.127756e+00	-1.370193e+02
2.580000e-06	-5.196706e-07	-1.968134e-09	-4.047904e+00	-1.359803e+02
2.590000e-06	-5.094128e-07	-1.946708e-09	-3.968002e+00	-1.349383e+02
2.600000e-06	-4.991450e-07	-1.926647e-09	-3.888023e+00	-1.338919e+02
2.610000e-06	-4.888650e-07	-1.910760e-09	-3.807948e+00	-1.328398e+02
2.620000e-06	-4.785694e-07	-1.896791e-09	-3.727753e+00	-1.317807e+02
2.630000e-06	-4.682665e-07	-1.884482e-09	-3.647499e+00	-1.307132e+02
2.640000e-06	-4.579459e-07	-1.871876e-09	-3.567108e+00	-1.296360e+02
2.650000e-06	-4.476155e-07	-1.857645e-09	-3.486641e+00	-1.285479e+02
2.660000e-06	-4.372786e-07	-1.839495e-09	-3.406123e+00	-1.274474e+02
2.670000e-06	-4.269389e-07	-1.817654e-09	-3.325583e+00	-1.263336e+02
2.680000e-06	-4.165893e-07	-1.798101e-09	-3.244966e+00	-1.252052e+02
2.690000e-06	-4.062251e-07	-1.781177e-09	-3.164236e+00	-1.240614e+02
2.700000e-06	-3.958536e-07	-1.764465e-09	-3.083449e+00	-1.229012e+02
2.710000e-06	-3.854525e-07	-1.748883e-09	-3.002431e+00	-1.217242e+02
2.720000e-06	-3.750360e-07	-1.734846e-09	-2.921292e+00	-1.205298e+02
2.730000e-06	-3.646273e-07	-1.720235e-09	-2.840216e+00	-1.193178e+02
2.740000e-06	-3.542190e-07	-1.702855e-09	-2.759141e+00	-1.180882e+02
2.750000e-06	-3.438054e-07	-1.683495e-09	-2.678026e+00	-1.168412e+02
2.760000e-06	-3.333813e-07	-1.662676e-09	-2.596829e+00	-1.155771e+02
2.770000e-06	-3.229424e-07	-1.639244e-09	-2.515517e+00	-1.142966e+02
2.780000e-06	-3.124870e-07	-1.613131e-09	-2.434076e+00	-1.130004e+02
2.790000e-06	-3.020282e-07	-1.588632e-09	-2.352608e+00	-1.116893e+02
2.800000e-06	-2.915644e-07	-1.569153e-09	-2.271102e+00	-1.103644e+02
2.810000e-06	-2.810836e-07	-1.549544e-09	-2.189463e+00	-1.090268e+02
2.820000e-06	-2.706002e-07	-1.529092e-09	-2.107804e+00	-1.076775e+02
2.830000e-06	-2.601295e-07	-1.509498e-09	-2.026244e+00	-1.063177e+02
2.840000e-06	-2.496501e-07	-1.491392e-09	-1.944616e+00	-1.049484e+02
