# Temperatura_=_20.0
# Concentracion g/m^3_=_10000.0
# C_Vs_to_Am_M_A/Vsm_=_65563218390.804596
# pendiente_HvsI_1/m_=_3716.3
# ordenada_HvsI_A/m_=_1297.0
# frecuencia_Hz_=_81139.93075440152

Tiempo_(s)	Campo_(V.s)	Magnetizacion_(V.s)	Campo_(kA/m)	Magnetizacion_(A/m)
0.000000e+00	-2.074174e-06	-4.230406e-09	-1.614825e+01	-2.881852e+02
1.000000e-08	-2.074112e-06	-4.262747e-09	-1.614777e+01	-2.882872e+02
2.000000e-08	-2.074045e-06	-4.352947e-09	-1.614725e+01	-2.883710e+02
3.000000e-08	-2.073964e-06	-4.540805e-09	-1.614662e+01	-2.884362e+02
4.000000e-08	-2.073820e-06	-4.644937e-09	-1.614549e+01	-2.884826e+02
5.000000e-08	-2.073590e-06	-4.377575e-09	-1.614370e+01	-2.885101e+02
6.000000e-08	-2.073289e-06	-4.176649e-09	-1.614136e+01	-2.885191e+02
7.000000e-08	-2.072950e-06	-4.257016e-09	-1.613873e+01	-2.885097e+02
8.000000e-08	-2.072565e-06	-4.417237e-09	-1.613573e+01	-2.884826e+02
9.000000e-08	-2.072096e-06	-4.342365e-09	-1.613207e+01	-2.884386e+02
1.000000e-07	-2.071589e-06	-4.320306e-09	-1.612813e+01	-2.883787e+02
1.100000e-07	-2.071074e-06	-4.503880e-09	-1.612412e+01	-2.883040e+02
1.200000e-07	-2.070481e-06	-4.532641e-09	-1.611950e+01	-2.882157e+02
1.300000e-07	-2.069812e-06	-4.432845e-09	-1.611429e+01	-2.881154e+02
1.400000e-07	-2.069107e-06	-4.228644e-09	-1.610881e+01	-2.880045e+02
1.500000e-07	-2.068382e-06	-4.207746e-09	-1.610316e+01	-2.878846e+02
1.600000e-07	-2.067600e-06	-4.315237e-09	-1.609707e+01	-2.877572e+02
1.700000e-07	-2.066731e-06	-4.422698e-09	-1.609031e+01	-2.876239e+02
1.800000e-07	-2.065817e-06	-4.483036e-09	-1.608319e+01	-2.874863e+02
1.900000e-07	-2.064833e-06	-4.351561e-09	-1.607553e+01	-2.873459e+02
2.000000e-07	-2.063798e-06	-4.317584e-09	-1.606747e+01	-2.872040e+02
2.100000e-07	-2.062702e-06	-4.289927e-09	-1.605894e+01	-2.870619e+02
2.200000e-07	-2.061539e-06	-4.330874e-09	-1.604988e+01	-2.869209e+02
2.300000e-07	-2.060329e-06	-4.345733e-09	-1.604047e+01	-2.867821e+02
2.400000e-07	-2.059054e-06	-4.319467e-09	-1.603054e+01	-2.866463e+02
2.500000e-07	-2.057722e-06	-4.384004e-09	-1.602017e+01	-2.865144e+02
2.600000e-07	-2.056329e-06	-4.369271e-09	-1.600932e+01	-2.863871e+02
2.700000e-07	-2.054895e-06	-4.370590e-09	-1.599816e+01	-2.862651e+02
2.800000e-07	-2.053390e-06	-4.279651e-09	-1.598644e+01	-2.861487e+02
2.900000e-07	-2.051794e-06	-4.239185e-09	-1.597401e+01	-2.860383e+02
3.000000e-07	-2.050145e-06	-4.280212e-09	-1.596118e+01	-2.859342e+02
3.100000e-07	-2.048452e-06	-4.330022e-09	-1.594799e+01	-2.858366e+02
3.200000e-07	-2.046701e-06	-4.397313e-09	-1.593436e+01	-2.857454e+02
3.300000e-07	-2.044861e-06	-4.338359e-09	-1.592004e+01	-2.856608e+02
3.400000e-07	-2.042964e-06	-4.320788e-09	-1.590527e+01	-2.855825e+02
3.500000e-07	-2.041030e-06	-4.296206e-09	-1.589021e+01	-2.855104e+02
3.600000e-07	-2.039047e-06	-4.305467e-09	-1.587477e+01	-2.854441e+02
3.700000e-07	-2.037013e-06	-4.317521e-09	-1.585894e+01	-2.853833e+02
3.800000e-07	-2.034933e-06	-4.286750e-09	-1.584275e+01	-2.853276e+02
3.900000e-07	-2.032814e-06	-4.316224e-09	-1.582625e+01	-2.852762e+02
4.000000e-07	-2.030639e-06	-4.311046e-09	-1.580932e+01	-2.852287e+02
4.100000e-07	-2.028428e-06	-4.343921e-09	-1.579210e+01	-2.851843e+02
4.200000e-07	-2.026174e-06	-4.323862e-09	-1.577455e+01	-2.851422e+02
4.300000e-07	-2.023868e-06	-4.296892e-09	-1.575660e+01	-2.851015e+02
4.400000e-07	-2.021512e-06	-4.301941e-09	-1.573826e+01	-2.850612e+02
4.500000e-07	-2.019115e-06	-4.297582e-09	-1.571959e+01	-2.850205e+02
4.600000e-07	-2.016681e-06	-4.319716e-09	-1.570064e+01	-2.849783e+02
4.700000e-07	-2.014181e-06	-4.272652e-09	-1.568119e+01	-2.849335e+02
4.800000e-07	-2.011615e-06	-4.269222e-09	-1.566120e+01	-2.848851e+02
4.900000e-07	-2.008978e-06	-4.288006e-09	-1.564067e+01	-2.848319e+02
5.000000e-07	-2.006297e-06	-4.320619e-09	-1.561980e+01	-2.847729e+02
5.100000e-07	-2.003579e-06	-4.330640e-09	-1.559864e+01	-2.847069e+02
5.200000e-07	-2.000807e-06	-4.282544e-09	-1.557706e+01	-2.846331e+02
5.300000e-07	-1.997974e-06	-4.285486e-09	-1.555501e+01	-2.845503e+02
5.400000e-07	-1.995072e-06	-4.283719e-09	-1.553241e+01	-2.844577e+02
5.500000e-07	-1.992117e-06	-4.297720e-09	-1.550941e+01	-2.843543e+02
5.600000e-07	-1.989117e-06	-4.271279e-09	-1.548605e+01	-2.842394e+02
5.700000e-07	-1.986077e-06	-4.252303e-09	-1.546239e+01	-2.841121e+02
5.800000e-07	-1.982999e-06	-4.282447e-09	-1.543842e+01	-2.839718e+02
5.900000e-07	-1.979865e-06	-4.286670e-09	-1.541402e+01	-2.838180e+02
6.000000e-07	-1.976682e-06	-4.280897e-09	-1.538924e+01	-2.836501e+02
6.100000e-07	-1.973462e-06	-4.234317e-09	-1.536417e+01	-2.834678e+02
6.200000e-07	-1.970212e-06	-4.237956e-09	-1.533887e+01	-2.832707e+02
6.300000e-07	-1.966905e-06	-4.259105e-09	-1.531312e+01	-2.830587e+02
6.400000e-07	-1.963525e-06	-4.259484e-09	-1.528681e+01	-2.828316e+02
6.500000e-07	-1.960088e-06	-4.248160e-09	-1.526005e+01	-2.825894e+02
6.600000e-07	-1.956607e-06	-4.225708e-09	-1.523295e+01	-2.823324e+02
6.700000e-07	-1.953080e-06	-4.248893e-09	-1.520549e+01	-2.820606e+02
6.800000e-07	-1.949483e-06	-4.240128e-09	-1.517748e+01	-2.817745e+02
6.900000e-07	-1.945830e-06	-4.219690e-09	-1.514905e+01	-2.814744e+02
7.000000e-07	-1.942126e-06	-4.201349e-09	-1.512021e+01	-2.811610e+02
7.100000e-07	-1.938377e-06	-4.208020e-09	-1.509102e+01	-2.808348e+02
7.200000e-07	-1.934592e-06	-4.230535e-09	-1.506155e+01	-2.804966e+02
7.300000e-07	-1.930758e-06	-4.208215e-09	-1.503170e+01	-2.801472e+02
7.400000e-07	-1.926869e-06	-4.190361e-09	-1.500143e+01	-2.797875e+02
7.500000e-07	-1.922929e-06	-4.173341e-09	-1.497075e+01	-2.794183e+02
7.600000e-07	-1.918945e-06	-4.185351e-09	-1.493973e+01	-2.790406e+02
7.700000e-07	-1.914915e-06	-4.182288e-09	-1.490836e+01	-2.786552e+02
7.800000e-07	-1.910842e-06	-4.154254e-09	-1.487665e+01	-2.782631e+02
7.900000e-07	-1.906731e-06	-4.144187e-09	-1.484465e+01	-2.778651e+02
8.000000e-07	-1.902561e-06	-4.140732e-09	-1.481218e+01	-2.774618e+02
8.100000e-07	-1.898328e-06	-4.156908e-09	-1.477922e+01	-2.770541e+02
8.200000e-07	-1.894052e-06	-4.141620e-09	-1.474593e+01	-2.766424e+02
8.300000e-07	-1.889734e-06	-4.126642e-09	-1.471231e+01	-2.762273e+02
8.400000e-07	-1.885353e-06	-4.123267e-09	-1.467820e+01	-2.758090e+02
8.500000e-07	-1.880903e-06	-4.121178e-09	-1.464356e+01	-2.753876e+02
8.600000e-07	-1.876401e-06	-4.114523e-09	-1.460851e+01	-2.749634e+02
8.700000e-07	-1.871850e-06	-4.083347e-09	-1.457308e+01	-2.745363e+02
8.800000e-07	-1.867258e-06	-4.077757e-09	-1.453733e+01	-2.741061e+02
8.900000e-07	-1.862630e-06	-4.081260e-09	-1.450130e+01	-2.736728e+02
9.000000e-07	-1.857954e-06	-4.084688e-09	-1.446490e+01	-2.732360e+02
9.100000e-07	-1.853227e-06	-4.069852e-09	-1.442809e+01	-2.727956e+02
9.200000e-07	-1.848454e-06	-4.052566e-09	-1.439093e+01	-2.723515e+02
9.300000e-07	-1.843644e-06	-4.059280e-09	-1.435349e+01	-2.719035e+02
9.400000e-07	-1.838801e-06	-4.056281e-09	-1.431578e+01	-2.714516e+02
9.500000e-07	-1.833896e-06	-4.047500e-09	-1.427759e+01	-2.709960e+02
9.600000e-07	-1.828922e-06	-4.026724e-09	-1.423887e+01	-2.705370e+02
9.700000e-07	-1.823886e-06	-4.024622e-09	-1.419966e+01	-2.700750e+02
9.800000e-07	-1.818788e-06	-4.030595e-09	-1.415997e+01	-2.696106e+02
9.900000e-07	-1.813644e-06	-4.019926e-09	-1.411993e+01	-2.691447e+02
1.000000e-06	-1.808434e-06	-4.005279e-09	-1.407936e+01	-2.686780e+02
1.010000e-06	-1.803146e-06	-3.988171e-09	-1.403819e+01	-2.682116e+02
1.020000e-06	-1.797807e-06	-3.989964e-09	-1.399663e+01	-2.677467e+02
1.030000e-06	-1.792429e-06	-3.984508e-09	-1.395476e+01	-2.672844e+02
1.040000e-06	-1.787004e-06	-3.972881e-09	-1.391252e+01	-2.668258e+02
1.050000e-06	-1.781528e-06	-3.964015e-09	-1.386989e+01	-2.663719e+02
1.060000e-06	-1.776005e-06	-3.960526e-09	-1.382689e+01	-2.659237e+02
1.070000e-06	-1.770446e-06	-3.962322e-09	-1.378361e+01	-2.654819e+02
1.080000e-06	-1.764853e-06	-3.948462e-09	-1.374007e+01	-2.650469e+02
1.090000e-06	-1.759235e-06	-3.938059e-09	-1.369633e+01	-2.646189e+02
1.100000e-06	-1.753570e-06	-3.929488e-09	-1.365222e+01	-2.641977e+02
1.110000e-06	-1.747844e-06	-3.924956e-09	-1.360765e+01	-2.637828e+02
1.120000e-06	-1.742080e-06	-3.916339e-09	-1.356277e+01	-2.633732e+02
1.130000e-06	-1.736271e-06	-3.901551e-09	-1.351755e+01	-2.629676e+02
1.140000e-06	-1.730416e-06	-3.901271e-09	-1.347196e+01	-2.625642e+02
1.150000e-06	-1.724502e-06	-3.900831e-09	-1.342592e+01	-2.621612e+02
1.160000e-06	-1.718526e-06	-3.898423e-09	-1.337939e+01	-2.617560e+02
1.170000e-06	-1.712500e-06	-3.885697e-09	-1.333248e+01	-2.613461e+02
1.180000e-06	-1.706427e-06	-3.873504e-09	-1.328520e+01	-2.609288e+02
1.190000e-06	-1.700305e-06	-3.866700e-09	-1.323754e+01	-2.605012e+02
1.200000e-06	-1.694139e-06	-3.857362e-09	-1.318953e+01	-2.600605e+02
1.210000e-06	-1.687948e-06	-3.850417e-09	-1.314133e+01	-2.596038e+02
1.220000e-06	-1.681728e-06	-3.838141e-09	-1.309291e+01	-2.591286e+02
1.230000e-06	-1.675468e-06	-3.834266e-09	-1.304417e+01	-2.586325e+02
1.240000e-06	-1.669157e-06	-3.828052e-09	-1.299504e+01	-2.581134e+02
1.250000e-06	-1.662801e-06	-3.816584e-09	-1.294555e+01	-2.575697e+02
1.260000e-06	-1.656412e-06	-3.802127e-09	-1.289582e+01	-2.570000e+02
1.270000e-06	-1.649985e-06	-3.784059e-09	-1.284578e+01	-2.564037e+02
1.280000e-06	-1.643524e-06	-3.774528e-09	-1.279547e+01	-2.557803e+02
1.290000e-06	-1.637025e-06	-3.764813e-09	-1.274488e+01	-2.551299e+02
1.300000e-06	-1.630486e-06	-3.758121e-09	-1.269397e+01	-2.544532e+02
1.310000e-06	-1.623898e-06	-3.749610e-09	-1.264268e+01	-2.537511e+02
1.320000e-06	-1.617271e-06	-3.742986e-09	-1.259108e+01	-2.530249e+02
1.330000e-06	-1.610601e-06	-3.738033e-09	-1.253916e+01	-2.522764e+02
1.340000e-06	-1.603872e-06	-3.724330e-09	-1.248677e+01	-2.515073e+02
1.350000e-06	-1.597094e-06	-3.710551e-09	-1.243400e+01	-2.507197e+02
1.360000e-06	-1.590272e-06	-3.692795e-09	-1.238089e+01	-2.499157e+02
1.370000e-06	-1.583409e-06	-3.674729e-09	-1.232746e+01	-2.490975e+02
1.380000e-06	-1.576508e-06	-3.655831e-09	-1.227373e+01	-2.482671e+02
1.390000e-06	-1.569575e-06	-3.641107e-09	-1.221975e+01	-2.474264e+02
1.400000e-06	-1.562610e-06	-3.632329e-09	-1.216553e+01	-2.465774e+02
1.410000e-06	-1.555605e-06	-3.622818e-09	-1.211099e+01	-2.457216e+02
1.420000e-06	-1.548566e-06	-3.618278e-09	-1.205619e+01	-2.448603e+02
1.430000e-06	-1.541488e-06	-3.608720e-09	-1.200108e+01	-2.439947e+02
1.440000e-06	-1.534369e-06	-3.596240e-09	-1.194566e+01	-2.431257e+02
1.450000e-06	-1.527203e-06	-3.580187e-09	-1.188987e+01	-2.422541e+02
1.460000e-06	-1.519993e-06	-3.560196e-09	-1.183374e+01	-2.413803e+02
1.470000e-06	-1.512760e-06	-3.542583e-09	-1.177743e+01	-2.405047e+02
1.480000e-06	-1.505495e-06	-3.524757e-09	-1.172086e+01	-2.396277e+02
1.490000e-06	-1.498185e-06	-3.517097e-09	-1.166395e+01	-2.387494e+02
1.500000e-06	-1.490844e-06	-3.510365e-09	-1.160680e+01	-2.378701e+02
1.510000e-06	-1.483461e-06	-3.499824e-09	-1.154932e+01	-2.369900e+02
1.520000e-06	-1.476038e-06	-3.487916e-09	-1.149153e+01	-2.361094e+02
1.530000e-06	-1.468573e-06	-3.471034e-09	-1.143341e+01	-2.352288e+02
1.540000e-06	-1.461052e-06	-3.457681e-09	-1.137486e+01	-2.343487e+02
1.550000e-06	-1.453494e-06	-3.441413e-09	-1.131602e+01	-2.334699e+02
1.560000e-06	-1.445885e-06	-3.425154e-09	-1.125678e+01	-2.325931e+02
1.570000e-06	-1.438214e-06	-3.409388e-09	-1.119706e+01	-2.317195e+02
1.580000e-06	-1.430507e-06	-3.390724e-09	-1.113705e+01	-2.308501e+02
1.590000e-06	-1.422763e-06	-3.377528e-09	-1.107677e+01	-2.299860e+02
1.600000e-06	-1.414985e-06	-3.366947e-09	-1.101621e+01	-2.291285e+02
1.610000e-06	-1.407175e-06	-3.357522e-09	-1.095541e+01	-2.282788e+02
1.620000e-06	-1.399334e-06	-3.344824e-09	-1.089436e+01	-2.274381e+02
1.630000e-06	-1.391449e-06	-3.337058e-09	-1.083297e+01	-2.266075e+02
1.640000e-06	-1.383504e-06	-3.330066e-09	-1.077112e+01	-2.257880e+02
1.650000e-06	-1.375522e-06	-3.314185e-09	-1.070897e+01	-2.249801e+02
1.660000e-06	-1.367498e-06	-3.296118e-09	-1.064650e+01	-2.241846e+02
1.670000e-06	-1.359424e-06	-3.276575e-09	-1.058364e+01	-2.234016e+02
1.680000e-06	-1.351325e-06	-3.264487e-09	-1.052059e+01	-2.226311e+02
1.690000e-06	-1.343189e-06	-3.253990e-09	-1.045725e+01	-2.218728e+02
1.700000e-06	-1.334995e-06	-3.242602e-09	-1.039345e+01	-2.211261e+02
1.710000e-06	-1.326747e-06	-3.233380e-09	-1.032924e+01	-2.203901e+02
1.720000e-06	-1.318479e-06	-3.224368e-09	-1.026487e+01	-2.196636e+02
1.730000e-06	-1.310198e-06	-3.216297e-09	-1.020040e+01	-2.189452e+02
1.740000e-06	-1.301894e-06	-3.201341e-09	-1.013575e+01	-2.182333e+02
1.750000e-06	-1.293546e-06	-3.188770e-09	-1.007076e+01	-2.175260e+02
1.760000e-06	-1.285157e-06	-3.181399e-09	-1.000545e+01	-2.168214e+02
1.770000e-06	-1.276747e-06	-3.175931e-09	-9.939974e+00	-2.161174e+02
1.780000e-06	-1.268314e-06	-3.168524e-09	-9.874322e+00	-2.154120e+02
1.790000e-06	-1.259855e-06	-3.155326e-09	-9.808463e+00	-2.147031e+02
1.800000e-06	-1.251370e-06	-3.144315e-09	-9.742402e+00	-2.139887e+02
1.810000e-06	-1.242854e-06	-3.131820e-09	-9.676103e+00	-2.132667e+02
1.820000e-06	-1.234309e-06	-3.117269e-09	-9.609580e+00	-2.125354e+02
1.830000e-06	-1.225751e-06	-3.101754e-09	-9.542947e+00	-2.117929e+02
1.840000e-06	-1.217176e-06	-3.087902e-09	-9.476193e+00	-2.110378e+02
1.850000e-06	-1.208569e-06	-3.078520e-09	-9.409183e+00	-2.102685e+02
1.860000e-06	-1.199930e-06	-3.067551e-09	-9.341919e+00	-2.094839e+02
1.870000e-06	-1.191275e-06	-3.056741e-09	-9.274538e+00	-2.086830e+02
1.880000e-06	-1.182586e-06	-3.044147e-09	-9.206896e+00	-2.078647e+02
1.890000e-06	-1.173857e-06	-3.029592e-09	-9.138931e+00	-2.070286e+02
1.900000e-06	-1.165098e-06	-3.012701e-09	-9.070739e+00	-2.061740e+02
1.910000e-06	-1.156314e-06	-2.994299e-09	-9.002355e+00	-2.053005e+02
1.920000e-06	-1.147497e-06	-2.980602e-09	-8.933711e+00	-2.044081e+02
1.930000e-06	-1.138658e-06	-2.969706e-09	-8.864892e+00	-2.034966e+02
1.940000e-06	-1.129801e-06	-2.961890e-09	-8.795939e+00	-2.025661e+02
1.950000e-06	-1.120907e-06	-2.949120e-09	-8.726699e+00	-2.016169e+02
1.960000e-06	-1.111992e-06	-2.932321e-09	-8.657289e+00	-2.006493e+02
1.970000e-06	-1.103061e-06	-2.913450e-09	-8.587761e+00	-1.996638e+02
1.980000e-06	-1.094106e-06	-2.891539e-09	-8.518043e+00	-1.986609e+02
1.990000e-06	-1.085126e-06	-2.868863e-09	-8.448128e+00	-1.976413e+02
2.000000e-06	-1.076110e-06	-2.850485e-09	-8.377933e+00	-1.966059e+02
2.010000e-06	-1.067054e-06	-2.838600e-09	-8.307431e+00	-1.955554e+02
2.020000e-06	-1.057966e-06	-2.824037e-09	-8.236674e+00	-1.944909e+02
2.030000e-06	-1.048828e-06	-2.809289e-09	-8.165536e+00	-1.934134e+02
2.040000e-06	-1.039640e-06	-2.793094e-09	-8.094004e+00	-1.923240e+02
2.050000e-06	-1.030419e-06	-2.775438e-09	-8.022209e+00	-1.912238e+02
2.060000e-06	-1.021174e-06	-2.758287e-09	-7.950234e+00	-1.901141e+02
2.070000e-06	-1.011920e-06	-2.736162e-09	-7.878194e+00	-1.889961e+02
2.080000e-06	-1.002651e-06	-2.713487e-09	-7.806029e+00	-1.878712e+02
2.090000e-06	-9.933524e-07	-2.693030e-09	-7.733635e+00	-1.867404e+02
2.100000e-06	-9.840252e-07	-2.676702e-09	-7.661019e+00	-1.856052e+02
2.110000e-06	-9.746776e-07	-2.660949e-09	-7.588245e+00	-1.844669e+02
2.120000e-06	-9.653107e-07	-2.642745e-09	-7.515320e+00	-1.833265e+02
2.130000e-06	-9.559173e-07	-2.628079e-09	-7.442188e+00	-1.821853e+02
2.140000e-06	-9.465018e-07	-2.613966e-09	-7.368885e+00	-1.810445e+02
2.150000e-06	-9.370713e-07	-2.600048e-09	-7.295465e+00	-1.799052e+02
2.160000e-06	-9.276212e-07	-2.583381e-09	-7.221892e+00	-1.787683e+02
2.170000e-06	-9.181368e-07	-2.563293e-09	-7.148052e+00	-1.776349e+02
2.180000e-06	-9.086290e-07	-2.544154e-09	-7.074030e+00	-1.765058e+02
2.190000e-06	-8.990983e-07	-2.524955e-09	-6.999831e+00	-1.753819e+02
2.200000e-06	-8.895440e-07	-2.507565e-09	-6.925446e+00	-1.742640e+02
2.210000e-06	-8.799685e-07	-2.487102e-09	-6.850897e+00	-1.731528e+02
2.220000e-06	-8.703716e-07	-2.468189e-09	-6.776182e+00	-1.720489e+02
2.230000e-06	-8.607534e-07	-2.454319e-09	-6.701300e+00	-1.709529e+02
2.240000e-06	-8.511052e-07	-2.443922e-09	-6.626185e+00	-1.698655e+02
2.250000e-06	-8.414398e-07	-2.437524e-09	-6.550936e+00	-1.687870e+02
2.260000e-06	-8.317602e-07	-2.423101e-09	-6.475577e+00	-1.677178e+02
2.270000e-06	-8.220612e-07	-2.401705e-09	-6.400067e+00	-1.666584e+02
2.280000e-06	-8.123570e-07	-2.378354e-09	-6.324515e+00	-1.656089e+02
2.290000e-06	-8.026358e-07	-2.358776e-09	-6.248832e+00	-1.645695e+02
2.300000e-06	-7.928923e-07	-2.342831e-09	-6.172975e+00	-1.635403e+02
2.310000e-06	-7.831265e-07	-2.325543e-09	-6.096944e+00	-1.625212e+02
2.320000e-06	-7.733270e-07	-2.314413e-09	-6.020652e+00	-1.615121e+02
2.330000e-06	-7.634825e-07	-2.307629e-09	-5.944008e+00	-1.605127e+02
2.340000e-06	-7.536139e-07	-2.298972e-09	-5.867178e+00	-1.595226e+02
2.350000e-06	-7.437300e-07	-2.284527e-09	-5.790228e+00	-1.585412e+02
2.360000e-06	-7.338134e-07	-2.263980e-09	-5.713023e+00	-1.575679e+02
2.370000e-06	-7.238698e-07	-2.243081e-09	-5.635608e+00	-1.566017e+02
2.380000e-06	-7.138936e-07	-2.225790e-09	-5.557940e+00	-1.556419e+02
2.390000e-06	-7.038910e-07	-2.210161e-09	-5.480065e+00	-1.546872e+02
2.400000e-06	-6.938633e-07	-2.192774e-09	-5.401996e+00	-1.537365e+02
2.410000e-06	-6.838308e-07	-2.180693e-09	-5.323889e+00	-1.527886e+02
2.420000e-06	-6.737883e-07	-2.173366e-09	-5.245705e+00	-1.518421e+02
2.430000e-06	-6.637181e-07	-2.164192e-09	-5.167304e+00	-1.508956e+02
2.440000e-06	-6.536347e-07	-2.152046e-09	-5.088800e+00	-1.499478e+02
2.450000e-06	-6.435437e-07	-2.136443e-09	-5.010238e+00	-1.489972e+02
2.460000e-06	-6.334466e-07	-2.117265e-09	-4.931628e+00	-1.480424e+02
2.470000e-06	-6.233431e-07	-2.097527e-09	-4.852969e+00	-1.470822e+02
2.480000e-06	-6.132341e-07	-2.081995e-09	-4.774266e+00	-1.461152e+02
2.490000e-06	-6.031078e-07	-2.065867e-09	-4.695429e+00	-1.451403e+02
2.500000e-06	-5.929625e-07	-2.050030e-09	-4.616444e+00	-1.441562e+02
2.510000e-06	-5.828011e-07	-2.037780e-09	-4.537333e+00	-1.431619e+02
2.520000e-06	-5.726256e-07	-2.026310e-09	-4.458113e+00	-1.421565e+02
2.530000e-06	-5.624443e-07	-2.011980e-09	-4.378848e+00	-1.411391e+02
2.540000e-06	-5.522500e-07	-1.993938e-09	-4.299481e+00	-1.401089e+02
2.550000e-06	-5.420426e-07	-1.978069e-09	-4.220013e+00	-1.390652e+02
2.560000e-06	-5.318249e-07	-1.962574e-09	-4.140464e+00	-1.380073e+02
2.570000e-06	-5.215925e-07	-1.944601e-09	-4.060801e+00	-1.369347e+02
2.580000e-06	-5.113422e-07	-1.925270e-09	-3.980998e+00	-1.358468e+02
2.590000e-06	-5.010773e-07	-1.909252e-09	-3.901082e+00	-1.347430e+02
2.600000e-06	-4.907991e-07	-1.896486e-09	-3.821062e+00	-1.336230e+02
2.610000e-06	-4.805110e-07	-1.877067e-09	-3.740965e+00	-1.324863e+02
2.620000e-06	-4.702170e-07	-1.853948e-09	-3.660823e+00	-1.313326e+02
2.630000e-06	-4.599107e-07	-1.833046e-09	-3.580584e+00	-1.301615e+02
2.640000e-06	-4.495978e-07	-1.816375e-09	-3.500294e+00	-1.289728e+02
2.650000e-06	-4.392601e-07	-1.802447e-09	-3.419811e+00	-1.277664e+02
2.660000e-06	-4.288994e-07	-1.787232e-09	-3.339149e+00	-1.265422e+02
2.670000e-06	-4.185409e-07	-1.772263e-09	-3.258504e+00	-1.253002e+02
2.680000e-06	-4.081824e-07	-1.756639e-09	-3.177859e+00	-1.240407e+02
2.690000e-06	-3.978001e-07	-1.737588e-09	-3.097029e+00	-1.227641e+02
2.700000e-06	-3.873999e-07	-1.715184e-09	-3.016059e+00	-1.214709e+02
2.710000e-06	-3.770021e-07	-1.690668e-09	-2.935108e+00	-1.201618e+02
2.720000e-06	-3.665917e-07	-1.668778e-09	-2.854059e+00	-1.188379e+02
2.730000e-06	-3.561697e-07	-1.653106e-09	-2.772920e+00	-1.175002e+02
2.740000e-06	-3.457423e-07	-1.642487e-09	-2.691739e+00	-1.161501e+02
2.750000e-06	-3.353026e-07	-1.630188e-09	-2.610462e+00	-1.147890e+02
2.760000e-06	-3.248533e-07	-1.613842e-09	-2.529109e+00	-1.134186e+02
2.770000e-06	-3.144000e-07	-1.595289e-09	-2.447727e+00	-1.120406e+02
2.780000e-06	-3.039383e-07	-1.571170e-09	-2.366278e+00	-1.106567e+02
2.790000e-06	-2.934728e-07	-1.543368e-09	-2.284800e+00	-1.092689e+02
2.800000e-06	-2.830050e-07	-1.516633e-09	-2.203304e+00	-1.078788e+02
2.810000e-06	-2.725191e-07	-1.495486e-09	-2.121667e+00	-1.064883e+02
2.820000e-06	-2.620250e-07	-1.478925e-09	-2.039967e+00	-1.050988e+02
2.830000e-06	-2.515411e-07	-1.463704e-09	-1.958345e+00	-1.037119e+02
2.840000e-06	-2.410559e-07	-1.448830e-09	-1.876714e+00	-1.023288e+02
