# Temperatura_=_20.0
# Concentracion g/m^3_=_10000.0
# C_Vs_to_Am_M_A/Vsm_=_65563218390.804596
# pendiente_HvsI_1/m_=_3716.3
# ordenada_HvsI_A/m_=_1297.0
# frecuencia_Hz_=_81139.7701223109

Tiempo_(s)	Campo_(V.s)	Magnetizacion_(V.s)	Campo_(kA/m)	Magnetizacion_(A/m)
0.000000e+00	-2.074087e-06	-4.315746e-09	-1.614806e+01	-2.898545e+02
1.000000e-08	-2.074055e-06	-4.322659e-09	-1.614781e+01	-2.898486e+02
2.000000e-08	-2.074025e-06	-4.348191e-09	-1.614758e+01	-2.898483e+02
3.000000e-08	-2.073975e-06	-4.452131e-09	-1.614719e+01	-2.898547e+02
4.000000e-08	-2.073853e-06	-4.524686e-09	-1.614624e+01	-2.898686e+02
5.000000e-08	-2.073637e-06	-4.360076e-09	-1.614455e+01	-2.898905e+02
6.000000e-08	-2.073367e-06	-4.273012e-09	-1.614245e+01	-2.899205e+02
7.000000e-08	-2.073040e-06	-4.328820e-09	-1.613991e+01	-2.899584e+02
8.000000e-08	-2.072662e-06	-4.424060e-09	-1.613696e+01	-2.900039e+02
9.000000e-08	-2.072219e-06	-4.344905e-09	-1.613352e+01	-2.900561e+02
1.000000e-07	-2.071745e-06	-4.325343e-09	-1.612983e+01	-2.901142e+02
1.100000e-07	-2.071254e-06	-4.452063e-09	-1.612600e+01	-2.901770e+02
1.200000e-07	-2.070672e-06	-4.458908e-09	-1.612147e+01	-2.902434e+02
1.300000e-07	-2.070019e-06	-4.425170e-09	-1.611638e+01	-2.903120e+02
1.400000e-07	-2.069321e-06	-4.295738e-09	-1.611095e+01	-2.903814e+02
1.500000e-07	-2.068605e-06	-4.303416e-09	-1.610538e+01	-2.904503e+02
1.600000e-07	-2.067818e-06	-4.366621e-09	-1.609925e+01	-2.905174e+02
1.700000e-07	-2.066947e-06	-4.417631e-09	-1.609247e+01	-2.905813e+02
1.800000e-07	-2.066043e-06	-4.459055e-09	-1.608543e+01	-2.906409e+02
1.900000e-07	-2.065089e-06	-4.360301e-09	-1.607800e+01	-2.906953e+02
2.000000e-07	-2.064097e-06	-4.377903e-09	-1.607028e+01	-2.907434e+02
2.100000e-07	-2.063038e-06	-4.359498e-09	-1.606203e+01	-2.907845e+02
2.200000e-07	-2.061919e-06	-4.392859e-09	-1.605332e+01	-2.908181e+02
2.300000e-07	-2.060729e-06	-4.394130e-09	-1.604406e+01	-2.908436e+02
2.400000e-07	-2.059465e-06	-4.366733e-09	-1.603422e+01	-2.908607e+02
2.500000e-07	-2.058152e-06	-4.416694e-09	-1.602400e+01	-2.908690e+02
2.600000e-07	-2.056779e-06	-4.386781e-09	-1.601331e+01	-2.908684e+02
2.700000e-07	-2.055357e-06	-4.405535e-09	-1.600223e+01	-2.908587e+02
2.800000e-07	-2.053855e-06	-4.345204e-09	-1.599054e+01	-2.908398e+02
2.900000e-07	-2.052289e-06	-4.330652e-09	-1.597834e+01	-2.908114e+02
3.000000e-07	-2.050676e-06	-4.353849e-09	-1.596579e+01	-2.907733e+02
3.100000e-07	-2.049006e-06	-4.371454e-09	-1.595279e+01	-2.907253e+02
3.200000e-07	-2.047275e-06	-4.422473e-09	-1.593931e+01	-2.906670e+02
3.300000e-07	-2.045461e-06	-4.374431e-09	-1.592519e+01	-2.905978e+02
3.400000e-07	-2.043600e-06	-4.377463e-09	-1.591070e+01	-2.905174e+02
3.500000e-07	-2.041686e-06	-4.350625e-09	-1.589579e+01	-2.904250e+02
3.600000e-07	-2.039728e-06	-4.356936e-09	-1.588055e+01	-2.903199e+02
3.700000e-07	-2.037733e-06	-4.363601e-09	-1.586502e+01	-2.902014e+02
3.800000e-07	-2.035675e-06	-4.333093e-09	-1.584900e+01	-2.900687e+02
3.900000e-07	-2.033569e-06	-4.360297e-09	-1.583260e+01	-2.899209e+02
4.000000e-07	-2.031423e-06	-4.345024e-09	-1.581589e+01	-2.897573e+02
4.100000e-07	-2.029242e-06	-4.371251e-09	-1.579892e+01	-2.895771e+02
4.200000e-07	-2.027007e-06	-4.345198e-09	-1.578151e+01	-2.893798e+02
4.300000e-07	-2.024717e-06	-4.325044e-09	-1.576368e+01	-2.891648e+02
4.400000e-07	-2.022386e-06	-4.326812e-09	-1.574554e+01	-2.889320e+02
4.500000e-07	-2.020010e-06	-4.311213e-09	-1.572703e+01	-2.886810e+02
4.600000e-07	-2.017589e-06	-4.326441e-09	-1.570819e+01	-2.884121e+02
4.700000e-07	-2.015100e-06	-4.281838e-09	-1.568881e+01	-2.881255e+02
4.800000e-07	-2.012551e-06	-4.283844e-09	-1.566896e+01	-2.878218e+02
4.900000e-07	-2.009950e-06	-4.287200e-09	-1.564871e+01	-2.875016e+02
5.000000e-07	-2.007307e-06	-4.303379e-09	-1.562813e+01	-2.871661e+02
5.100000e-07	-2.004605e-06	-4.307000e-09	-1.560709e+01	-2.868162e+02
5.200000e-07	-2.001830e-06	-4.266529e-09	-1.558549e+01	-2.864533e+02
5.300000e-07	-1.998998e-06	-4.271958e-09	-1.556345e+01	-2.860789e+02
5.400000e-07	-1.996107e-06	-4.257111e-09	-1.554093e+01	-2.856945e+02
5.500000e-07	-1.993165e-06	-4.259995e-09	-1.551803e+01	-2.853017e+02
5.600000e-07	-1.990184e-06	-4.229494e-09	-1.549482e+01	-2.849022e+02
5.700000e-07	-1.987175e-06	-4.212572e-09	-1.547139e+01	-2.844975e+02
5.800000e-07	-1.984118e-06	-4.230528e-09	-1.544759e+01	-2.840893e+02
5.900000e-07	-1.981005e-06	-4.223069e-09	-1.542335e+01	-2.836791e+02
6.000000e-07	-1.977845e-06	-4.220824e-09	-1.539876e+01	-2.832683e+02
6.100000e-07	-1.974635e-06	-4.186938e-09	-1.537376e+01	-2.828582e+02
6.200000e-07	-1.971387e-06	-4.196878e-09	-1.534848e+01	-2.824499e+02
6.300000e-07	-1.968089e-06	-4.201865e-09	-1.532280e+01	-2.820445e+02
6.400000e-07	-1.964732e-06	-4.185801e-09	-1.529667e+01	-2.816428e+02
6.500000e-07	-1.961341e-06	-4.172010e-09	-1.527026e+01	-2.812456e+02
6.600000e-07	-1.957902e-06	-4.154226e-09	-1.524349e+01	-2.808535e+02
6.700000e-07	-1.954395e-06	-4.176952e-09	-1.521618e+01	-2.804671e+02
6.800000e-07	-1.950812e-06	-4.165370e-09	-1.518829e+01	-2.800865e+02
6.900000e-07	-1.947176e-06	-4.151107e-09	-1.515998e+01	-2.797122e+02
7.000000e-07	-1.943491e-06	-4.137435e-09	-1.513128e+01	-2.793443e+02
7.100000e-07	-1.939746e-06	-4.140894e-09	-1.510213e+01	-2.789828e+02
7.200000e-07	-1.935960e-06	-4.153384e-09	-1.507266e+01	-2.786279e+02
7.300000e-07	-1.932149e-06	-4.127791e-09	-1.504298e+01	-2.782793e+02
7.400000e-07	-1.928297e-06	-4.117804e-09	-1.501299e+01	-2.779371e+02
7.500000e-07	-1.924378e-06	-4.107925e-09	-1.498248e+01	-2.776009e+02
7.600000e-07	-1.920404e-06	-4.121520e-09	-1.495154e+01	-2.772704e+02
7.700000e-07	-1.916381e-06	-4.117900e-09	-1.492022e+01	-2.769452e+02
7.800000e-07	-1.912313e-06	-4.099437e-09	-1.488855e+01	-2.766249e+02
7.900000e-07	-1.908214e-06	-4.099089e-09	-1.485663e+01	-2.763087e+02
8.000000e-07	-1.904056e-06	-4.094056e-09	-1.482426e+01	-2.759960e+02
8.100000e-07	-1.899837e-06	-4.101026e-09	-1.479141e+01	-2.756859e+02
8.200000e-07	-1.895585e-06	-4.078891e-09	-1.475831e+01	-2.753774e+02
8.300000e-07	-1.891302e-06	-4.068869e-09	-1.472496e+01	-2.750694e+02
8.400000e-07	-1.886951e-06	-4.070448e-09	-1.469109e+01	-2.747607e+02
8.500000e-07	-1.882520e-06	-4.067399e-09	-1.465659e+01	-2.744499e+02
8.600000e-07	-1.878033e-06	-4.061394e-09	-1.462166e+01	-2.741357e+02
8.700000e-07	-1.873497e-06	-4.038089e-09	-1.458634e+01	-2.738167e+02
8.800000e-07	-1.868928e-06	-4.041386e-09	-1.455077e+01	-2.734913e+02
8.900000e-07	-1.864317e-06	-4.040840e-09	-1.451487e+01	-2.731583e+02
9.000000e-07	-1.859649e-06	-4.038595e-09	-1.447852e+01	-2.728162e+02
9.100000e-07	-1.854929e-06	-4.024881e-09	-1.444178e+01	-2.724639e+02
9.200000e-07	-1.850161e-06	-4.010551e-09	-1.440465e+01	-2.721001e+02
9.300000e-07	-1.845351e-06	-4.016842e-09	-1.436721e+01	-2.717240e+02
9.400000e-07	-1.840501e-06	-4.011384e-09	-1.432944e+01	-2.713348e+02
9.500000e-07	-1.835621e-06	-4.007811e-09	-1.429145e+01	-2.709321e+02
9.600000e-07	-1.830680e-06	-3.993044e-09	-1.425299e+01	-2.705154e+02
9.700000e-07	-1.825677e-06	-3.990802e-09	-1.421404e+01	-2.700848e+02
9.800000e-07	-1.820626e-06	-3.990857e-09	-1.417470e+01	-2.696405e+02
9.900000e-07	-1.815512e-06	-3.975499e-09	-1.413489e+01	-2.691828e+02
1.000000e-06	-1.810340e-06	-3.963527e-09	-1.409463e+01	-2.687122e+02
1.010000e-06	-1.805098e-06	-3.951272e-09	-1.405381e+01	-2.682295e+02
1.020000e-06	-1.799782e-06	-3.955010e-09	-1.401242e+01	-2.677356e+02
1.030000e-06	-1.794415e-06	-3.947326e-09	-1.397064e+01	-2.672311e+02
1.040000e-06	-1.789011e-06	-3.933594e-09	-1.392856e+01	-2.667171e+02
1.050000e-06	-1.783571e-06	-3.923264e-09	-1.388621e+01	-2.661943e+02
1.060000e-06	-1.778084e-06	-3.915897e-09	-1.384349e+01	-2.656635e+02
1.070000e-06	-1.772550e-06	-3.911668e-09	-1.380040e+01	-2.651252e+02
1.080000e-06	-1.766967e-06	-3.893080e-09	-1.375694e+01	-2.645800e+02
1.090000e-06	-1.761343e-06	-3.886081e-09	-1.371315e+01	-2.640279e+02
1.100000e-06	-1.755681e-06	-3.882911e-09	-1.366907e+01	-2.634691e+02
1.110000e-06	-1.749978e-06	-3.879886e-09	-1.362467e+01	-2.629033e+02
1.120000e-06	-1.744234e-06	-3.870167e-09	-1.357995e+01	-2.623302e+02
1.130000e-06	-1.738431e-06	-3.852956e-09	-1.353477e+01	-2.617493e+02
1.140000e-06	-1.732574e-06	-3.846876e-09	-1.348917e+01	-2.611598e+02
1.150000e-06	-1.726675e-06	-3.837786e-09	-1.344324e+01	-2.605611e+02
1.160000e-06	-1.720731e-06	-3.830423e-09	-1.339696e+01	-2.599523e+02
1.170000e-06	-1.714731e-06	-3.815315e-09	-1.335025e+01	-2.593327e+02
1.180000e-06	-1.708685e-06	-3.802379e-09	-1.330317e+01	-2.587015e+02
1.190000e-06	-1.702592e-06	-3.795341e-09	-1.325574e+01	-2.580583e+02
1.200000e-06	-1.696454e-06	-3.786529e-09	-1.320795e+01	-2.574027e+02
1.210000e-06	-1.690282e-06	-3.778417e-09	-1.315989e+01	-2.567345e+02
1.220000e-06	-1.684068e-06	-3.762015e-09	-1.311152e+01	-2.560540e+02
1.230000e-06	-1.677817e-06	-3.754778e-09	-1.306285e+01	-2.553616e+02
1.240000e-06	-1.671523e-06	-3.745665e-09	-1.301385e+01	-2.546581e+02
1.250000e-06	-1.665185e-06	-3.729276e-09	-1.296450e+01	-2.539447e+02
1.260000e-06	-1.658804e-06	-3.712353e-09	-1.291482e+01	-2.532226e+02
1.270000e-06	-1.652382e-06	-3.697069e-09	-1.286482e+01	-2.524937e+02
1.280000e-06	-1.645922e-06	-3.691457e-09	-1.281452e+01	-2.517596e+02
1.290000e-06	-1.639421e-06	-3.682723e-09	-1.276391e+01	-2.510225e+02
1.300000e-06	-1.632883e-06	-3.676073e-09	-1.271301e+01	-2.502844e+02
1.310000e-06	-1.626307e-06	-3.668439e-09	-1.266181e+01	-2.495475e+02
1.320000e-06	-1.619694e-06	-3.658738e-09	-1.261033e+01	-2.488138e+02
1.330000e-06	-1.613038e-06	-3.646916e-09	-1.255850e+01	-2.480852e+02
1.340000e-06	-1.606323e-06	-3.628053e-09	-1.250623e+01	-2.473635e+02
1.350000e-06	-1.599564e-06	-3.615116e-09	-1.245360e+01	-2.466501e+02
1.360000e-06	-1.592757e-06	-3.606519e-09	-1.240060e+01	-2.459462e+02
1.370000e-06	-1.585901e-06	-3.601950e-09	-1.234723e+01	-2.452525e+02
1.380000e-06	-1.579011e-06	-3.591584e-09	-1.229358e+01	-2.445696e+02
1.390000e-06	-1.572087e-06	-3.576744e-09	-1.223968e+01	-2.438975e+02
1.400000e-06	-1.565128e-06	-3.566250e-09	-1.218550e+01	-2.432358e+02
1.410000e-06	-1.558132e-06	-3.555302e-09	-1.213103e+01	-2.425839e+02
1.420000e-06	-1.551112e-06	-3.549484e-09	-1.207637e+01	-2.419409e+02
1.430000e-06	-1.544059e-06	-3.543145e-09	-1.202146e+01	-2.413055e+02
1.440000e-06	-1.536952e-06	-3.538378e-09	-1.196613e+01	-2.406762e+02
1.450000e-06	-1.529794e-06	-3.533833e-09	-1.191040e+01	-2.400515e+02
1.460000e-06	-1.522602e-06	-3.524254e-09	-1.185440e+01	-2.394296e+02
1.470000e-06	-1.515375e-06	-3.511866e-09	-1.179814e+01	-2.388089e+02
1.480000e-06	-1.508114e-06	-3.492602e-09	-1.174160e+01	-2.381875e+02
1.490000e-06	-1.500827e-06	-3.481240e-09	-1.168487e+01	-2.375639e+02
1.500000e-06	-1.493498e-06	-3.476038e-09	-1.162781e+01	-2.369367e+02
1.510000e-06	-1.486124e-06	-3.469130e-09	-1.157040e+01	-2.363044e+02
1.520000e-06	-1.478721e-06	-3.463621e-09	-1.151276e+01	-2.356659e+02
1.530000e-06	-1.471273e-06	-3.453637e-09	-1.145478e+01	-2.350203e+02
1.540000e-06	-1.463771e-06	-3.445049e-09	-1.139637e+01	-2.343669e+02
1.550000e-06	-1.456219e-06	-3.435025e-09	-1.133757e+01	-2.337050e+02
1.560000e-06	-1.448616e-06	-3.423722e-09	-1.127837e+01	-2.330343e+02
1.570000e-06	-1.440962e-06	-3.409456e-09	-1.121879e+01	-2.323545e+02
1.580000e-06	-1.433266e-06	-3.392658e-09	-1.115887e+01	-2.316654e+02
1.590000e-06	-1.425527e-06	-3.385345e-09	-1.109862e+01	-2.309670e+02
1.600000e-06	-1.417752e-06	-3.379509e-09	-1.103808e+01	-2.302591e+02
1.610000e-06	-1.409959e-06	-3.375347e-09	-1.097741e+01	-2.295417e+02
1.620000e-06	-1.402137e-06	-3.365851e-09	-1.091651e+01	-2.288149e+02
1.630000e-06	-1.394273e-06	-3.354340e-09	-1.085528e+01	-2.280783e+02
1.640000e-06	-1.386355e-06	-3.343252e-09	-1.079364e+01	-2.273319e+02
1.650000e-06	-1.378386e-06	-3.326746e-09	-1.073159e+01	-2.265753e+02
1.660000e-06	-1.370385e-06	-3.310490e-09	-1.066930e+01	-2.258084e+02
1.670000e-06	-1.362335e-06	-3.290475e-09	-1.060663e+01	-2.250306e+02
1.680000e-06	-1.354236e-06	-3.274677e-09	-1.054357e+01	-2.242416e+02
1.690000e-06	-1.346103e-06	-3.261353e-09	-1.048025e+01	-2.234409e+02
1.700000e-06	-1.337930e-06	-3.249961e-09	-1.041662e+01	-2.226282e+02
1.710000e-06	-1.329716e-06	-3.239354e-09	-1.035266e+01	-2.218031e+02
1.720000e-06	-1.321464e-06	-3.226520e-09	-1.028842e+01	-2.209652e+02
1.730000e-06	-1.313187e-06	-3.216188e-09	-1.022398e+01	-2.201145e+02
1.740000e-06	-1.304900e-06	-3.202221e-09	-1.015946e+01	-2.192509e+02
1.750000e-06	-1.296587e-06	-3.188410e-09	-1.009474e+01	-2.183744e+02
1.760000e-06	-1.288222e-06	-3.173456e-09	-1.002961e+01	-2.174853e+02
1.770000e-06	-1.279825e-06	-3.158399e-09	-9.964236e+00	-2.165841e+02
1.780000e-06	-1.271401e-06	-3.143800e-09	-9.898647e+00	-2.156712e+02
1.790000e-06	-1.262936e-06	-3.126921e-09	-9.832741e+00	-2.147475e+02
1.800000e-06	-1.254439e-06	-3.113776e-09	-9.766592e+00	-2.138137e+02
1.810000e-06	-1.245922e-06	-3.098930e-09	-9.700282e+00	-2.128708e+02
1.820000e-06	-1.237385e-06	-3.085179e-09	-9.633814e+00	-2.119197e+02
1.830000e-06	-1.228827e-06	-3.070178e-09	-9.567184e+00	-2.109613e+02
1.840000e-06	-1.220254e-06	-3.053839e-09	-9.500434e+00	-2.099968e+02
1.850000e-06	-1.211652e-06	-3.038630e-09	-9.433467e+00	-2.090270e+02
1.860000e-06	-1.203010e-06	-3.019570e-09	-9.366181e+00	-2.080527e+02
1.870000e-06	-1.194339e-06	-3.003743e-09	-9.298672e+00	-2.070746e+02
1.880000e-06	-1.185653e-06	-2.990052e-09	-9.231050e+00	-2.060934e+02
1.890000e-06	-1.176945e-06	-2.976811e-09	-9.163248e+00	-2.051095e+02
1.900000e-06	-1.168203e-06	-2.964056e-09	-9.095185e+00	-2.041232e+02
1.910000e-06	-1.159424e-06	-2.950814e-09	-9.026834e+00	-2.031346e+02
1.920000e-06	-1.150614e-06	-2.938656e-09	-8.958244e+00	-2.021438e+02
1.930000e-06	-1.141772e-06	-2.923414e-09	-8.889405e+00	-2.011508e+02
1.940000e-06	-1.132906e-06	-2.908644e-09	-8.820379e+00	-2.001553e+02
1.950000e-06	-1.124025e-06	-2.893032e-09	-8.751233e+00	-1.991573e+02
1.960000e-06	-1.115127e-06	-2.878475e-09	-8.681955e+00	-1.981565e+02
1.970000e-06	-1.106202e-06	-2.864745e-09	-8.612472e+00	-1.971529e+02
1.980000e-06	-1.097244e-06	-2.848092e-09	-8.542731e+00	-1.961464e+02
1.990000e-06	-1.088263e-06	-2.829487e-09	-8.472809e+00	-1.951370e+02
2.000000e-06	-1.079256e-06	-2.810901e-09	-8.402680e+00	-1.941249e+02
2.010000e-06	-1.070215e-06	-2.798935e-09	-8.332290e+00	-1.931105e+02
2.020000e-06	-1.061126e-06	-2.784007e-09	-8.261529e+00	-1.920941e+02
2.030000e-06	-1.051994e-06	-2.769040e-09	-8.190430e+00	-1.910765e+02
2.040000e-06	-1.042820e-06	-2.757521e-09	-8.119005e+00	-1.900584e+02
2.050000e-06	-1.033610e-06	-2.745733e-09	-8.047294e+00	-1.890405e+02
2.060000e-06	-1.024371e-06	-2.734441e-09	-7.975363e+00	-1.880239e+02
2.070000e-06	-1.015109e-06	-2.714971e-09	-7.903255e+00	-1.870094e+02
2.080000e-06	-1.005828e-06	-2.696052e-09	-7.830998e+00	-1.859981e+02
2.090000e-06	-9.965282e-07	-2.681825e-09	-7.758593e+00	-1.849907e+02
2.100000e-06	-9.872128e-07	-2.667097e-09	-7.686067e+00	-1.839881e+02
2.110000e-06	-9.778769e-07	-2.651243e-09	-7.613381e+00	-1.829909e+02
2.120000e-06	-9.685181e-07	-2.632590e-09	-7.540517e+00	-1.819996e+02
2.130000e-06	-9.591239e-07	-2.618033e-09	-7.467377e+00	-1.810142e+02
2.140000e-06	-9.497150e-07	-2.605620e-09	-7.394122e+00	-1.800348e+02
2.150000e-06	-9.402880e-07	-2.592254e-09	-7.320727e+00	-1.790611e+02
2.160000e-06	-9.308317e-07	-2.576587e-09	-7.247104e+00	-1.780924e+02
2.170000e-06	-9.213596e-07	-2.560224e-09	-7.173358e+00	-1.771279e+02
2.180000e-06	-9.118591e-07	-2.543592e-09	-7.099391e+00	-1.761664e+02
2.190000e-06	-9.023353e-07	-2.528512e-09	-7.025242e+00	-1.752068e+02
2.200000e-06	-8.927898e-07	-2.518851e-09	-6.950924e+00	-1.742475e+02
2.210000e-06	-8.832176e-07	-2.506066e-09	-6.876399e+00	-1.732868e+02
2.220000e-06	-8.736292e-07	-2.491925e-09	-6.801747e+00	-1.723232e+02
2.230000e-06	-8.640119e-07	-2.474805e-09	-6.726871e+00	-1.713548e+02
2.240000e-06	-8.543710e-07	-2.456234e-09	-6.651810e+00	-1.703801e+02
2.250000e-06	-8.447186e-07	-2.441142e-09	-6.576660e+00	-1.693974e+02
2.260000e-06	-8.350434e-07	-2.426110e-09	-6.501333e+00	-1.684053e+02
2.270000e-06	-8.253510e-07	-2.410803e-09	-6.425871e+00	-1.674027e+02
2.280000e-06	-8.156375e-07	-2.393094e-09	-6.350246e+00	-1.663883e+02
2.290000e-06	-8.058945e-07	-2.378936e-09	-6.274390e+00	-1.653615e+02
2.300000e-06	-7.961317e-07	-2.366030e-09	-6.198381e+00	-1.643217e+02
2.310000e-06	-7.863631e-07	-2.347688e-09	-6.122326e+00	-1.632686e+02
2.320000e-06	-7.765869e-07	-2.327175e-09	-6.046213e+00	-1.622022e+02
2.330000e-06	-7.667907e-07	-2.310678e-09	-5.969943e+00	-1.611226e+02
2.340000e-06	-7.569760e-07	-2.298444e-09	-5.893529e+00	-1.600303e+02
2.350000e-06	-7.471380e-07	-2.283650e-09	-5.816934e+00	-1.589259e+02
2.360000e-06	-7.372658e-07	-2.264926e-09	-5.740073e+00	-1.578099e+02
2.370000e-06	-7.273495e-07	-2.242842e-09	-5.662869e+00	-1.566834e+02
2.380000e-06	-7.174081e-07	-2.224218e-09	-5.585469e+00	-1.555470e+02
2.390000e-06	-7.074574e-07	-2.208535e-09	-5.507997e+00	-1.544018e+02
2.400000e-06	-6.974615e-07	-2.188036e-09	-5.430172e+00	-1.532485e+02
2.410000e-06	-6.874232e-07	-2.167548e-09	-5.352018e+00	-1.520879e+02
2.420000e-06	-6.773661e-07	-2.151265e-09	-5.273717e+00	-1.509209e+02
2.430000e-06	-6.672961e-07	-2.137839e-09	-5.195315e+00	-1.497480e+02
2.440000e-06	-6.572163e-07	-2.120833e-09	-5.116838e+00	-1.485698e+02
2.450000e-06	-6.471317e-07	-2.101114e-09	-5.038324e+00	-1.473867e+02
2.460000e-06	-6.370418e-07	-2.082613e-09	-4.959767e+00	-1.461990e+02
2.470000e-06	-6.269364e-07	-2.063948e-09	-4.881090e+00	-1.450071e+02
2.480000e-06	-6.168176e-07	-2.045907e-09	-4.802309e+00	-1.438110e+02
2.490000e-06	-6.066921e-07	-2.027008e-09	-4.723476e+00	-1.426108e+02
2.500000e-06	-5.965531e-07	-2.009264e-09	-4.644538e+00	-1.414068e+02
2.510000e-06	-5.863972e-07	-1.993937e-09	-4.565467e+00	-1.401989e+02
2.520000e-06	-5.762302e-07	-1.979498e-09	-4.486311e+00	-1.389872e+02
2.530000e-06	-5.660511e-07	-1.962564e-09	-4.407060e+00	-1.377719e+02
2.540000e-06	-5.558639e-07	-1.941235e-09	-4.327747e+00	-1.365532e+02
2.550000e-06	-5.456644e-07	-1.923121e-09	-4.248337e+00	-1.353313e+02
2.560000e-06	-5.354477e-07	-1.906929e-09	-4.168794e+00	-1.341066e+02
2.570000e-06	-5.252091e-07	-1.888593e-09	-4.089080e+00	-1.328795e+02
2.580000e-06	-5.149522e-07	-1.867290e-09	-4.009224e+00	-1.316506e+02
2.590000e-06	-5.046964e-07	-1.845697e-09	-3.929375e+00	-1.304205e+02
2.600000e-06	-4.944346e-07	-1.827967e-09	-3.849481e+00	-1.291897e+02
2.610000e-06	-4.841465e-07	-1.810711e-09	-3.769382e+00	-1.279591e+02
2.620000e-06	-4.738450e-07	-1.792041e-09	-3.689178e+00	-1.267294e+02
2.630000e-06	-4.635398e-07	-1.771928e-09	-3.608946e+00	-1.255013e+02
2.640000e-06	-4.532158e-07	-1.755085e-09	-3.528567e+00	-1.242757e+02
2.650000e-06	-4.428805e-07	-1.743961e-09	-3.448100e+00	-1.230531e+02
2.660000e-06	-4.325419e-07	-1.730870e-09	-3.367608e+00	-1.218342e+02
2.670000e-06	-4.221749e-07	-1.710629e-09	-3.286894e+00	-1.206197e+02
2.680000e-06	-4.117820e-07	-1.688247e-09	-3.205979e+00	-1.194099e+02
2.690000e-06	-4.013899e-07	-1.667648e-09	-3.125071e+00	-1.182052e+02
2.700000e-06	-3.909931e-07	-1.651119e-09	-3.044125e+00	-1.170059e+02
2.710000e-06	-3.805826e-07	-1.638006e-09	-2.963073e+00	-1.158121e+02
2.720000e-06	-3.701605e-07	-1.622841e-09	-2.881930e+00	-1.146236e+02
2.730000e-06	-3.597336e-07	-1.605291e-09	-2.800750e+00	-1.134402e+02
2.740000e-06	-3.493039e-07	-1.591121e-09	-2.719549e+00	-1.122617e+02
2.750000e-06	-3.388633e-07	-1.578046e-09	-2.638262e+00	-1.110875e+02
2.760000e-06	-3.284210e-07	-1.559301e-09	-2.556962e+00	-1.099170e+02
2.770000e-06	-3.179738e-07	-1.535051e-09	-2.475624e+00	-1.087495e+02
2.780000e-06	-3.075112e-07	-1.511984e-09	-2.394166e+00	-1.075841e+02
2.790000e-06	-2.970367e-07	-1.496695e-09	-2.312616e+00	-1.064199e+02
2.800000e-06	-2.865494e-07	-1.484165e-09	-2.230965e+00	-1.052559e+02
2.810000e-06	-2.760590e-07	-1.468749e-09	-2.149291e+00	-1.040909e+02
2.820000e-06	-2.655744e-07	-1.452073e-09	-2.067662e+00	-1.029239e+02
2.830000e-06	-2.550896e-07	-1.437254e-09	-1.986032e+00	-1.017535e+02
2.840000e-06	-2.446025e-07	-1.423375e-09	-1.904383e+00	-1.005788e+02
2.850000e-06	-2.341121e-07	-1.407320e-09	-1.822709e+00	-9.939837e+01
