# Temperatura_=_20.0
# Concentracion g/m^3_=_10000.0
# C_Vs_to_Am_M_A/Vsm_=_65563218390.804596
# pendiente_HvsI_1/m_=_3716.3
# ordenada_HvsI_A/m_=_1297.0
# frecuencia_Hz_=_81139.84974467878

Tiempo_(s)	Campo_(V.s)	Magnetizacion_(V.s)	Campo_(kA/m)	Magnetizacion_(A/m)
0.000000e+00	-2.075237e-06	-4.280555e-09	-1.614710e+01	-2.927712e+02
1.000000e-08	-2.075174e-06	-4.336110e-09	-1.614661e+01	-2.928182e+02
2.000000e-08	-2.075121e-06	-4.423470e-09	-1.614619e+01	-2.928664e+02
3.000000e-08	-2.075067e-06	-4.573130e-09	-1.614577e+01	-2.929182e+02
4.000000e-08	-2.074966e-06	-4.666977e-09	-1.614498e+01	-2.929760e+02
5.000000e-08	-2.074766e-06	-4.397812e-09	-1.614343e+01	-2.930417e+02
6.000000e-08	-2.074488e-06	-4.219337e-09	-1.614127e+01	-2.931174e+02
7.000000e-08	-2.074142e-06	-4.276590e-09	-1.613858e+01	-2.932045e+02
8.000000e-08	-2.073739e-06	-4.492329e-09	-1.613544e+01	-2.933042e+02
9.000000e-08	-2.073279e-06	-4.454221e-09	-1.613186e+01	-2.934173e+02
1.000000e-07	-2.072789e-06	-4.387354e-09	-1.612805e+01	-2.935438e+02
1.100000e-07	-2.072303e-06	-4.565189e-09	-1.612427e+01	-2.936834e+02
1.200000e-07	-2.071730e-06	-4.572751e-09	-1.611981e+01	-2.938352e+02
1.300000e-07	-2.071083e-06	-4.499618e-09	-1.611478e+01	-2.939979e+02
1.400000e-07	-2.070376e-06	-4.277843e-09	-1.610927e+01	-2.941694e+02
1.500000e-07	-2.069637e-06	-4.272879e-09	-1.610352e+01	-2.943474e+02
1.600000e-07	-2.068847e-06	-4.424906e-09	-1.609738e+01	-2.945293e+02
1.700000e-07	-2.067966e-06	-4.530198e-09	-1.609052e+01	-2.947121e+02
1.800000e-07	-2.067053e-06	-4.616075e-09	-1.608342e+01	-2.948927e+02
1.900000e-07	-2.066076e-06	-4.442648e-09	-1.607581e+01	-2.950679e+02
2.000000e-07	-2.065075e-06	-4.420370e-09	-1.606802e+01	-2.952347e+02
2.100000e-07	-2.064025e-06	-4.385617e-09	-1.605985e+01	-2.953902e+02
2.200000e-07	-2.062909e-06	-4.422865e-09	-1.605118e+01	-2.955317e+02
2.300000e-07	-2.061720e-06	-4.466562e-09	-1.604192e+01	-2.956571e+02
2.400000e-07	-2.060452e-06	-4.428278e-09	-1.603205e+01	-2.957644e+02
2.500000e-07	-2.059141e-06	-4.524267e-09	-1.602186e+01	-2.958523e+02
2.600000e-07	-2.057751e-06	-4.492737e-09	-1.601104e+01	-2.959199e+02
2.700000e-07	-2.056314e-06	-4.506310e-09	-1.599986e+01	-2.959670e+02
2.800000e-07	-2.054815e-06	-4.410304e-09	-1.598820e+01	-2.959935e+02
2.900000e-07	-2.053248e-06	-4.360349e-09	-1.597601e+01	-2.960001e+02
3.000000e-07	-2.051613e-06	-4.418678e-09	-1.596328e+01	-2.959875e+02
3.100000e-07	-2.049911e-06	-4.449170e-09	-1.595004e+01	-2.959571e+02
3.200000e-07	-2.048178e-06	-4.534259e-09	-1.593655e+01	-2.959100e+02
3.300000e-07	-2.046372e-06	-4.461257e-09	-1.592250e+01	-2.958477e+02
3.400000e-07	-2.044502e-06	-4.455790e-09	-1.590795e+01	-2.957716e+02
3.500000e-07	-2.042576e-06	-4.432792e-09	-1.589297e+01	-2.956830e+02
3.600000e-07	-2.040606e-06	-4.431941e-09	-1.587763e+01	-2.955830e+02
3.700000e-07	-2.038586e-06	-4.456165e-09	-1.586192e+01	-2.954723e+02
3.800000e-07	-2.036511e-06	-4.409209e-09	-1.584578e+01	-2.953514e+02
3.900000e-07	-2.034403e-06	-4.453158e-09	-1.582937e+01	-2.952205e+02
4.000000e-07	-2.032244e-06	-4.427115e-09	-1.581257e+01	-2.950794e+02
4.100000e-07	-2.030054e-06	-4.455737e-09	-1.579553e+01	-2.949275e+02
4.200000e-07	-2.027827e-06	-4.436376e-09	-1.577821e+01	-2.947640e+02
4.300000e-07	-2.025550e-06	-4.406425e-09	-1.576049e+01	-2.945878e+02
4.400000e-07	-2.023220e-06	-4.425975e-09	-1.574236e+01	-2.943977e+02
4.500000e-07	-2.020837e-06	-4.401797e-09	-1.572382e+01	-2.941923e+02
4.600000e-07	-2.018413e-06	-4.430286e-09	-1.570495e+01	-2.939704e+02
4.700000e-07	-2.015915e-06	-4.370887e-09	-1.568552e+01	-2.937307e+02
4.800000e-07	-2.013364e-06	-4.366508e-09	-1.566567e+01	-2.934723e+02
4.900000e-07	-2.010760e-06	-4.378824e-09	-1.564541e+01	-2.931944e+02
5.000000e-07	-2.008098e-06	-4.395846e-09	-1.562470e+01	-2.928966e+02
5.100000e-07	-2.005402e-06	-4.415394e-09	-1.560372e+01	-2.925792e+02
5.200000e-07	-2.002634e-06	-4.356435e-09	-1.558218e+01	-2.922425e+02
5.300000e-07	-1.999810e-06	-4.367716e-09	-1.556021e+01	-2.918874e+02
5.400000e-07	-1.996932e-06	-4.351827e-09	-1.553782e+01	-2.915155e+02
5.500000e-07	-1.993995e-06	-4.363712e-09	-1.551497e+01	-2.911285e+02
5.600000e-07	-1.991022e-06	-4.343264e-09	-1.549183e+01	-2.907287e+02
5.700000e-07	-1.988012e-06	-4.315639e-09	-1.546841e+01	-2.903184e+02
5.800000e-07	-1.984951e-06	-4.342521e-09	-1.544460e+01	-2.899004e+02
5.900000e-07	-1.981833e-06	-4.326602e-09	-1.542034e+01	-2.894775e+02
6.000000e-07	-1.978679e-06	-4.327395e-09	-1.539579e+01	-2.890526e+02
6.100000e-07	-1.975476e-06	-4.277211e-09	-1.537087e+01	-2.886284e+02
6.200000e-07	-1.972234e-06	-4.280793e-09	-1.534565e+01	-2.882077e+02
6.300000e-07	-1.968943e-06	-4.303761e-09	-1.532004e+01	-2.877928e+02
6.400000e-07	-1.965577e-06	-4.298029e-09	-1.529385e+01	-2.873859e+02
6.500000e-07	-1.962153e-06	-4.296667e-09	-1.526721e+01	-2.869886e+02
6.600000e-07	-1.958677e-06	-4.263338e-09	-1.524016e+01	-2.866024e+02
6.700000e-07	-1.955154e-06	-4.282687e-09	-1.521275e+01	-2.862281e+02
6.800000e-07	-1.951574e-06	-4.267807e-09	-1.518489e+01	-2.858664e+02
6.900000e-07	-1.947936e-06	-4.250333e-09	-1.515659e+01	-2.855172e+02
7.000000e-07	-1.944248e-06	-4.239255e-09	-1.512789e+01	-2.851804e+02
7.100000e-07	-1.940496e-06	-4.241629e-09	-1.509869e+01	-2.848553e+02
7.200000e-07	-1.936701e-06	-4.271677e-09	-1.506917e+01	-2.845409e+02
7.300000e-07	-1.932858e-06	-4.246817e-09	-1.503927e+01	-2.842363e+02
7.400000e-07	-1.928969e-06	-4.235960e-09	-1.500901e+01	-2.839399e+02
7.500000e-07	-1.925034e-06	-4.219323e-09	-1.497839e+01	-2.836505e+02
7.600000e-07	-1.921065e-06	-4.231915e-09	-1.494751e+01	-2.833663e+02
7.700000e-07	-1.917052e-06	-4.236970e-09	-1.491628e+01	-2.830858e+02
7.800000e-07	-1.912983e-06	-4.210110e-09	-1.488462e+01	-2.828074e+02
7.900000e-07	-1.908890e-06	-4.206087e-09	-1.485278e+01	-2.825296e+02
8.000000e-07	-1.904737e-06	-4.196695e-09	-1.482046e+01	-2.822508e+02
8.100000e-07	-1.900518e-06	-4.217475e-09	-1.478763e+01	-2.819696e+02
8.200000e-07	-1.896242e-06	-4.206363e-09	-1.475437e+01	-2.816845e+02
8.300000e-07	-1.891919e-06	-4.194098e-09	-1.472072e+01	-2.813942e+02
8.400000e-07	-1.887535e-06	-4.197877e-09	-1.468661e+01	-2.810973e+02
8.500000e-07	-1.883093e-06	-4.197897e-09	-1.465205e+01	-2.807924e+02
8.600000e-07	-1.878612e-06	-4.200400e-09	-1.461719e+01	-2.804784e+02
8.700000e-07	-1.874066e-06	-4.166592e-09	-1.458182e+01	-2.801540e+02
8.800000e-07	-1.869475e-06	-4.161206e-09	-1.454609e+01	-2.798177e+02
8.900000e-07	-1.864837e-06	-4.164599e-09	-1.451001e+01	-2.794685e+02
9.000000e-07	-1.860156e-06	-4.172358e-09	-1.447358e+01	-2.791051e+02
9.100000e-07	-1.855446e-06	-4.165401e-09	-1.443693e+01	-2.787263e+02
9.200000e-07	-1.850685e-06	-4.143599e-09	-1.439989e+01	-2.783310e+02
9.300000e-07	-1.845876e-06	-4.152800e-09	-1.436247e+01	-2.779182e+02
9.400000e-07	-1.841020e-06	-4.149055e-09	-1.432469e+01	-2.774870e+02
9.500000e-07	-1.836118e-06	-4.143351e-09	-1.428655e+01	-2.770368e+02
9.600000e-07	-1.831166e-06	-4.119066e-09	-1.424802e+01	-2.765670e+02
9.700000e-07	-1.826164e-06	-4.110477e-09	-1.420910e+01	-2.760774e+02
9.800000e-07	-1.821110e-06	-4.117000e-09	-1.416977e+01	-2.755681e+02
9.900000e-07	-1.815981e-06	-4.102417e-09	-1.412987e+01	-2.750393e+02
1.000000e-06	-1.810780e-06	-4.087658e-09	-1.408939e+01	-2.744917e+02
1.010000e-06	-1.805501e-06	-4.063454e-09	-1.404832e+01	-2.739261e+02
1.020000e-06	-1.800180e-06	-4.066138e-09	-1.400692e+01	-2.733437e+02
1.030000e-06	-1.794823e-06	-4.066221e-09	-1.396524e+01	-2.727459e+02
1.040000e-06	-1.789413e-06	-4.056371e-09	-1.392314e+01	-2.721342e+02
1.050000e-06	-1.783959e-06	-4.045481e-09	-1.388070e+01	-2.715104e+02
1.060000e-06	-1.778445e-06	-4.031280e-09	-1.383780e+01	-2.708763e+02
1.070000e-06	-1.772892e-06	-4.027982e-09	-1.379460e+01	-2.702336e+02
1.080000e-06	-1.767317e-06	-4.004059e-09	-1.375122e+01	-2.695842e+02
1.090000e-06	-1.761706e-06	-3.988246e-09	-1.370756e+01	-2.689296e+02
1.100000e-06	-1.756030e-06	-3.980197e-09	-1.366339e+01	-2.682713e+02
1.110000e-06	-1.750307e-06	-3.978595e-09	-1.361886e+01	-2.676106e+02
1.120000e-06	-1.744556e-06	-3.977168e-09	-1.357412e+01	-2.669484e+02
1.130000e-06	-1.738746e-06	-3.958792e-09	-1.352891e+01	-2.662854e+02
1.140000e-06	-1.732872e-06	-3.949567e-09	-1.348321e+01	-2.656219e+02
1.150000e-06	-1.726956e-06	-3.936047e-09	-1.343718e+01	-2.649580e+02
1.160000e-06	-1.721007e-06	-3.924564e-09	-1.339089e+01	-2.642935e+02
1.170000e-06	-1.715013e-06	-3.904146e-09	-1.334424e+01	-2.636279e+02
1.180000e-06	-1.708947e-06	-3.886414e-09	-1.329705e+01	-2.629605e+02
1.190000e-06	-1.702822e-06	-3.884447e-09	-1.324940e+01	-2.622905e+02
1.200000e-06	-1.696666e-06	-3.879480e-09	-1.320149e+01	-2.616171e+02
1.210000e-06	-1.690472e-06	-3.874688e-09	-1.315329e+01	-2.609395e+02
1.220000e-06	-1.684239e-06	-3.857951e-09	-1.310480e+01	-2.602569e+02
1.230000e-06	-1.677987e-06	-3.849918e-09	-1.305615e+01	-2.595686e+02
1.240000e-06	-1.671697e-06	-3.840885e-09	-1.300721e+01	-2.588742e+02
1.250000e-06	-1.665352e-06	-3.825073e-09	-1.295784e+01	-2.581736e+02
1.260000e-06	-1.658971e-06	-3.811087e-09	-1.290820e+01	-2.574667e+02
1.270000e-06	-1.652550e-06	-3.795275e-09	-1.285823e+01	-2.567541e+02
1.280000e-06	-1.646086e-06	-3.790656e-09	-1.280794e+01	-2.560364e+02
1.290000e-06	-1.639587e-06	-3.782095e-09	-1.275737e+01	-2.553146e+02
1.300000e-06	-1.633050e-06	-3.773451e-09	-1.270651e+01	-2.545898e+02
1.310000e-06	-1.626474e-06	-3.761947e-09	-1.265534e+01	-2.538635e+02
1.320000e-06	-1.619854e-06	-3.752597e-09	-1.260383e+01	-2.531372e+02
1.330000e-06	-1.613186e-06	-3.746399e-09	-1.255195e+01	-2.524125e+02
1.340000e-06	-1.606467e-06	-3.730135e-09	-1.249967e+01	-2.516910e+02
1.350000e-06	-1.599703e-06	-3.717378e-09	-1.244704e+01	-2.509741e+02
1.360000e-06	-1.592889e-06	-3.704244e-09	-1.239402e+01	-2.502634e+02
1.370000e-06	-1.586023e-06	-3.694914e-09	-1.234060e+01	-2.495598e+02
1.380000e-06	-1.579117e-06	-3.681647e-09	-1.228686e+01	-2.488644e+02
1.390000e-06	-1.572182e-06	-3.666870e-09	-1.223290e+01	-2.481777e+02
1.400000e-06	-1.565220e-06	-3.659568e-09	-1.217873e+01	-2.475000e+02
1.410000e-06	-1.558219e-06	-3.651955e-09	-1.212426e+01	-2.468313e+02
1.420000e-06	-1.551174e-06	-3.650853e-09	-1.206944e+01	-2.461710e+02
1.430000e-06	-1.544084e-06	-3.642718e-09	-1.201428e+01	-2.455186e+02
1.440000e-06	-1.536959e-06	-3.632314e-09	-1.195884e+01	-2.448732e+02
1.450000e-06	-1.529803e-06	-3.623052e-09	-1.190316e+01	-2.442334e+02
1.460000e-06	-1.522608e-06	-3.608487e-09	-1.184718e+01	-2.435980e+02
1.470000e-06	-1.515374e-06	-3.596180e-09	-1.179089e+01	-2.429656e+02
1.480000e-06	-1.508111e-06	-3.580039e-09	-1.173437e+01	-2.423347e+02
1.490000e-06	-1.500808e-06	-3.573145e-09	-1.167755e+01	-2.417037e+02
1.500000e-06	-1.493463e-06	-3.570110e-09	-1.162041e+01	-2.410714e+02
1.510000e-06	-1.486084e-06	-3.560143e-09	-1.156299e+01	-2.404364e+02
1.520000e-06	-1.478672e-06	-3.549694e-09	-1.150532e+01	-2.397977e+02
1.530000e-06	-1.471205e-06	-3.533957e-09	-1.144721e+01	-2.391542e+02
1.540000e-06	-1.463694e-06	-3.526245e-09	-1.138878e+01	-2.385052e+02
1.550000e-06	-1.456135e-06	-3.521037e-09	-1.132996e+01	-2.378502e+02
1.560000e-06	-1.448519e-06	-3.510573e-09	-1.127070e+01	-2.371887e+02
1.570000e-06	-1.440858e-06	-3.496668e-09	-1.121109e+01	-2.365204e+02
1.580000e-06	-1.433151e-06	-3.478185e-09	-1.115112e+01	-2.358452e+02
1.590000e-06	-1.425406e-06	-3.464057e-09	-1.109086e+01	-2.351630e+02
1.600000e-06	-1.417620e-06	-3.450335e-09	-1.103028e+01	-2.344737e+02
1.610000e-06	-1.409807e-06	-3.439834e-09	-1.096949e+01	-2.337772e+02
1.620000e-06	-1.401962e-06	-3.428912e-09	-1.090845e+01	-2.330735e+02
1.630000e-06	-1.394066e-06	-3.422939e-09	-1.084701e+01	-2.323624e+02
1.640000e-06	-1.386130e-06	-3.417883e-09	-1.078526e+01	-2.316435e+02
1.650000e-06	-1.378135e-06	-3.402124e-09	-1.072306e+01	-2.309165e+02
1.660000e-06	-1.370091e-06	-3.386522e-09	-1.066046e+01	-2.301810e+02
1.670000e-06	-1.362039e-06	-3.368278e-09	-1.059781e+01	-2.294363e+02
1.680000e-06	-1.353940e-06	-3.353115e-09	-1.053479e+01	-2.286818e+02
1.690000e-06	-1.345795e-06	-3.338625e-09	-1.047142e+01	-2.279170e+02
1.700000e-06	-1.337625e-06	-3.326004e-09	-1.040785e+01	-2.271410e+02
1.710000e-06	-1.329411e-06	-3.319041e-09	-1.034394e+01	-2.263534e+02
1.720000e-06	-1.321157e-06	-3.306498e-09	-1.027971e+01	-2.255535e+02
1.730000e-06	-1.312873e-06	-3.296136e-09	-1.021526e+01	-2.247410e+02
1.740000e-06	-1.304564e-06	-3.283102e-09	-1.015061e+01	-2.239157e+02
1.750000e-06	-1.296220e-06	-3.272428e-09	-1.008568e+01	-2.230774e+02
1.760000e-06	-1.287846e-06	-3.264767e-09	-1.002053e+01	-2.222264e+02
1.770000e-06	-1.279449e-06	-3.251292e-09	-9.955192e+00	-2.213631e+02
1.780000e-06	-1.271014e-06	-3.234541e-09	-9.889562e+00	-2.204880e+02
1.790000e-06	-1.262549e-06	-3.212502e-09	-9.823696e+00	-2.196019e+02
1.800000e-06	-1.254068e-06	-3.196787e-09	-9.757706e+00	-2.187057e+02
1.810000e-06	-1.245556e-06	-3.181905e-09	-9.691479e+00	-2.178007e+02
1.820000e-06	-1.237026e-06	-3.166653e-09	-9.625106e+00	-2.168878e+02
1.830000e-06	-1.228476e-06	-3.153408e-09	-9.558577e+00	-2.159683e+02
1.840000e-06	-1.219894e-06	-3.143381e-09	-9.491801e+00	-2.150435e+02
1.850000e-06	-1.211288e-06	-3.138420e-09	-9.424842e+00	-2.141143e+02
1.860000e-06	-1.202647e-06	-3.125108e-09	-9.357611e+00	-2.131817e+02
1.870000e-06	-1.193962e-06	-3.107058e-09	-9.290031e+00	-2.122467e+02
1.880000e-06	-1.185251e-06	-3.086953e-09	-9.222255e+00	-2.113097e+02
1.890000e-06	-1.176517e-06	-3.065957e-09	-9.154295e+00	-2.103713e+02
1.900000e-06	-1.167761e-06	-3.047265e-09	-9.086166e+00	-2.094316e+02
1.910000e-06	-1.158982e-06	-3.030352e-09	-9.017856e+00	-2.084906e+02
1.920000e-06	-1.150173e-06	-3.020385e-09	-8.949320e+00	-2.075482e+02
1.930000e-06	-1.141341e-06	-3.016537e-09	-8.880595e+00	-2.066040e+02
1.940000e-06	-1.132479e-06	-3.015805e-09	-8.811643e+00	-2.056575e+02
1.950000e-06	-1.123590e-06	-3.005709e-09	-8.742481e+00	-2.047082e+02
1.960000e-06	-1.114679e-06	-2.986869e-09	-8.673145e+00	-2.037557e+02
1.970000e-06	-1.105738e-06	-2.968153e-09	-8.603578e+00	-2.027995e+02
1.980000e-06	-1.096761e-06	-2.949386e-09	-8.533725e+00	-2.018392e+02
1.990000e-06	-1.087753e-06	-2.929678e-09	-8.463633e+00	-2.008747e+02
2.000000e-06	-1.078728e-06	-2.910172e-09	-8.393411e+00	-1.999059e+02
2.010000e-06	-1.069683e-06	-2.900723e-09	-8.323038e+00	-1.989332e+02
2.020000e-06	-1.060604e-06	-2.892500e-09	-8.252393e+00	-1.979569e+02
2.030000e-06	-1.051469e-06	-2.881580e-09	-8.181312e+00	-1.969778e+02
2.040000e-06	-1.042281e-06	-2.866213e-09	-8.109826e+00	-1.959967e+02
2.050000e-06	-1.033075e-06	-2.848771e-09	-8.038194e+00	-1.950148e+02
2.060000e-06	-1.023846e-06	-2.833474e-09	-7.966387e+00	-1.940332e+02
2.070000e-06	-1.014591e-06	-2.812253e-09	-7.894375e+00	-1.930531e+02
2.080000e-06	-1.005311e-06	-2.793915e-09	-7.822165e+00	-1.920760e+02
2.090000e-06	-9.959980e-07	-2.780625e-09	-7.749705e+00	-1.911028e+02
2.100000e-06	-9.866590e-07	-2.771144e-09	-7.677039e+00	-1.901348e+02
2.110000e-06	-9.773100e-07	-2.758576e-09	-7.604296e+00	-1.891727e+02
2.120000e-06	-9.679470e-07	-2.741097e-09	-7.531445e+00	-1.882171e+02
2.130000e-06	-9.585459e-07	-2.725441e-09	-7.458296e+00	-1.872682e+02
2.140000e-06	-9.491182e-07	-2.711088e-09	-7.384940e+00	-1.863259e+02
2.150000e-06	-9.396814e-07	-2.699168e-09	-7.311514e+00	-1.853896e+02
2.160000e-06	-9.302129e-07	-2.684971e-09	-7.237842e+00	-1.844585e+02
2.170000e-06	-9.206997e-07	-2.672225e-09	-7.163820e+00	-1.835313e+02
2.180000e-06	-9.111714e-07	-2.661490e-09	-7.089682e+00	-1.826063e+02
2.190000e-06	-9.016370e-07	-2.651679e-09	-7.015497e+00	-1.816815e+02
2.200000e-06	-8.920769e-07	-2.639134e-09	-6.941111e+00	-1.807548e+02
2.210000e-06	-8.825003e-07	-2.617636e-09	-6.866597e+00	-1.798239e+02
2.220000e-06	-8.729177e-07	-2.594427e-09	-6.792036e+00	-1.788863e+02
2.230000e-06	-8.633088e-07	-2.571286e-09	-6.717271e+00	-1.779396e+02
2.240000e-06	-8.536744e-07	-2.555869e-09	-6.642307e+00	-1.769814e+02
2.250000e-06	-8.440165e-07	-2.549615e-09	-6.567160e+00	-1.760096e+02
2.260000e-06	-8.343259e-07	-2.546393e-09	-6.491759e+00	-1.750222e+02
2.270000e-06	-8.246199e-07	-2.539911e-09	-6.416239e+00	-1.740175e+02
2.280000e-06	-8.149060e-07	-2.525231e-09	-6.340657e+00	-1.729943e+02
2.290000e-06	-8.051693e-07	-2.507118e-09	-6.264896e+00	-1.719516e+02
2.300000e-06	-7.954198e-07	-2.484029e-09	-6.189037e+00	-1.708889e+02
2.310000e-06	-7.856710e-07	-2.459148e-09	-6.113183e+00	-1.698060e+02
2.320000e-06	-7.758938e-07	-2.438891e-09	-6.037108e+00	-1.687032e+02
2.330000e-06	-7.660796e-07	-2.425553e-09	-5.960746e+00	-1.675811e+02
2.340000e-06	-7.562232e-07	-2.416805e-09	-5.884055e+00	-1.664405e+02
2.350000e-06	-7.463347e-07	-2.405636e-09	-5.807113e+00	-1.652826e+02
2.360000e-06	-7.364372e-07	-2.390084e-09	-5.730103e+00	-1.641086e+02
2.370000e-06	-7.265057e-07	-2.366344e-09	-5.652827e+00	-1.629202e+02
2.380000e-06	-7.165373e-07	-2.341096e-09	-5.575265e+00	-1.617188e+02
2.390000e-06	-7.065541e-07	-2.320789e-09	-5.497587e+00	-1.605059e+02
2.400000e-06	-6.965386e-07	-2.298809e-09	-5.419658e+00	-1.592832e+02
2.410000e-06	-6.864984e-07	-2.275618e-09	-5.341537e+00	-1.580519e+02
2.420000e-06	-6.764440e-07	-2.256975e-09	-5.263305e+00	-1.568134e+02
2.430000e-06	-6.663755e-07	-2.245218e-09	-5.184963e+00	-1.555689e+02
2.440000e-06	-6.563023e-07	-2.231226e-09	-5.106586e+00	-1.543194e+02
2.450000e-06	-6.462124e-07	-2.213594e-09	-5.028078e+00	-1.530657e+02
2.460000e-06	-6.361140e-07	-2.195074e-09	-4.949503e+00	-1.518085e+02
2.470000e-06	-6.260153e-07	-2.175590e-09	-4.870927e+00	-1.505485e+02
2.480000e-06	-6.159113e-07	-2.154717e-09	-4.792309e+00	-1.492859e+02
2.490000e-06	-6.057949e-07	-2.130863e-09	-4.713595e+00	-1.480212e+02
2.500000e-06	-5.956565e-07	-2.109243e-09	-4.634710e+00	-1.467546e+02
2.510000e-06	-5.855012e-07	-2.092280e-09	-4.555693e+00	-1.454865e+02
2.520000e-06	-5.753370e-07	-2.079840e-09	-4.476608e+00	-1.442170e+02
2.530000e-06	-5.651596e-07	-2.066497e-09	-4.397419e+00	-1.429464e+02
2.540000e-06	-5.549597e-07	-2.051682e-09	-4.318054e+00	-1.416750e+02
2.550000e-06	-5.447437e-07	-2.039859e-09	-4.238566e+00	-1.404031e+02
2.560000e-06	-5.345203e-07	-2.023180e-09	-4.159019e+00	-1.391311e+02
2.570000e-06	-5.242978e-07	-1.999731e-09	-4.079479e+00	-1.378593e+02
2.580000e-06	-5.140587e-07	-1.974174e-09	-3.999810e+00	-1.365882e+02
2.590000e-06	-5.037959e-07	-1.951542e-09	-3.919958e+00	-1.353182e+02
2.600000e-06	-4.935117e-07	-1.934062e-09	-3.839937e+00	-1.340498e+02
2.610000e-06	-4.832227e-07	-1.915734e-09	-3.759880e+00	-1.327834e+02
2.620000e-06	-4.729286e-07	-1.894858e-09	-3.679784e+00	-1.315195e+02
2.630000e-06	-4.626033e-07	-1.875564e-09	-3.599444e+00	-1.302584e+02
2.640000e-06	-4.522685e-07	-1.862611e-09	-3.519030e+00	-1.290003e+02
2.650000e-06	-4.419353e-07	-1.851340e-09	-3.438630e+00	-1.277456e+02
2.660000e-06	-4.315879e-07	-1.833883e-09	-3.358118e+00	-1.264944e+02
2.670000e-06	-4.212119e-07	-1.812624e-09	-3.277384e+00	-1.252467e+02
2.680000e-06	-4.108209e-07	-1.792906e-09	-3.196534e+00	-1.240026e+02
2.690000e-06	-4.004200e-07	-1.774484e-09	-3.115606e+00	-1.227620e+02
2.700000e-06	-3.900043e-07	-1.755438e-09	-3.034562e+00	-1.215246e+02
2.710000e-06	-3.795839e-07	-1.737296e-09	-2.953483e+00	-1.202904e+02
2.720000e-06	-3.691578e-07	-1.722352e-09	-2.872359e+00	-1.190589e+02
2.730000e-06	-3.587337e-07	-1.709709e-09	-2.791251e+00	-1.178301e+02
2.740000e-06	-3.482974e-07	-1.697047e-09	-2.710048e+00	-1.166034e+02
2.750000e-06	-3.378409e-07	-1.679654e-09	-2.628687e+00	-1.153786e+02
2.760000e-06	-3.273797e-07	-1.659883e-09	-2.547291e+00	-1.141554e+02
2.770000e-06	-3.169137e-07	-1.640176e-09	-2.465856e+00	-1.129333e+02
2.780000e-06	-3.064468e-07	-1.617042e-09	-2.384414e+00	-1.117119e+02
2.790000e-06	-2.959709e-07	-1.592819e-09	-2.302904e+00	-1.104908e+02
2.800000e-06	-2.854864e-07	-1.571797e-09	-2.221325e+00	-1.092695e+02
2.810000e-06	-2.749967e-07	-1.555528e-09	-2.139706e+00	-1.080474e+02
2.820000e-06	-2.645111e-07	-1.538434e-09	-2.058120e+00	-1.068240e+02
2.830000e-06	-2.540186e-07	-1.521617e-09	-1.976479e+00	-1.055986e+02
2.840000e-06	-2.435189e-07	-1.507853e-09	-1.894783e+00	-1.043702e+02
