# Temperatura_=_20.0
# Concentracion g/m^3_=_10000.0
# C_Vs_to_Am_M_A/Vsm_=_65563218390.804596
# pendiente_HvsI_1/m_=_3716.3
# ordenada_HvsI_A/m_=_1297.0
# frecuencia_Hz_=_81138.14347523339

Tiempo_(s)	Campo_(V.s)	Magnetizacion_(V.s)	Campo_(kA/m)	Magnetizacion_(A/m)
0.000000e+00	-2.074040e-06	1.174340e-10	-1.614925e+01	-7.698619e-01
1.000000e-08	-2.073989e-06	7.494969e-11	-1.614885e+01	-7.492112e-01
2.000000e-08	-2.073941e-06	6.785948e-12	-1.614847e+01	-7.286494e-01
3.000000e-08	-2.073872e-06	-1.566460e-10	-1.614794e+01	-7.081529e-01
4.000000e-08	-2.073717e-06	-2.047086e-10	-1.614673e+01	-6.876958e-01
5.000000e-08	-2.073485e-06	4.368573e-11	-1.614493e+01	-6.672456e-01
6.000000e-08	-2.073194e-06	1.608775e-10	-1.614266e+01	-6.467575e-01
7.000000e-08	-2.072837e-06	6.356262e-11	-1.613988e+01	-6.261708e-01
8.000000e-08	-2.072431e-06	-5.659913e-11	-1.613672e+01	-6.054046e-01
9.000000e-08	-2.071977e-06	3.580403e-11	-1.613319e+01	-5.843559e-01
1.000000e-07	-2.071503e-06	2.348199e-11	-1.612950e+01	-5.628991e-01
1.100000e-07	-2.070996e-06	-1.268508e-10	-1.612555e+01	-5.408878e-01
1.200000e-07	-2.070403e-06	-1.320795e-10	-1.612092e+01	-5.181581e-01
1.300000e-07	-2.069729e-06	-4.964175e-11	-1.611568e+01	-4.945349e-01
1.400000e-07	-2.069011e-06	1.252294e-10	-1.611009e+01	-4.698392e-01
1.500000e-07	-2.068269e-06	9.505090e-11	-1.610431e+01	-4.438973e-01
1.600000e-07	-2.067455e-06	-1.228960e-11	-1.609798e+01	-4.165505e-01
1.700000e-07	-2.066579e-06	-1.046754e-10	-1.609115e+01	-3.876658e-01
1.800000e-07	-2.065672e-06	-1.229252e-10	-1.608409e+01	-3.571451e-01
1.900000e-07	-2.064695e-06	9.985624e-14	-1.607649e+01	-3.249342e-01
2.000000e-07	-2.063665e-06	-1.018214e-11	-1.606846e+01	-2.910299e-01
2.100000e-07	-2.062567e-06	1.249394e-11	-1.605991e+01	-2.554842e-01
2.200000e-07	-2.061414e-06	-2.650394e-11	-1.605093e+01	-2.184065e-01
2.300000e-07	-2.060199e-06	-1.878665e-11	-1.604148e+01	-1.799620e-01
2.400000e-07	-2.058895e-06	-1.565539e-11	-1.603132e+01	-1.403672e-01
2.500000e-07	-2.057546e-06	-7.716090e-11	-1.602082e+01	-9.988252e-02
2.600000e-07	-2.056153e-06	-4.686988e-11	-1.600997e+01	-5.880154e-02
2.700000e-07	-2.054708e-06	-4.601242e-11	-1.599872e+01	-1.743811e-02
2.800000e-07	-2.053183e-06	4.048454e-11	-1.598685e+01	2.388821e-02
2.900000e-07	-2.051604e-06	4.368108e-11	-1.597456e+01	6.486782e-02
3.000000e-07	-2.049967e-06	1.325327e-12	-1.596181e+01	1.052167e-01
3.100000e-07	-2.048257e-06	-4.607064e-11	-1.594849e+01	1.446916e-01
3.200000e-07	-2.046506e-06	-9.081092e-11	-1.593485e+01	1.831030e-01
3.300000e-07	-2.044687e-06	-2.675468e-11	-1.592070e+01	2.203257e-01
3.400000e-07	-2.042818e-06	-2.652008e-11	-1.590614e+01	2.563069e-01
3.500000e-07	-2.040907e-06	-2.269002e-12	-1.589126e+01	2.910692e-01
3.600000e-07	-2.038949e-06	-1.795322e-11	-1.587602e+01	3.247107e-01
3.700000e-07	-2.036933e-06	-1.878029e-11	-1.586032e+01	3.574002e-01
3.800000e-07	-2.034859e-06	-1.477978e-12	-1.584417e+01	3.893681e-01
3.900000e-07	-2.032745e-06	-3.528062e-11	-1.582771e+01	4.208944e-01
4.000000e-07	-2.030582e-06	-1.975781e-11	-1.581087e+01	4.522924e-01
4.100000e-07	-2.028388e-06	-4.331766e-11	-1.579378e+01	4.838909e-01
4.200000e-07	-2.026151e-06	-1.238644e-11	-1.577636e+01	5.160143e-01
4.300000e-07	-2.023853e-06	-4.920974e-12	-1.575847e+01	5.489625e-01
4.400000e-07	-2.021506e-06	-9.653602e-12	-1.574020e+01	5.829910e-01
4.500000e-07	-2.019111e-06	-2.752538e-12	-1.572155e+01	6.182936e-01
4.600000e-07	-2.016665e-06	-1.840062e-11	-1.570250e+01	6.549862e-01
4.700000e-07	-2.014155e-06	2.678530e-11	-1.568296e+01	6.930958e-01
4.800000e-07	-2.011594e-06	1.763134e-11	-1.566302e+01	7.325522e-01
4.900000e-07	-2.008983e-06	1.061805e-11	-1.564269e+01	7.731855e-01
5.000000e-07	-2.006314e-06	-1.694374e-11	-1.562191e+01	8.147277e-01
5.100000e-07	-2.003586e-06	-1.894623e-11	-1.560067e+01	8.568195e-01
5.200000e-07	-2.000800e-06	1.868251e-11	-1.557897e+01	8.990216e-01
5.300000e-07	-1.997969e-06	9.749003e-12	-1.555693e+01	9.408299e-01
5.400000e-07	-1.995080e-06	2.097554e-11	-1.553444e+01	9.816945e-01
5.500000e-07	-1.992133e-06	9.665718e-12	-1.551149e+01	1.021040e+00
5.600000e-07	-1.989145e-06	3.593411e-11	-1.548823e+01	1.058289e+00
5.700000e-07	-1.986127e-06	4.007439e-11	-1.546472e+01	1.092882e+00
5.800000e-07	-1.983063e-06	1.576532e-11	-1.544087e+01	1.124302e+00
5.900000e-07	-1.979927e-06	1.714448e-11	-1.541645e+01	1.152094e+00
6.000000e-07	-1.976734e-06	2.035200e-11	-1.539159e+01	1.175880e+00
6.100000e-07	-1.973508e-06	5.703604e-11	-1.536647e+01	1.195374e+00
6.200000e-07	-1.970252e-06	4.065260e-11	-1.534111e+01	1.210388e+00
6.300000e-07	-1.966927e-06	2.461858e-11	-1.531522e+01	1.220843e+00
6.400000e-07	-1.963524e-06	1.881899e-11	-1.528873e+01	1.226761e+00
6.500000e-07	-1.960090e-06	2.378239e-11	-1.526199e+01	1.228267e+00
6.600000e-07	-1.956623e-06	3.631394e-11	-1.523500e+01	1.225577e+00
6.700000e-07	-1.953097e-06	1.333944e-11	-1.520754e+01	1.218985e+00
6.800000e-07	-1.949504e-06	2.564133e-11	-1.517956e+01	1.208852e+00
6.900000e-07	-1.945860e-06	3.420471e-11	-1.515119e+01	1.195585e+00
7.000000e-07	-1.942149e-06	4.305145e-11	-1.512230e+01	1.179620e+00
7.100000e-07	-1.938385e-06	2.510571e-11	-1.509298e+01	1.161407e+00
7.200000e-07	-1.934586e-06	2.066771e-12	-1.506341e+01	1.141390e+00
7.300000e-07	-1.930745e-06	1.812308e-11	-1.503350e+01	1.119991e+00
7.400000e-07	-1.926864e-06	2.406507e-11	-1.500328e+01	1.097600e+00
7.500000e-07	-1.922928e-06	3.129756e-11	-1.497263e+01	1.074563e+00
7.600000e-07	-1.918943e-06	9.937793e-12	-1.494161e+01	1.051175e+00
7.700000e-07	-1.914913e-06	9.814642e-12	-1.491023e+01	1.027676e+00
7.800000e-07	-1.910836e-06	2.297610e-11	-1.487848e+01	1.004253e+00
7.900000e-07	-1.906713e-06	2.084897e-11	-1.484637e+01	9.810380e-01
8.000000e-07	-1.902535e-06	1.579763e-11	-1.481385e+01	9.581162e-01
8.100000e-07	-1.898309e-06	-6.128857e-12	-1.478094e+01	9.355315e-01
8.200000e-07	-1.894040e-06	6.446699e-12	-1.474770e+01	9.132946e-01
8.300000e-07	-1.889707e-06	1.104829e-11	-1.471396e+01	8.913911e-01
8.400000e-07	-1.885310e-06	4.145486e-12	-1.467972e+01	8.697902e-01
8.500000e-07	-1.880868e-06	-4.857720e-12	-1.464514e+01	8.484522e-01
8.600000e-07	-1.876371e-06	-3.790498e-12	-1.461012e+01	8.273348e-01
8.700000e-07	-1.871815e-06	1.728554e-11	-1.457465e+01	8.063977e-01
8.800000e-07	-1.867221e-06	1.079481e-11	-1.453887e+01	7.856052e-01
8.900000e-07	-1.862581e-06	1.839394e-12	-1.450275e+01	7.649274e-01
9.000000e-07	-1.857891e-06	-8.474265e-12	-1.446623e+01	7.443390e-01
9.100000e-07	-1.853158e-06	2.913537e-12	-1.442938e+01	7.238163e-01
9.200000e-07	-1.848386e-06	1.087911e-11	-1.439222e+01	7.033336e-01
9.300000e-07	-1.843563e-06	-6.291889e-12	-1.435466e+01	6.828584e-01
9.400000e-07	-1.838695e-06	-1.200382e-11	-1.431676e+01	6.623462e-01
9.500000e-07	-1.833790e-06	-1.436613e-11	-1.427857e+01	6.417367e-01
9.600000e-07	-1.828823e-06	-3.787834e-12	-1.423990e+01	6.209493e-01
9.700000e-07	-1.823791e-06	-8.745169e-12	-1.420072e+01	5.998815e-01
9.800000e-07	-1.818702e-06	-1.459320e-11	-1.416109e+01	5.784081e-01
9.900000e-07	-1.813567e-06	-6.716007e-12	-1.412111e+01	5.563828e-01
1.000000e-06	-1.808366e-06	3.946049e-13	-1.408061e+01	5.336423e-01
1.010000e-06	-1.803081e-06	4.336815e-12	-1.403946e+01	5.100114e-01
1.020000e-06	-1.797740e-06	-1.325300e-11	-1.399787e+01	4.853111e-01
1.030000e-06	-1.792360e-06	-1.898962e-11	-1.395598e+01	4.593677e-01
1.040000e-06	-1.786935e-06	-1.384365e-11	-1.391374e+01	4.320221e-01
1.050000e-06	-1.781452e-06	-6.785165e-12	-1.387105e+01	4.031406e-01
1.060000e-06	-1.775931e-06	-5.761996e-12	-1.382806e+01	3.726245e-01
1.070000e-06	-1.770378e-06	-6.646077e-12	-1.378482e+01	3.404188e-01
1.080000e-06	-1.764787e-06	6.677149e-12	-1.374129e+01	3.065192e-01
1.090000e-06	-1.759165e-06	7.915395e-12	-1.369751e+01	2.709768e-01
1.100000e-06	-1.753486e-06	2.091350e-12	-1.365330e+01	2.338999e-01
1.110000e-06	-1.747763e-06	-8.797682e-12	-1.360874e+01	1.954528e-01
1.120000e-06	-1.742015e-06	-8.402847e-12	-1.356398e+01	1.558512e-01
1.130000e-06	-1.736219e-06	1.315036e-12	-1.351884e+01	1.153547e-01
1.140000e-06	-1.730360e-06	-1.325810e-12	-1.347323e+01	7.425647e-02
1.150000e-06	-1.724451e-06	-2.613555e-12	-1.342721e+01	3.287006e-02
1.160000e-06	-1.718489e-06	-3.377069e-12	-1.338079e+01	-8.484909e-03
1.170000e-06	-1.712479e-06	4.242799e-12	-1.333399e+01	-4.949851e-02
1.180000e-06	-1.706416e-06	5.318273e-12	-1.328679e+01	-8.988620e-02
1.190000e-06	-1.700298e-06	-1.392679e-12	-1.323915e+01	-1.294038e-01
1.200000e-06	-1.694144e-06	-3.108178e-12	-1.319123e+01	-1.678606e-01
1.210000e-06	-1.687947e-06	-2.509537e-12	-1.314298e+01	-2.051305e-01
1.220000e-06	-1.681706e-06	1.893685e-13	-1.309439e+01	-2.411590e-01
1.230000e-06	-1.675442e-06	-8.469159e-12	-1.304561e+01	-2.759677e-01
1.240000e-06	-1.669140e-06	-1.062024e-11	-1.299655e+01	-3.096532e-01
1.250000e-06	-1.662795e-06	-4.152692e-12	-1.294714e+01	-3.423830e-01
1.260000e-06	-1.656410e-06	3.783367e-12	-1.289742e+01	-3.743867e-01
1.270000e-06	-1.649984e-06	6.132767e-12	-1.284739e+01	-4.059434e-01
1.280000e-06	-1.643522e-06	-1.777525e-12	-1.279707e+01	-4.373660e-01
1.290000e-06	-1.637018e-06	-4.702368e-12	-1.274643e+01	-4.689833e-01
1.300000e-06	-1.630478e-06	-8.973325e-12	-1.269551e+01	-5.011198e-01
1.310000e-06	-1.623884e-06	-1.100786e-11	-1.264417e+01	-5.340761e-01
1.320000e-06	-1.617236e-06	-1.441200e-11	-1.259240e+01	-5.681087e-01
1.330000e-06	-1.610548e-06	-1.562582e-11	-1.254033e+01	-6.034124e-01
1.340000e-06	-1.603827e-06	-9.571359e-12	-1.248799e+01	-6.401049e-01
1.350000e-06	-1.597057e-06	-6.994889e-12	-1.243528e+01	-6.782147e-01
1.360000e-06	-1.590227e-06	-9.249807e-12	-1.238210e+01	-7.176735e-01
1.370000e-06	-1.583348e-06	-1.644619e-11	-1.232853e+01	-7.583131e-01
1.380000e-06	-1.576436e-06	-1.631867e-11	-1.227472e+01	-7.998672e-01
1.390000e-06	-1.569511e-06	-1.435537e-11	-1.222080e+01	-8.419780e-01
1.400000e-06	-1.562544e-06	-1.697389e-11	-1.216655e+01	-8.842075e-01
1.410000e-06	-1.555530e-06	-2.136105e-11	-1.211194e+01	-9.260529e-01
1.420000e-06	-1.548495e-06	-2.744332e-11	-1.205716e+01	-9.669645e-01
1.430000e-06	-1.541410e-06	-2.954491e-11	-1.200199e+01	-1.006368e+00
1.440000e-06	-1.534277e-06	-3.350771e-11	-1.194645e+01	-1.043684e+00
1.450000e-06	-1.527122e-06	-3.661102e-11	-1.189074e+01	-1.078354e+00
1.460000e-06	-1.519927e-06	-3.537289e-11	-1.183472e+01	-1.109861e+00
1.470000e-06	-1.512685e-06	-3.106010e-11	-1.177833e+01	-1.137746e+00
1.480000e-06	-1.505403e-06	-2.427687e-11	-1.172163e+01	-1.161632e+00
1.490000e-06	-1.498084e-06	-2.718875e-11	-1.166464e+01	-1.181229e+00
1.500000e-06	-1.490737e-06	-3.794140e-11	-1.160743e+01	-1.196350e+00
1.510000e-06	-1.483354e-06	-4.455236e-11	-1.154994e+01	-1.206911e+00
1.520000e-06	-1.475929e-06	-4.488891e-11	-1.149213e+01	-1.212935e+00
1.530000e-06	-1.468452e-06	-4.583405e-11	-1.143392e+01	-1.214544e+00
1.540000e-06	-1.460914e-06	-4.967494e-11	-1.137522e+01	-1.211951e+00
1.550000e-06	-1.453337e-06	-4.889658e-11	-1.131622e+01	-1.205451e+00
1.560000e-06	-1.445724e-06	-4.356092e-11	-1.125694e+01	-1.195403e+00
1.570000e-06	-1.438052e-06	-3.917092e-11	-1.119720e+01	-1.182213e+00
1.580000e-06	-1.430335e-06	-3.657116e-11	-1.113712e+01	-1.166318e+00
1.590000e-06	-1.422593e-06	-3.925451e-11	-1.107684e+01	-1.148166e+00
1.600000e-06	-1.414815e-06	-4.611253e-11	-1.101628e+01	-1.128203e+00
1.610000e-06	-1.406997e-06	-5.256309e-11	-1.095540e+01	-1.106850e+00
1.620000e-06	-1.399143e-06	-5.564024e-11	-1.089425e+01	-1.084499e+00
1.630000e-06	-1.391258e-06	-6.002240e-11	-1.083285e+01	-1.061496e+00
1.640000e-06	-1.383332e-06	-6.051798e-11	-1.077114e+01	-1.038137e+00
1.650000e-06	-1.375358e-06	-5.183844e-11	-1.070905e+01	-1.014664e+00
1.660000e-06	-1.367335e-06	-4.287312e-11	-1.064658e+01	-9.912632e-01
1.670000e-06	-1.359251e-06	-3.743701e-11	-1.058363e+01	-9.680687e-01
1.680000e-06	-1.351130e-06	-3.829264e-11	-1.052040e+01	-9.451664e-01
1.690000e-06	-1.342981e-06	-3.976227e-11	-1.045695e+01	-9.226007e-01
1.700000e-06	-1.334799e-06	-4.044658e-11	-1.039324e+01	-9.003829e-01
1.710000e-06	-1.326582e-06	-4.009894e-11	-1.032926e+01	-8.784988e-01
1.720000e-06	-1.318331e-06	-3.686490e-11	-1.026501e+01	-8.569181e-01
1.730000e-06	-1.310053e-06	-3.660730e-11	-1.020056e+01	-8.356010e-01
1.740000e-06	-1.301740e-06	-3.646349e-11	-1.013583e+01	-8.145053e-01
1.750000e-06	-1.293400e-06	-3.656240e-11	-1.007089e+01	-7.935904e-01
1.760000e-06	-1.285029e-06	-3.739164e-11	-1.000571e+01	-7.728209e-01
1.770000e-06	-1.276623e-06	-3.645747e-11	-9.940261e+00	-7.521665e-01
1.780000e-06	-1.268193e-06	-3.582519e-11	-9.874620e+00	-7.316020e-01
1.790000e-06	-1.259734e-06	-3.120407e-11	-9.808755e+00	-7.111035e-01
1.800000e-06	-1.251245e-06	-2.363946e-11	-9.742658e+00	-6.906456e-01
1.810000e-06	-1.242742e-06	-1.911614e-11	-9.676449e+00	-6.701957e-01
1.820000e-06	-1.234216e-06	-1.688452e-11	-9.610061e+00	-6.497099e-01
1.830000e-06	-1.225657e-06	-1.672698e-11	-9.543417e+00	-6.291280e-01
1.840000e-06	-1.217075e-06	-1.636881e-11	-9.476596e+00	-6.083699e-01
1.850000e-06	-1.208459e-06	-1.581745e-11	-9.409511e+00	-5.873333e-01
1.860000e-06	-1.199806e-06	-1.605194e-11	-9.342135e+00	-5.658935e-01
1.870000e-06	-1.191130e-06	-1.530101e-11	-9.274578e+00	-5.439047e-01
1.880000e-06	-1.182431e-06	-1.113304e-11	-9.206848e+00	-5.212037e-01
1.890000e-06	-1.173700e-06	-8.480990e-12	-9.138866e+00	-4.976155e-01
1.900000e-06	-1.164937e-06	-1.089270e-11	-9.070633e+00	-4.729611e-01
1.910000e-06	-1.156138e-06	-1.104256e-11	-9.002122e+00	-4.470665e-01
1.920000e-06	-1.147309e-06	-7.100600e-12	-8.933372e+00	-4.197725e-01
1.930000e-06	-1.138453e-06	-7.224635e-12	-8.864421e+00	-3.909446e-01
1.940000e-06	-1.129573e-06	-1.769901e-11	-8.795276e+00	-3.604835e-01
1.950000e-06	-1.120674e-06	-2.407361e-11	-8.725982e+00	-3.283334e-01
1.960000e-06	-1.111755e-06	-2.047037e-11	-8.656537e+00	-2.944890e-01
1.970000e-06	-1.102818e-06	-1.408423e-11	-8.586949e+00	-2.590004e-01
1.980000e-06	-1.093859e-06	-8.905643e-12	-8.517190e+00	-2.219749e-01
1.990000e-06	-1.084863e-06	-6.182090e-12	-8.447143e+00	-1.835757e-01
2.000000e-06	-1.075829e-06	-3.112198e-12	-8.376807e+00	-1.440177e-01
2.010000e-06	-1.066759e-06	-2.434750e-12	-8.306184e+00	-1.035600e-01
2.020000e-06	-1.057651e-06	-6.459882e-12	-8.235263e+00	-6.249494e-02
2.030000e-06	-1.048507e-06	-1.410185e-11	-8.164068e+00	-2.113609e-02
2.040000e-06	-1.039324e-06	-1.862526e-11	-8.092564e+00	2.019700e-02
2.050000e-06	-1.030100e-06	-1.645267e-11	-8.020745e+00	6.119407e-02
2.060000e-06	-1.020843e-06	-1.359137e-11	-7.948665e+00	1.015700e-01
2.070000e-06	-1.011567e-06	-1.198240e-11	-7.876433e+00	1.410797e-01
2.080000e-06	-1.002271e-06	-1.020894e-11	-7.804054e+00	1.795316e-01
2.090000e-06	-9.929585e-07	-7.997296e-12	-7.731544e+00	2.167982e-01
2.100000e-06	-9.836202e-07	-6.500252e-12	-7.658832e+00	2.528237e-01
2.110000e-06	-9.742634e-07	-6.716431e-12	-7.585977e+00	2.876283e-01
2.120000e-06	-9.648991e-07	-8.840129e-12	-7.513063e+00	3.213074e-01
2.130000e-06	-9.555125e-07	-1.226922e-11	-7.439976e+00	3.540272e-01
2.140000e-06	-9.460968e-07	-1.309750e-11	-7.366662e+00	3.860163e-01
2.150000e-06	-9.366506e-07	-1.308333e-11	-7.293110e+00	4.175531e-01
2.160000e-06	-9.271813e-07	-1.430251e-11	-7.219378e+00	4.489501e-01
2.170000e-06	-9.176910e-07	-1.300476e-11	-7.145484e+00	4.805358e-01
2.180000e-06	-9.081733e-07	-9.858676e-12	-7.071375e+00	5.126351e-01
2.190000e-06	-8.986332e-07	-1.033653e-11	-6.997092e+00	5.455490e-01
2.200000e-06	-8.890751e-07	-1.347433e-11	-6.922669e+00	5.795353e-01
2.210000e-06	-8.795006e-07	-1.362760e-11	-6.848119e+00	6.147898e-01
2.220000e-06	-8.699071e-07	-1.050854e-11	-6.773420e+00	6.514318e-01
2.230000e-06	-8.602808e-07	-5.903007e-12	-6.698466e+00	6.894914e-01
2.240000e-06	-8.506297e-07	-7.337071e-12	-6.623319e+00	7.289021e-01
2.250000e-06	-8.409628e-07	-1.249098e-11	-6.548049e+00	7.694974e-01
2.260000e-06	-8.312829e-07	-1.271623e-11	-6.472678e+00	8.110128e-01
2.270000e-06	-8.215820e-07	-9.460964e-12	-6.397143e+00	8.530921e-01
2.280000e-06	-8.118659e-07	-6.208346e-12	-6.321490e+00	8.952985e-01
2.290000e-06	-8.021427e-07	-4.200287e-12	-6.245782e+00	9.371302e-01
2.300000e-06	-7.924148e-07	-7.653138e-13	-6.170036e+00	9.780383e-01
2.310000e-06	-7.826765e-07	2.561749e-12	-6.094210e+00	1.017448e+00
2.320000e-06	-7.729120e-07	3.735278e-12	-6.018180e+00	1.054781e+00
2.330000e-06	-7.631130e-07	3.080349e-13	-5.941881e+00	1.089478e+00
2.340000e-06	-7.532875e-07	-5.186979e-12	-5.865377e+00	1.121020e+00
2.350000e-06	-7.434357e-07	-4.907136e-12	-5.788667e+00	1.148949e+00
2.360000e-06	-7.335477e-07	9.562890e-13	-5.711675e+00	1.172884e+00
2.370000e-06	-7.236278e-07	9.781856e-12	-5.634435e+00	1.192535e+00
2.380000e-06	-7.136637e-07	1.671206e-11	-5.556851e+00	1.207711e+00
2.390000e-06	-7.036903e-07	2.272734e-11	-5.479194e+00	1.218329e+00
2.400000e-06	-6.937049e-07	2.878021e-11	-5.401444e+00	1.224407e+00
2.410000e-06	-6.836823e-07	3.109461e-11	-5.323405e+00	1.226068e+00
2.420000e-06	-6.736302e-07	3.124569e-11	-5.245136e+00	1.223523e+00
2.430000e-06	-6.635645e-07	2.902046e-11	-5.166760e+00	1.217065e+00
2.440000e-06	-6.534887e-07	2.803983e-11	-5.088306e+00	1.207051e+00
2.450000e-06	-6.434001e-07	2.980789e-11	-5.009753e+00	1.193888e+00
2.460000e-06	-6.333029e-07	3.260039e-11	-4.931132e+00	1.178012e+00
2.470000e-06	-6.231941e-07	3.786752e-11	-4.852421e+00	1.159872e+00
2.480000e-06	-6.130757e-07	4.314759e-11	-4.773635e+00	1.139911e+00
2.490000e-06	-6.029454e-07	4.804516e-11	-4.694757e+00	1.118555e+00
2.500000e-06	-5.928123e-07	5.045969e-11	-4.615857e+00	1.096193e+00
2.510000e-06	-5.826657e-07	5.005841e-11	-4.536852e+00	1.073174e+00
2.520000e-06	-5.725014e-07	4.497312e-11	-4.457709e+00	1.049794e+00
2.530000e-06	-5.623225e-07	3.876422e-11	-4.378452e+00	1.026296e+00
2.540000e-06	-5.521315e-07	3.805420e-11	-4.299101e+00	1.002867e+00
2.550000e-06	-5.419334e-07	3.815343e-11	-4.219695e+00	9.796430e-01
2.560000e-06	-5.317154e-07	3.856423e-11	-4.140133e+00	9.567097e-01
2.570000e-06	-5.214787e-07	4.180240e-11	-4.060427e+00	9.341127e-01
2.580000e-06	-5.112259e-07	4.790521e-11	-3.980595e+00	9.118634e-01
2.590000e-06	-5.009471e-07	5.357824e-11	-3.900561e+00	8.899484e-01
2.600000e-06	-4.906592e-07	5.491533e-11	-3.820455e+00	8.683374e-01
2.610000e-06	-4.803806e-07	5.309303e-11	-3.740422e+00	8.469908e-01
2.620000e-06	-4.700901e-07	4.907314e-11	-3.660296e+00	8.258662e-01
2.630000e-06	-4.597703e-07	4.431470e-11	-3.579943e+00	8.049233e-01
2.640000e-06	-4.494329e-07	3.890783e-11	-3.499451e+00	7.841262e-01
2.650000e-06	-4.390907e-07	3.486726e-11	-3.418923e+00	7.634448e-01
2.660000e-06	-4.287474e-07	3.453019e-11	-3.338387e+00	7.428536e-01
2.670000e-06	-4.183949e-07	3.665994e-11	-3.257779e+00	7.223290e-01
2.680000e-06	-4.080188e-07	3.790537e-11	-3.176986e+00	7.018454e-01
2.690000e-06	-3.976069e-07	3.558409e-11	-3.095915e+00	6.813705e-01
2.700000e-06	-3.871910e-07	3.002102e-11	-3.014813e+00	6.608606e-01
2.710000e-06	-3.767851e-07	2.536325e-11	-2.933789e+00	6.402558e-01
2.720000e-06	-3.663703e-07	2.402359e-11	-2.852695e+00	6.194764e-01
2.730000e-06	-3.559419e-07	1.813347e-11	-2.771496e+00	5.984207e-01
2.740000e-06	-3.455044e-07	1.105056e-11	-2.690226e+00	5.769641e-01
2.750000e-06	-3.350639e-07	9.404615e-12	-2.608932e+00	5.549613e-01
2.760000e-06	-3.246226e-07	1.138422e-11	-2.527633e+00	5.322492e-01
2.770000e-06	-3.141738e-07	1.349271e-11	-2.446274e+00	5.086532e-01
2.780000e-06	-3.037115e-07	1.421108e-11	-2.364810e+00	4.839942e-01
2.790000e-06	-2.932442e-07	1.465201e-11	-2.283308e+00	4.580980e-01
2.800000e-06	-2.827642e-07	1.457944e-11	-2.201707e+00	4.308050e-01
2.810000e-06	-2.722803e-07	1.075029e-11	-2.120075e+00	4.019803e-01
2.820000e-06	-2.618006e-07	2.670705e-12	-2.038477e+00	3.715238e-01
2.830000e-06	-2.513167e-07	-4.527520e-12	-1.956845e+00	3.393788e-01
2.840000e-06	-2.408226e-07	-8.019898e-12	-1.875134e+00	3.055392e-01
2.850000e-06	-2.303175e-07	-9.774961e-12	-1.793337e+00	2.700540e-01
2.860000e-06	-2.198153e-07	-1.175554e-11	-1.711564e+00	2.330294e-01
2.870000e-06	-2.093121e-07	-1.155046e-11	-1.629782e+00	1.946278e-01
2.880000e-06	-1.988121e-07	-8.510797e-12	-1.548025e+00	1.550632e-01
2.890000e-06	-1.883126e-07	-4.368691e-12	-1.466272e+00	1.145938e-01
