# Temperatura_=_20.0
# Concentracion g/m^3_=_10000.0
# C_Vs_to_Am_M_A/Vsm_=_65563218390.804596
# pendiente_HvsI_1/m_=_3716.3
# ordenada_HvsI_A/m_=_1297.0
# frecuencia_Hz_=_81233.28498164448

Tiempo_(s)	Campo_(V.s)	Magnetizacion_(V.s)	Campo_(kA/m)	Magnetizacion_(A/m)
0.000000e+00	-7.639682e-06	-1.097988e-08	-5.694193e+01	-7.196989e+02
1.000000e-08	-7.639760e-06	-1.097272e-08	-5.694251e+01	-7.196977e+02
2.000000e-08	-7.639700e-06	-1.096809e-08	-5.694207e+01	-7.196859e+02
3.000000e-08	-7.639498e-06	-1.097218e-08	-5.694056e+01	-7.196608e+02
4.000000e-08	-7.639222e-06	-1.097847e-08	-5.693851e+01	-7.196201e+02
5.000000e-08	-7.638793e-06	-1.095578e-08	-5.693531e+01	-7.195623e+02
6.000000e-08	-7.638201e-06	-1.085336e-08	-5.693090e+01	-7.194862e+02
7.000000e-08	-7.637516e-06	-1.080807e-08	-5.692579e+01	-7.193917e+02
8.000000e-08	-7.636603e-06	-1.084240e-08	-5.691899e+01	-7.192795e+02
9.000000e-08	-7.635353e-06	-1.108255e-08	-5.690967e+01	-7.191509e+02
1.000000e-07	-7.633893e-06	-1.129854e-08	-5.689878e+01	-7.190084e+02
1.100000e-07	-7.632371e-06	-1.113082e-08	-5.688744e+01	-7.188549e+02
1.200000e-07	-7.630686e-06	-1.114697e-08	-5.687488e+01	-7.186939e+02
1.300000e-07	-7.628764e-06	-1.118015e-08	-5.686055e+01	-7.185296e+02
1.400000e-07	-7.626438e-06	-1.109833e-08	-5.684322e+01	-7.183663e+02
1.500000e-07	-7.623819e-06	-1.101187e-08	-5.682370e+01	-7.182082e+02
1.600000e-07	-7.620967e-06	-1.093286e-08	-5.680244e+01	-7.180596e+02
1.700000e-07	-7.617786e-06	-1.092981e-08	-5.677873e+01	-7.179242e+02
1.800000e-07	-7.614385e-06	-1.082960e-08	-5.675338e+01	-7.178051e+02
1.900000e-07	-7.610666e-06	-1.084349e-08	-5.672566e+01	-7.177049e+02
2.000000e-07	-7.606685e-06	-1.091151e-08	-5.669599e+01	-7.176248e+02
2.100000e-07	-7.602484e-06	-1.089102e-08	-5.666468e+01	-7.175655e+02
2.200000e-07	-7.598200e-06	-1.098027e-08	-5.663275e+01	-7.175262e+02
2.300000e-07	-7.593827e-06	-1.109727e-08	-5.660015e+01	-7.175051e+02
2.400000e-07	-7.589196e-06	-1.107158e-08	-5.656564e+01	-7.174995e+02
2.500000e-07	-7.584365e-06	-1.101340e-08	-5.652963e+01	-7.175056e+02
2.600000e-07	-7.579438e-06	-1.102885e-08	-5.649291e+01	-7.175188e+02
2.700000e-07	-7.574362e-06	-1.111938e-08	-5.645507e+01	-7.175337e+02
2.800000e-07	-7.569102e-06	-1.101958e-08	-5.641587e+01	-7.175448e+02
2.900000e-07	-7.563720e-06	-1.089822e-08	-5.637575e+01	-7.175461e+02
3.000000e-07	-7.558122e-06	-1.096927e-08	-5.633403e+01	-7.175317e+02
3.100000e-07	-7.552332e-06	-1.096168e-08	-5.629087e+01	-7.174962e+02
3.200000e-07	-7.546423e-06	-1.094481e-08	-5.624683e+01	-7.174343e+02
3.300000e-07	-7.540302e-06	-1.104643e-08	-5.620121e+01	-7.173417e+02
3.400000e-07	-7.533997e-06	-1.101930e-08	-5.615422e+01	-7.172149e+02
3.500000e-07	-7.527471e-06	-1.091044e-08	-5.610557e+01	-7.170516e+02
3.600000e-07	-7.520644e-06	-1.097819e-08	-5.605469e+01	-7.168502e+02
3.700000e-07	-7.513714e-06	-1.100657e-08	-5.600304e+01	-7.166107e+02
3.800000e-07	-7.506591e-06	-1.089327e-08	-5.594995e+01	-7.163338e+02
3.900000e-07	-7.499169e-06	-1.089213e-08	-5.589463e+01	-7.160214e+02
4.000000e-07	-7.491577e-06	-1.097888e-08	-5.583804e+01	-7.156765e+02
4.100000e-07	-7.483858e-06	-1.098032e-08	-5.578050e+01	-7.153026e+02
4.200000e-07	-7.475980e-06	-1.092982e-08	-5.572179e+01	-7.149039e+02
4.300000e-07	-7.467913e-06	-1.094719e-08	-5.566166e+01	-7.144850e+02
4.400000e-07	-7.459660e-06	-1.092972e-08	-5.560015e+01	-7.140507e+02
4.500000e-07	-7.451246e-06	-1.089153e-08	-5.553743e+01	-7.136055e+02
4.600000e-07	-7.442731e-06	-1.090127e-08	-5.547397e+01	-7.131539e+02
4.700000e-07	-7.434192e-06	-1.086942e-08	-5.541032e+01	-7.126998e+02
4.800000e-07	-7.425406e-06	-1.083785e-08	-5.534484e+01	-7.122466e+02
4.900000e-07	-7.416343e-06	-1.086491e-08	-5.527728e+01	-7.117968e+02
5.000000e-07	-7.407132e-06	-1.090140e-08	-5.520863e+01	-7.113523e+02
5.100000e-07	-7.397732e-06	-1.087683e-08	-5.513857e+01	-7.109140e+02
5.200000e-07	-7.388115e-06	-1.085485e-08	-5.506689e+01	-7.104820e+02
5.300000e-07	-7.378082e-06	-1.085446e-08	-5.499211e+01	-7.100558e+02
5.400000e-07	-7.367944e-06	-1.084606e-08	-5.491655e+01	-7.096340e+02
5.500000e-07	-7.357609e-06	-1.083977e-08	-5.483952e+01	-7.092148e+02
5.600000e-07	-7.346752e-06	-1.080944e-08	-5.475859e+01	-7.087961e+02
5.700000e-07	-7.335511e-06	-1.080741e-08	-5.467481e+01	-7.083753e+02
5.800000e-07	-7.324063e-06	-1.082705e-08	-5.458948e+01	-7.079500e+02
5.900000e-07	-7.312226e-06	-1.082780e-08	-5.450126e+01	-7.075179e+02
6.000000e-07	-7.300059e-06	-1.081917e-08	-5.441057e+01	-7.070768e+02
6.100000e-07	-7.287891e-06	-1.080012e-08	-5.431988e+01	-7.066252e+02
6.200000e-07	-7.275540e-06	-1.079284e-08	-5.422782e+01	-7.061618e+02
6.300000e-07	-7.263044e-06	-1.078883e-08	-5.413469e+01	-7.056860e+02
6.400000e-07	-7.250494e-06	-1.078000e-08	-5.404114e+01	-7.051981e+02
6.500000e-07	-7.237658e-06	-1.075327e-08	-5.394547e+01	-7.046985e+02
6.600000e-07	-7.224559e-06	-1.074667e-08	-5.384784e+01	-7.041886e+02
6.700000e-07	-7.211325e-06	-1.076517e-08	-5.374920e+01	-7.036700e+02
6.800000e-07	-7.197925e-06	-1.075891e-08	-5.364932e+01	-7.031450e+02
6.900000e-07	-7.184254e-06	-1.074843e-08	-5.354743e+01	-7.026159e+02
7.000000e-07	-7.170413e-06	-1.073405e-08	-5.344426e+01	-7.020853e+02
7.100000e-07	-7.156392e-06	-1.073189e-08	-5.333976e+01	-7.015556e+02
7.200000e-07	-7.142117e-06	-1.073584e-08	-5.323336e+01	-7.010294e+02
7.300000e-07	-7.127724e-06	-1.072534e-08	-5.312608e+01	-7.005085e+02
7.400000e-07	-7.113039e-06	-1.070637e-08	-5.301663e+01	-6.999947e+02
7.500000e-07	-7.098238e-06	-1.069190e-08	-5.290631e+01	-6.994892e+02
7.600000e-07	-7.083301e-06	-1.069767e-08	-5.279498e+01	-6.989925e+02
7.700000e-07	-7.068059e-06	-1.069162e-08	-5.268137e+01	-6.985047e+02
7.800000e-07	-7.052485e-06	-1.067535e-08	-5.256529e+01	-6.980251e+02
7.900000e-07	-7.036792e-06	-1.065975e-08	-5.244832e+01	-6.975527e+02
8.000000e-07	-7.020988e-06	-1.065739e-08	-5.233053e+01	-6.970858e+02
8.100000e-07	-7.004800e-06	-1.066707e-08	-5.220988e+01	-6.966224e+02
8.200000e-07	-6.988404e-06	-1.065701e-08	-5.208767e+01	-6.961601e+02
8.300000e-07	-6.971732e-06	-1.064283e-08	-5.196341e+01	-6.956963e+02
8.400000e-07	-6.954612e-06	-1.063636e-08	-5.183580e+01	-6.952284e+02
8.500000e-07	-6.937261e-06	-1.063568e-08	-5.170648e+01	-6.947539e+02
8.600000e-07	-6.919836e-06	-1.062254e-08	-5.157660e+01	-6.942703e+02
8.700000e-07	-6.902322e-06	-1.060207e-08	-5.144606e+01	-6.937756e+02
8.800000e-07	-6.884674e-06	-1.059348e-08	-5.131453e+01	-6.932679e+02
8.900000e-07	-6.866697e-06	-1.059412e-08	-5.118053e+01	-6.927459e+02
9.000000e-07	-6.848733e-06	-1.059939e-08	-5.104664e+01	-6.922085e+02
9.100000e-07	-6.830802e-06	-1.058610e-08	-5.091299e+01	-6.916553e+02
9.200000e-07	-6.812616e-06	-1.056912e-08	-5.077744e+01	-6.910860e+02
9.300000e-07	-6.794351e-06	-1.055817e-08	-5.064131e+01	-6.905010e+02
9.400000e-07	-6.775884e-06	-1.054548e-08	-5.050366e+01	-6.899006e+02
9.500000e-07	-6.757323e-06	-1.053048e-08	-5.036532e+01	-6.892856e+02
9.600000e-07	-6.738649e-06	-1.051206e-08	-5.022613e+01	-6.886568e+02
9.700000e-07	-6.719638e-06	-1.050550e-08	-5.008444e+01	-6.880149e+02
9.800000e-07	-6.700391e-06	-1.050355e-08	-4.994098e+01	-6.873608e+02
9.900000e-07	-6.680984e-06	-1.049826e-08	-4.979634e+01	-6.866950e+02
1.000000e-06	-6.661283e-06	-1.048356e-08	-4.964949e+01	-6.860180e+02
1.010000e-06	-6.641206e-06	-1.046647e-08	-4.949985e+01	-6.853297e+02
1.020000e-06	-6.621055e-06	-1.045783e-08	-4.934965e+01	-6.846299e+02
1.030000e-06	-6.600914e-06	-1.044720e-08	-4.919954e+01	-6.839183e+02
1.040000e-06	-6.580682e-06	-1.043200e-08	-4.904874e+01	-6.831941e+02
1.050000e-06	-6.560335e-06	-1.041300e-08	-4.889708e+01	-6.824561e+02
1.060000e-06	-6.539843e-06	-1.040217e-08	-4.874435e+01	-6.817033e+02
1.070000e-06	-6.519257e-06	-1.039342e-08	-4.859091e+01	-6.809344e+02
1.080000e-06	-6.498572e-06	-1.037792e-08	-4.843673e+01	-6.801482e+02
1.090000e-06	-6.477819e-06	-1.035886e-08	-4.828205e+01	-6.793433e+02
1.100000e-06	-6.456976e-06	-1.033635e-08	-4.812670e+01	-6.785188e+02
1.110000e-06	-6.436020e-06	-1.032218e-08	-4.797050e+01	-6.776739e+02
1.120000e-06	-6.414902e-06	-1.031092e-08	-4.781310e+01	-6.768081e+02
1.130000e-06	-6.393572e-06	-1.030092e-08	-4.765412e+01	-6.759213e+02
1.140000e-06	-6.372149e-06	-1.029003e-08	-4.749445e+01	-6.750139e+02
1.150000e-06	-6.350497e-06	-1.027805e-08	-4.733307e+01	-6.740866e+02
1.160000e-06	-6.328617e-06	-1.026716e-08	-4.716998e+01	-6.731405e+02
1.170000e-06	-6.306559e-06	-1.024857e-08	-4.700557e+01	-6.721771e+02
1.180000e-06	-6.284249e-06	-1.022949e-08	-4.683929e+01	-6.711983e+02
1.190000e-06	-6.261874e-06	-1.021371e-08	-4.667252e+01	-6.702060e+02
1.200000e-06	-6.239387e-06	-1.020193e-08	-4.650491e+01	-6.692025e+02
1.210000e-06	-6.216687e-06	-1.018664e-08	-4.633572e+01	-6.681901e+02
1.220000e-06	-6.193907e-06	-1.017209e-08	-4.616593e+01	-6.671709e+02
1.230000e-06	-6.171039e-06	-1.016014e-08	-4.599549e+01	-6.661470e+02
1.240000e-06	-6.147941e-06	-1.014432e-08	-4.582332e+01	-6.651203e+02
1.250000e-06	-6.124660e-06	-1.012623e-08	-4.564980e+01	-6.640923e+02
1.260000e-06	-6.101256e-06	-1.009924e-08	-4.547536e+01	-6.630642e+02
1.270000e-06	-6.077691e-06	-1.007599e-08	-4.529972e+01	-6.620369e+02
1.280000e-06	-6.053879e-06	-1.005798e-08	-4.512224e+01	-6.610107e+02
1.290000e-06	-6.029771e-06	-1.004505e-08	-4.494255e+01	-6.599857e+02
1.300000e-06	-6.005549e-06	-1.003487e-08	-4.476202e+01	-6.589614e+02
1.310000e-06	-5.981383e-06	-1.002345e-08	-4.458190e+01	-6.579373e+02
1.320000e-06	-5.957084e-06	-1.002038e-08	-4.440078e+01	-6.569123e+02
1.330000e-06	-5.932593e-06	-1.001140e-08	-4.421824e+01	-6.558853e+02
1.340000e-06	-5.908019e-06	-9.991457e-09	-4.403508e+01	-6.548551e+02
1.350000e-06	-5.883353e-06	-9.957408e-09	-4.385124e+01	-6.538205e+02
1.360000e-06	-5.858628e-06	-9.922971e-09	-4.366695e+01	-6.527803e+02
1.370000e-06	-5.833706e-06	-9.904166e-09	-4.348120e+01	-6.517334e+02
1.380000e-06	-5.808710e-06	-9.893564e-09	-4.329489e+01	-6.506790e+02
1.390000e-06	-5.783509e-06	-9.886439e-09	-4.310705e+01	-6.496165e+02
1.400000e-06	-5.758007e-06	-9.875274e-09	-4.291697e+01	-6.485456e+02
1.410000e-06	-5.732377e-06	-9.865585e-09	-4.272594e+01	-6.474661e+02
1.420000e-06	-5.706514e-06	-9.849654e-09	-4.253318e+01	-6.463783e+02
1.430000e-06	-5.680625e-06	-9.822779e-09	-4.234021e+01	-6.452825e+02
1.440000e-06	-5.654530e-06	-9.791943e-09	-4.214572e+01	-6.441793e+02
1.450000e-06	-5.628066e-06	-9.766924e-09	-4.194847e+01	-6.430693e+02
1.460000e-06	-5.601421e-06	-9.754409e-09	-4.174987e+01	-6.419531e+02
1.470000e-06	-5.574558e-06	-9.744751e-09	-4.154965e+01	-6.408315e+02
1.480000e-06	-5.547571e-06	-9.736081e-09	-4.134850e+01	-6.397048e+02
1.490000e-06	-5.520356e-06	-9.724672e-09	-4.114566e+01	-6.385733e+02
1.500000e-06	-5.492763e-06	-9.713693e-09	-4.093999e+01	-6.374370e+02
1.510000e-06	-5.465055e-06	-9.698192e-09	-4.073347e+01	-6.362955e+02
1.520000e-06	-5.437265e-06	-9.672253e-09	-4.052634e+01	-6.351483e+02
1.530000e-06	-5.409257e-06	-9.647147e-09	-4.031759e+01	-6.339943e+02
1.540000e-06	-5.381009e-06	-9.623279e-09	-4.010704e+01	-6.328322e+02
1.550000e-06	-5.352639e-06	-9.600535e-09	-3.989559e+01	-6.316603e+02
1.560000e-06	-5.324217e-06	-9.578869e-09	-3.968374e+01	-6.304766e+02
1.570000e-06	-5.295744e-06	-9.561536e-09	-3.947153e+01	-6.292792e+02
1.580000e-06	-5.267263e-06	-9.548949e-09	-3.925924e+01	-6.280657e+02
1.590000e-06	-5.238638e-06	-9.534949e-09	-3.904589e+01	-6.268339e+02
1.600000e-06	-5.209878e-06	-9.522066e-09	-3.883153e+01	-6.255817e+02
1.610000e-06	-5.181113e-06	-9.505826e-09	-3.861713e+01	-6.243070e+02
1.620000e-06	-5.152268e-06	-9.484304e-09	-3.840213e+01	-6.230081e+02
1.630000e-06	-5.123379e-06	-9.460176e-09	-3.818681e+01	-6.216834e+02
1.640000e-06	-5.094340e-06	-9.432915e-09	-3.797037e+01	-6.203319e+02
1.650000e-06	-5.065048e-06	-9.404099e-09	-3.775204e+01	-6.189528e+02
1.660000e-06	-5.035563e-06	-9.379991e-09	-3.753228e+01	-6.175459e+02
1.670000e-06	-5.005947e-06	-9.364524e-09	-3.731154e+01	-6.161111e+02
1.680000e-06	-4.976275e-06	-9.346981e-09	-3.709038e+01	-6.146491e+02
1.690000e-06	-4.946539e-06	-9.326899e-09	-3.686875e+01	-6.131606e+02
1.700000e-06	-4.916732e-06	-9.303083e-09	-3.664658e+01	-6.116468e+02
1.710000e-06	-4.886820e-06	-9.272855e-09	-3.642364e+01	-6.101091e+02
1.720000e-06	-4.856758e-06	-9.242589e-09	-3.619956e+01	-6.085488e+02
1.730000e-06	-4.826543e-06	-9.208489e-09	-3.597436e+01	-6.069677e+02
1.740000e-06	-4.796175e-06	-9.177041e-09	-3.574802e+01	-6.053671e+02
1.750000e-06	-4.765677e-06	-9.152699e-09	-3.552070e+01	-6.037486e+02
1.760000e-06	-4.735122e-06	-9.135090e-09	-3.529296e+01	-6.021134e+02
1.770000e-06	-4.704461e-06	-9.119498e-09	-3.506443e+01	-6.004627e+02
1.780000e-06	-4.673579e-06	-9.097507e-09	-3.483426e+01	-5.987971e+02
1.790000e-06	-4.642598e-06	-9.070296e-09	-3.460334e+01	-5.971174e+02
1.800000e-06	-4.611663e-06	-9.040452e-09	-3.437277e+01	-5.954237e+02
1.810000e-06	-4.580517e-06	-9.010615e-09	-3.414062e+01	-5.937162e+02
1.820000e-06	-4.549278e-06	-8.976359e-09	-3.390779e+01	-5.919946e+02
1.830000e-06	-4.517922e-06	-8.944801e-09	-3.367408e+01	-5.902586e+02
1.840000e-06	-4.486490e-06	-8.921491e-09	-3.343980e+01	-5.885077e+02
1.850000e-06	-4.455079e-06	-8.903519e-09	-3.320568e+01	-5.867413e+02
1.860000e-06	-4.423425e-06	-8.885690e-09	-3.296974e+01	-5.849589e+02
1.870000e-06	-4.391626e-06	-8.861341e-09	-3.273273e+01	-5.831599e+02
1.880000e-06	-4.359673e-06	-8.831009e-09	-3.249458e+01	-5.813441e+02
1.890000e-06	-4.327599e-06	-8.798673e-09	-3.225551e+01	-5.795111e+02
1.900000e-06	-4.295530e-06	-8.771092e-09	-3.201649e+01	-5.776610e+02
1.910000e-06	-4.263343e-06	-8.742927e-09	-3.177658e+01	-5.757938e+02
1.920000e-06	-4.231025e-06	-8.712696e-09	-3.153571e+01	-5.739100e+02
1.930000e-06	-4.198567e-06	-8.683634e-09	-3.129378e+01	-5.720102e+02
1.940000e-06	-4.165935e-06	-8.655651e-09	-3.105056e+01	-5.700950e+02
1.950000e-06	-4.133307e-06	-8.632469e-09	-3.080737e+01	-5.681654e+02
1.960000e-06	-4.100710e-06	-8.609679e-09	-3.056441e+01	-5.662224e+02
1.970000e-06	-4.068017e-06	-8.582935e-09	-3.032074e+01	-5.642669e+02
1.980000e-06	-4.035309e-06	-8.553396e-09	-3.007695e+01	-5.622998e+02
1.990000e-06	-4.002639e-06	-8.522206e-09	-2.983344e+01	-5.603222e+02
2.000000e-06	-3.969851e-06	-8.484732e-09	-2.958905e+01	-5.583346e+02
2.010000e-06	-3.936875e-06	-8.446925e-09	-2.934327e+01	-5.563377e+02
2.020000e-06	-3.903772e-06	-8.414216e-09	-2.909654e+01	-5.543318e+02
2.030000e-06	-3.870568e-06	-8.391907e-09	-2.884905e+01	-5.523168e+02
2.040000e-06	-3.837291e-06	-8.372392e-09	-2.860103e+01	-5.502926e+02
2.050000e-06	-3.803908e-06	-8.337840e-09	-2.835221e+01	-5.482586e+02
2.060000e-06	-3.770497e-06	-8.298599e-09	-2.810319e+01	-5.462142e+02
2.070000e-06	-3.736957e-06	-8.265364e-09	-2.785319e+01	-5.441584e+02
2.080000e-06	-3.703023e-06	-8.239463e-09	-2.760027e+01	-5.420899e+02
2.090000e-06	-3.668935e-06	-8.213839e-09	-2.734620e+01	-5.400076e+02
2.100000e-06	-3.634783e-06	-8.183138e-09	-2.709165e+01	-5.379099e+02
2.110000e-06	-3.600405e-06	-8.149699e-09	-2.683541e+01	-5.357954e+02
2.120000e-06	-3.565945e-06	-8.118769e-09	-2.657857e+01	-5.336628e+02
2.130000e-06	-3.531304e-06	-8.092679e-09	-2.632038e+01	-5.315106e+02
2.140000e-06	-3.496466e-06	-8.060842e-09	-2.606071e+01	-5.293376e+02
2.150000e-06	-3.461501e-06	-8.023147e-09	-2.580010e+01	-5.271426e+02
2.160000e-06	-3.426306e-06	-7.986878e-09	-2.553778e+01	-5.249246e+02
2.170000e-06	-3.391188e-06	-7.953609e-09	-2.527603e+01	-5.226826e+02
2.180000e-06	-3.356163e-06	-7.919895e-09	-2.501497e+01	-5.204160e+02
2.190000e-06	-3.320825e-06	-7.881217e-09	-2.475158e+01	-5.181241e+02
2.200000e-06	-3.285250e-06	-7.844497e-09	-2.448642e+01	-5.158063e+02
2.210000e-06	-3.249750e-06	-7.811629e-09	-2.422183e+01	-5.134622e+02
2.220000e-06	-3.214171e-06	-7.782156e-09	-2.395664e+01	-5.110913e+02
2.230000e-06	-3.178326e-06	-7.750272e-09	-2.368947e+01	-5.086931e+02
2.240000e-06	-3.142350e-06	-7.708262e-09	-2.342132e+01	-5.062669e+02
2.250000e-06	-3.106301e-06	-7.666876e-09	-2.315264e+01	-5.038121e+02
2.260000e-06	-3.070207e-06	-7.628455e-09	-2.288361e+01	-5.013279e+02
2.270000e-06	-3.034168e-06	-7.586230e-09	-2.261500e+01	-4.988134e+02
2.280000e-06	-2.998027e-06	-7.541842e-09	-2.234562e+01	-4.962673e+02
2.290000e-06	-2.961714e-06	-7.499220e-09	-2.207497e+01	-4.936885e+02
2.300000e-06	-2.925384e-06	-7.464389e-09	-2.180418e+01	-4.910756e+02
2.310000e-06	-2.889014e-06	-7.432931e-09	-2.153310e+01	-4.884270e+02
2.320000e-06	-2.852592e-06	-7.392697e-09	-2.126163e+01	-4.857414e+02
2.330000e-06	-2.816175e-06	-7.345510e-09	-2.099020e+01	-4.830171e+02
2.340000e-06	-2.779707e-06	-7.297108e-09	-2.071839e+01	-4.802528e+02
2.350000e-06	-2.743122e-06	-7.246568e-09	-2.044571e+01	-4.774470e+02
2.360000e-06	-2.706544e-06	-7.197043e-09	-2.017307e+01	-4.745986e+02
2.370000e-06	-2.670002e-06	-7.150030e-09	-1.990071e+01	-4.717066e+02
2.380000e-06	-2.633382e-06	-7.103561e-09	-1.962776e+01	-4.687705e+02
2.390000e-06	-2.596667e-06	-7.057994e-09	-1.935411e+01	-4.657897e+02
2.400000e-06	-2.559953e-06	-7.013275e-09	-1.908046e+01	-4.627643e+02
2.410000e-06	-2.523296e-06	-6.969726e-09	-1.880724e+01	-4.596945e+02
2.420000e-06	-2.486587e-06	-6.922365e-09	-1.853363e+01	-4.565811e+02
2.430000e-06	-2.449751e-06	-6.867380e-09	-1.825908e+01	-4.534248e+02
2.440000e-06	-2.412838e-06	-6.810085e-09	-1.798395e+01	-4.502270e+02
2.450000e-06	-2.375868e-06	-6.755234e-09	-1.770840e+01	-4.469890e+02
2.460000e-06	-2.338898e-06	-6.703503e-09	-1.743284e+01	-4.437125e+02
2.470000e-06	-2.301884e-06	-6.651503e-09	-1.715696e+01	-4.403993e+02
2.480000e-06	-2.264821e-06	-6.598337e-09	-1.688072e+01	-4.370510e+02
2.490000e-06	-2.227701e-06	-6.546991e-09	-1.660404e+01	-4.336695e+02
2.500000e-06	-2.190322e-06	-6.496982e-09	-1.632544e+01	-4.302564e+02
2.510000e-06	-2.152909e-06	-6.443035e-09	-1.604658e+01	-4.268134e+02
2.520000e-06	-2.115562e-06	-6.385356e-09	-1.576822e+01	-4.233417e+02
2.530000e-06	-2.078201e-06	-6.329702e-09	-1.548975e+01	-4.198426e+02
2.540000e-06	-2.040776e-06	-6.278506e-09	-1.521081e+01	-4.163170e+02
2.550000e-06	-2.003205e-06	-6.227284e-09	-1.493078e+01	-4.127656e+02
2.560000e-06	-1.965615e-06	-6.171827e-09	-1.465060e+01	-4.091889e+02
2.570000e-06	-1.927954e-06	-6.115832e-09	-1.436990e+01	-4.055870e+02
2.580000e-06	-1.890259e-06	-6.059993e-09	-1.408894e+01	-4.019599e+02
2.590000e-06	-1.852478e-06	-6.002518e-09	-1.380734e+01	-3.983076e+02
2.600000e-06	-1.814632e-06	-5.941632e-09	-1.352526e+01	-3.946297e+02
2.610000e-06	-1.776799e-06	-5.880685e-09	-1.324327e+01	-3.909258e+02
2.620000e-06	-1.738897e-06	-5.824873e-09	-1.296077e+01	-3.871954e+02
2.630000e-06	-1.700990e-06	-5.768908e-09	-1.267823e+01	-3.834380e+02
2.640000e-06	-1.663113e-06	-5.708640e-09	-1.239592e+01	-3.796531e+02
2.650000e-06	-1.625176e-06	-5.646857e-09	-1.211315e+01	-3.758403e+02
2.660000e-06	-1.587121e-06	-5.585156e-09	-1.182951e+01	-3.719990e+02
2.670000e-06	-1.549018e-06	-5.523176e-09	-1.154552e+01	-3.681287e+02
2.680000e-06	-1.510908e-06	-5.459939e-09	-1.126146e+01	-3.642290e+02
2.690000e-06	-1.472738e-06	-5.396794e-09	-1.097696e+01	-3.602994e+02
2.700000e-06	-1.434532e-06	-5.335515e-09	-1.069220e+01	-3.563395e+02
2.710000e-06	-1.396322e-06	-5.275342e-09	-1.040741e+01	-3.523485e+02
2.720000e-06	-1.358082e-06	-5.215056e-09	-1.012239e+01	-3.483259e+02
2.730000e-06	-1.319777e-06	-5.151000e-09	-9.836879e+00	-3.442708e+02
2.740000e-06	-1.281411e-06	-5.088396e-09	-9.550925e+00	-3.401821e+02
2.750000e-06	-1.243042e-06	-5.024578e-09	-9.264939e+00	-3.360586e+02
2.760000e-06	-1.204678e-06	-4.955833e-09	-8.979000e+00	-3.318988e+02
2.770000e-06	-1.166324e-06	-4.885741e-09	-8.693128e+00	-3.277012e+02
2.780000e-06	-1.127873e-06	-4.809961e-09	-8.406538e+00	-3.234636e+02
2.790000e-06	-1.089339e-06	-4.737955e-09	-8.119323e+00	-3.191841e+02
2.800000e-06	-1.050757e-06	-4.666172e-09	-7.831758e+00	-3.148603e+02
2.810000e-06	-1.012236e-06	-4.599098e-09	-7.544643e+00	-3.104896e+02
2.820000e-06	-9.737838e-07	-4.541003e-09	-7.258042e+00	-3.060696e+02
2.830000e-06	-9.352043e-07	-4.481431e-09	-6.970492e+00	-3.015975e+02
2.840000e-06	-8.965016e-07	-4.419717e-09	-6.682023e+00	-2.970708e+02
