# Temperatura_=_20.0
# Concentracion g/m^3_=_10000.0
# C_Vs_to_Am_M_A/Vsm_=_65563218390.804596
# pendiente_HvsI_1/m_=_3716.3
# ordenada_HvsI_A/m_=_1297.0
# frecuencia_Hz_=_81230.11840276649

Tiempo_(s)	Campo_(V.s)	Magnetizacion_(V.s)	Campo_(kA/m)	Magnetizacion_(A/m)
0.000000e+00	-7.645539e-06	-1.095462e-08	-5.696833e+01	-7.139948e+02
1.000000e-08	-7.645519e-06	-1.095867e-08	-5.696819e+01	-7.139376e+02
2.000000e-08	-7.645284e-06	-1.096873e-08	-5.696643e+01	-7.138690e+02
3.000000e-08	-7.644958e-06	-1.097542e-08	-5.696401e+01	-7.137901e+02
4.000000e-08	-7.644552e-06	-1.096039e-08	-5.696098e+01	-7.137022e+02
5.000000e-08	-7.644023e-06	-1.089494e-08	-5.695704e+01	-7.136074e+02
6.000000e-08	-7.643420e-06	-1.080587e-08	-5.695254e+01	-7.135081e+02
7.000000e-08	-7.642556e-06	-1.084054e-08	-5.694610e+01	-7.134070e+02
8.000000e-08	-7.641385e-06	-1.100764e-08	-5.693739e+01	-7.133071e+02
9.000000e-08	-7.640129e-06	-1.108011e-08	-5.692802e+01	-7.132113e+02
1.000000e-07	-7.638540e-06	-1.117055e-08	-5.691618e+01	-7.131226e+02
1.100000e-07	-7.636707e-06	-1.125787e-08	-5.690253e+01	-7.130438e+02
1.200000e-07	-7.634689e-06	-1.104093e-08	-5.688749e+01	-7.129774e+02
1.300000e-07	-7.632206e-06	-1.084118e-08	-5.686899e+01	-7.129253e+02
1.400000e-07	-7.629538e-06	-1.086829e-08	-5.684911e+01	-7.128891e+02
1.500000e-07	-7.626653e-06	-1.097816e-08	-5.682761e+01	-7.128695e+02
1.600000e-07	-7.623374e-06	-1.085424e-08	-5.680318e+01	-7.128669e+02
1.700000e-07	-7.619804e-06	-1.073084e-08	-5.677658e+01	-7.128805e+02
1.800000e-07	-7.615998e-06	-1.084440e-08	-5.674822e+01	-7.129092e+02
1.900000e-07	-7.612001e-06	-1.079467e-08	-5.671843e+01	-7.129509e+02
2.000000e-07	-7.607922e-06	-1.084042e-08	-5.668804e+01	-7.130030e+02
2.100000e-07	-7.603741e-06	-1.096401e-08	-5.665689e+01	-7.130623e+02
2.200000e-07	-7.599346e-06	-1.093046e-08	-5.662414e+01	-7.131253e+02
2.300000e-07	-7.594821e-06	-1.087387e-08	-5.659043e+01	-7.131878e+02
2.400000e-07	-7.590262e-06	-1.091859e-08	-5.655646e+01	-7.132458e+02
2.500000e-07	-7.585558e-06	-1.109545e-08	-5.652141e+01	-7.132950e+02
2.600000e-07	-7.580645e-06	-1.095661e-08	-5.648480e+01	-7.133312e+02
2.700000e-07	-7.575684e-06	-1.076649e-08	-5.644784e+01	-7.133506e+02
2.800000e-07	-7.570454e-06	-1.092642e-08	-5.640886e+01	-7.133496e+02
2.900000e-07	-7.564867e-06	-1.096861e-08	-5.636723e+01	-7.133251e+02
3.000000e-07	-7.559281e-06	-1.077334e-08	-5.632561e+01	-7.132747e+02
3.100000e-07	-7.553534e-06	-1.078985e-08	-5.628279e+01	-7.131965e+02
3.200000e-07	-7.547419e-06	-1.097304e-08	-5.623722e+01	-7.130892e+02
3.300000e-07	-7.541038e-06	-1.088836e-08	-5.618968e+01	-7.129525e+02
3.400000e-07	-7.534530e-06	-1.090700e-08	-5.614119e+01	-7.127865e+02
3.500000e-07	-7.527921e-06	-1.095474e-08	-5.609194e+01	-7.125920e+02
3.600000e-07	-7.521171e-06	-1.073820e-08	-5.604164e+01	-7.123705e+02
3.700000e-07	-7.514228e-06	-1.074336e-08	-5.598991e+01	-7.121240e+02
3.800000e-07	-7.507051e-06	-1.094969e-08	-5.593644e+01	-7.118546e+02
3.900000e-07	-7.499652e-06	-1.093747e-08	-5.588130e+01	-7.115651e+02
4.000000e-07	-7.491952e-06	-1.075266e-08	-5.582393e+01	-7.112582e+02
4.100000e-07	-7.484068e-06	-1.080551e-08	-5.576519e+01	-7.109366e+02
4.200000e-07	-7.475979e-06	-1.091701e-08	-5.570491e+01	-7.106032e+02
4.300000e-07	-7.467765e-06	-1.086298e-08	-5.564371e+01	-7.102605e+02
4.400000e-07	-7.459494e-06	-1.082667e-08	-5.558208e+01	-7.099107e+02
4.500000e-07	-7.451099e-06	-1.075054e-08	-5.551953e+01	-7.095558e+02
4.600000e-07	-7.442624e-06	-1.076186e-08	-5.545638e+01	-7.091974e+02
4.700000e-07	-7.433921e-06	-1.085238e-08	-5.539153e+01	-7.088366e+02
4.800000e-07	-7.424969e-06	-1.083320e-08	-5.532483e+01	-7.084742e+02
4.900000e-07	-7.415931e-06	-1.071881e-08	-5.525748e+01	-7.081103e+02
5.000000e-07	-7.406655e-06	-1.072068e-08	-5.518837e+01	-7.077450e+02
5.100000e-07	-7.397079e-06	-1.082565e-08	-5.511702e+01	-7.073779e+02
5.200000e-07	-7.387331e-06	-1.081590e-08	-5.504438e+01	-7.070084e+02
5.300000e-07	-7.377308e-06	-1.078265e-08	-5.496970e+01	-7.066356e+02
5.400000e-07	-7.366928e-06	-1.072958e-08	-5.489235e+01	-7.062588e+02
5.500000e-07	-7.356158e-06	-1.072221e-08	-5.481210e+01	-7.058770e+02
5.600000e-07	-7.345135e-06	-1.080175e-08	-5.472997e+01	-7.054894e+02
5.700000e-07	-7.333789e-06	-1.077984e-08	-5.464542e+01	-7.050954e+02
5.800000e-07	-7.322093e-06	-1.069253e-08	-5.455828e+01	-7.046946e+02
5.900000e-07	-7.310169e-06	-1.068864e-08	-5.446943e+01	-7.042869e+02
6.000000e-07	-7.298115e-06	-1.076486e-08	-5.437962e+01	-7.038723e+02
6.100000e-07	-7.285884e-06	-1.075921e-08	-5.428848e+01	-7.034513e+02
6.200000e-07	-7.273413e-06	-1.071048e-08	-5.419556e+01	-7.030245e+02
6.300000e-07	-7.260755e-06	-1.068695e-08	-5.410124e+01	-7.025930e+02
6.400000e-07	-7.247856e-06	-1.068507e-08	-5.400512e+01	-7.021577e+02
6.500000e-07	-7.234854e-06	-1.073196e-08	-5.390824e+01	-7.017201e+02
6.600000e-07	-7.221707e-06	-1.071044e-08	-5.381028e+01	-7.012813e+02
6.700000e-07	-7.208317e-06	-1.065625e-08	-5.371051e+01	-7.008428e+02
6.800000e-07	-7.194702e-06	-1.065333e-08	-5.360906e+01	-7.004057e+02
6.900000e-07	-7.180918e-06	-1.069183e-08	-5.350636e+01	-6.999711e+02
7.000000e-07	-7.166879e-06	-1.070198e-08	-5.340175e+01	-6.995398e+02
7.100000e-07	-7.152626e-06	-1.065787e-08	-5.329555e+01	-6.991123e+02
7.200000e-07	-7.138209e-06	-1.064319e-08	-5.318813e+01	-6.986888e+02
7.300000e-07	-7.123640e-06	-1.065369e-08	-5.307957e+01	-6.982691e+02
7.400000e-07	-7.108897e-06	-1.067751e-08	-5.296971e+01	-6.978527e+02
7.500000e-07	-7.093918e-06	-1.065478e-08	-5.285811e+01	-6.974385e+02
7.600000e-07	-7.078573e-06	-1.061017e-08	-5.274377e+01	-6.970253e+02
7.700000e-07	-7.062973e-06	-1.061396e-08	-5.262752e+01	-6.966116e+02
7.800000e-07	-7.047274e-06	-1.062861e-08	-5.251055e+01	-6.961956e+02
7.900000e-07	-7.031337e-06	-1.063526e-08	-5.239180e+01	-6.957752e+02
8.000000e-07	-7.015200e-06	-1.060440e-08	-5.227156e+01	-6.953484e+02
8.100000e-07	-6.998660e-06	-1.058895e-08	-5.214832e+01	-6.949133e+02
8.200000e-07	-6.981840e-06	-1.060077e-08	-5.202299e+01	-6.944679e+02
8.300000e-07	-6.964880e-06	-1.060742e-08	-5.189662e+01	-6.940104e+02
8.400000e-07	-6.947740e-06	-1.059420e-08	-5.176890e+01	-6.935392e+02
8.500000e-07	-6.930368e-06	-1.055492e-08	-5.163947e+01	-6.930532e+02
8.600000e-07	-6.912771e-06	-1.055154e-08	-5.150834e+01	-6.925514e+02
8.700000e-07	-6.895188e-06	-1.056280e-08	-5.137733e+01	-6.920333e+02
8.800000e-07	-6.877576e-06	-1.056236e-08	-5.124610e+01	-6.914987e+02
8.900000e-07	-6.859806e-06	-1.054123e-08	-5.111369e+01	-6.909476e+02
9.000000e-07	-6.841691e-06	-1.051677e-08	-5.097871e+01	-6.903806e+02
9.100000e-07	-6.823337e-06	-1.052089e-08	-5.084196e+01	-6.897983e+02
9.200000e-07	-6.805033e-06	-1.052037e-08	-5.070557e+01	-6.892017e+02
9.300000e-07	-6.786617e-06	-1.050581e-08	-5.056835e+01	-6.885918e+02
9.400000e-07	-6.768031e-06	-1.047749e-08	-5.042986e+01	-6.879695e+02
9.500000e-07	-6.749265e-06	-1.047035e-08	-5.029003e+01	-6.873361e+02
9.600000e-07	-6.730250e-06	-1.048073e-08	-5.014835e+01	-6.866922e+02
9.700000e-07	-6.710991e-06	-1.047401e-08	-5.000484e+01	-6.860388e+02
9.800000e-07	-6.691484e-06	-1.045368e-08	-4.985949e+01	-6.853764e+02
9.900000e-07	-6.671736e-06	-1.042702e-08	-4.971235e+01	-6.847050e+02
1.000000e-06	-6.651850e-06	-1.042195e-08	-4.956417e+01	-6.840247e+02
1.010000e-06	-6.631923e-06	-1.041816e-08	-4.941570e+01	-6.833350e+02
1.020000e-06	-6.611813e-06	-1.040128e-08	-4.926585e+01	-6.826352e+02
1.030000e-06	-6.591604e-06	-1.038071e-08	-4.911527e+01	-6.819244e+02
1.040000e-06	-6.571298e-06	-1.036828e-08	-4.896397e+01	-6.812014e+02
1.050000e-06	-6.550848e-06	-1.036927e-08	-4.881159e+01	-6.804649e+02
1.060000e-06	-6.530403e-06	-1.035574e-08	-4.865925e+01	-6.797132e+02
1.070000e-06	-6.509897e-06	-1.033548e-08	-4.850645e+01	-6.789451e+02
1.080000e-06	-6.489243e-06	-1.031446e-08	-4.835256e+01	-6.781590e+02
1.090000e-06	-6.468417e-06	-1.030151e-08	-4.819738e+01	-6.773538e+02
1.100000e-06	-6.447295e-06	-1.028961e-08	-4.803999e+01	-6.765284e+02
1.110000e-06	-6.426061e-06	-1.026776e-08	-4.788178e+01	-6.756820e+02
1.120000e-06	-6.404789e-06	-1.025410e-08	-4.772328e+01	-6.748143e+02
1.130000e-06	-6.383343e-06	-1.024759e-08	-4.756348e+01	-6.739251e+02
1.140000e-06	-6.361696e-06	-1.024738e-08	-4.740218e+01	-6.730150e+02
1.150000e-06	-6.339791e-06	-1.023779e-08	-4.723897e+01	-6.720845e+02
1.160000e-06	-6.317715e-06	-1.021768e-08	-4.707447e+01	-6.711349e+02
1.170000e-06	-6.295484e-06	-1.019797e-08	-4.690882e+01	-6.701675e+02
1.180000e-06	-6.273062e-06	-1.017877e-08	-4.674176e+01	-6.691841e+02
1.190000e-06	-6.250517e-06	-1.016203e-08	-4.657376e+01	-6.681866e+02
1.200000e-06	-6.227991e-06	-1.013686e-08	-4.640592e+01	-6.671771e+02
1.210000e-06	-6.205369e-06	-1.011513e-08	-4.623736e+01	-6.661577e+02
1.220000e-06	-6.182481e-06	-1.010262e-08	-4.606682e+01	-6.651304e+02
1.230000e-06	-6.159389e-06	-1.009372e-08	-4.589476e+01	-6.640972e+02
1.240000e-06	-6.136265e-06	-1.008650e-08	-4.572245e+01	-6.630599e+02
1.250000e-06	-6.112920e-06	-1.006923e-08	-4.554850e+01	-6.620201e+02
1.260000e-06	-6.089257e-06	-1.004881e-08	-4.537219e+01	-6.609789e+02
1.270000e-06	-6.065522e-06	-1.002794e-08	-4.519533e+01	-6.599374e+02
1.280000e-06	-6.041670e-06	-1.000904e-08	-4.501761e+01	-6.588960e+02
1.290000e-06	-6.017653e-06	-9.993357e-09	-4.483865e+01	-6.578551e+02
1.300000e-06	-5.993508e-06	-9.979270e-09	-4.465874e+01	-6.568145e+02
1.310000e-06	-5.969270e-06	-9.971493e-09	-4.447814e+01	-6.557737e+02
1.320000e-06	-5.944943e-06	-9.964749e-09	-4.429687e+01	-6.547323e+02
1.330000e-06	-5.920485e-06	-9.954730e-09	-4.411464e+01	-6.536893e+02
1.340000e-06	-5.895930e-06	-9.931232e-09	-4.393167e+01	-6.526438e+02
1.350000e-06	-5.871247e-06	-9.898448e-09	-4.374776e+01	-6.515947e+02
1.360000e-06	-5.846394e-06	-9.873907e-09	-4.356257e+01	-6.505409e+02
1.370000e-06	-5.821484e-06	-9.858197e-09	-4.337696e+01	-6.494815e+02
1.380000e-06	-5.796418e-06	-9.847947e-09	-4.319019e+01	-6.484155e+02
1.390000e-06	-5.771066e-06	-9.836180e-09	-4.300129e+01	-6.473421e+02
1.400000e-06	-5.745461e-06	-9.822029e-09	-4.281050e+01	-6.462608e+02
1.410000e-06	-5.719676e-06	-9.803873e-09	-4.261837e+01	-6.451710e+02
1.420000e-06	-5.693692e-06	-9.779216e-09	-4.242476e+01	-6.440724e+02
1.430000e-06	-5.667438e-06	-9.752303e-09	-4.222914e+01	-6.429649e+02
1.440000e-06	-5.641096e-06	-9.729533e-09	-4.203286e+01	-6.418485e+02
1.450000e-06	-5.614548e-06	-9.718366e-09	-4.183505e+01	-6.407232e+02
1.460000e-06	-5.587573e-06	-9.711013e-09	-4.163405e+01	-6.395891e+02
1.470000e-06	-5.560230e-06	-9.703120e-09	-4.143031e+01	-6.384464e+02
1.480000e-06	-5.532630e-06	-9.686239e-09	-4.122466e+01	-6.372951e+02
1.490000e-06	-5.504976e-06	-9.662698e-09	-4.101860e+01	-6.361350e+02
1.500000e-06	-5.477359e-06	-9.637083e-09	-4.081282e+01	-6.349660e+02
1.510000e-06	-5.449482e-06	-9.605356e-09	-4.060510e+01	-6.337878e+02
1.520000e-06	-5.421362e-06	-9.578494e-09	-4.039558e+01	-6.325997e+02
1.530000e-06	-5.393252e-06	-9.557913e-09	-4.018612e+01	-6.314009e+02
1.540000e-06	-5.365088e-06	-9.545566e-09	-3.997627e+01	-6.301904e+02
1.550000e-06	-5.336772e-06	-9.535831e-09	-3.976528e+01	-6.289672e+02
1.560000e-06	-5.308324e-06	-9.522952e-09	-3.955331e+01	-6.277299e+02
1.570000e-06	-5.279849e-06	-9.506748e-09	-3.934114e+01	-6.264770e+02
1.580000e-06	-5.251296e-06	-9.482913e-09	-3.912838e+01	-6.252071e+02
1.590000e-06	-5.222563e-06	-9.459058e-09	-3.891429e+01	-6.239187e+02
1.600000e-06	-5.193748e-06	-9.435847e-09	-3.869959e+01	-6.226104e+02
1.610000e-06	-5.164890e-06	-9.412129e-09	-3.848455e+01	-6.212808e+02
1.620000e-06	-5.135923e-06	-9.391449e-09	-3.826872e+01	-6.199290e+02
1.630000e-06	-5.106899e-06	-9.373475e-09	-3.805245e+01	-6.185539e+02
1.640000e-06	-5.077654e-06	-9.357014e-09	-3.783454e+01	-6.171548e+02
1.650000e-06	-5.048219e-06	-9.339015e-09	-3.761522e+01	-6.157315e+02
1.660000e-06	-5.018708e-06	-9.318618e-09	-3.739533e+01	-6.142838e+02
1.670000e-06	-4.989018e-06	-9.289828e-09	-3.717410e+01	-6.128118e+02
1.680000e-06	-4.959215e-06	-9.258761e-09	-3.695204e+01	-6.113161e+02
1.690000e-06	-4.929200e-06	-9.231184e-09	-3.672839e+01	-6.097974e+02
1.700000e-06	-4.899067e-06	-9.202411e-09	-3.650386e+01	-6.082565e+02
1.710000e-06	-4.868974e-06	-9.176428e-09	-3.627963e+01	-6.066945e+02
1.720000e-06	-4.838764e-06	-9.150269e-09	-3.605453e+01	-6.051126e+02
1.730000e-06	-4.808435e-06	-9.128784e-09	-3.582854e+01	-6.035119e+02
1.740000e-06	-4.778031e-06	-9.110493e-09	-3.560200e+01	-6.018937e+02
1.750000e-06	-4.747571e-06	-9.091433e-09	-3.537504e+01	-6.002589e+02
1.760000e-06	-4.716964e-06	-9.072117e-09	-3.514697e+01	-5.986087e+02
1.770000e-06	-4.686233e-06	-9.045857e-09	-3.491799e+01	-5.969438e+02
1.780000e-06	-4.655455e-06	-9.016645e-09	-3.468866e+01	-5.952648e+02
1.790000e-06	-4.624646e-06	-8.983588e-09	-3.445909e+01	-5.935723e+02
1.800000e-06	-4.593636e-06	-8.950298e-09	-3.422804e+01	-5.918665e+02
1.810000e-06	-4.562409e-06	-8.916941e-09	-3.399536e+01	-5.901475e+02
1.820000e-06	-4.531119e-06	-8.887245e-09	-3.376221e+01	-5.884152e+02
1.830000e-06	-4.499771e-06	-8.866090e-09	-3.352863e+01	-5.866694e+02
1.840000e-06	-4.468323e-06	-8.845005e-09	-3.329431e+01	-5.849098e+02
1.850000e-06	-4.436614e-06	-8.824179e-09	-3.305804e+01	-5.831361e+02
1.860000e-06	-4.404733e-06	-8.799918e-09	-3.282048e+01	-5.813481e+02
1.870000e-06	-4.372768e-06	-8.774006e-09	-3.258231e+01	-5.795454e+02
1.880000e-06	-4.340683e-06	-8.748411e-09	-3.234324e+01	-5.777280e+02
1.890000e-06	-4.308550e-06	-8.718692e-09	-3.210381e+01	-5.758958e+02
1.900000e-06	-4.276395e-06	-8.688141e-09	-3.186421e+01	-5.740489e+02
1.910000e-06	-4.244135e-06	-8.657053e-09	-3.162384e+01	-5.721878e+02
1.920000e-06	-4.211802e-06	-8.625771e-09	-3.138292e+01	-5.703128e+02
1.930000e-06	-4.179487e-06	-8.594163e-09	-3.114213e+01	-5.684247e+02
1.940000e-06	-4.147114e-06	-8.568375e-09	-3.090092e+01	-5.665240e+02
1.950000e-06	-4.114540e-06	-8.549660e-09	-3.065821e+01	-5.646118e+02
1.960000e-06	-4.081844e-06	-8.527830e-09	-3.041458e+01	-5.626888e+02
1.970000e-06	-4.049156e-06	-8.497815e-09	-3.017102e+01	-5.607561e+02
1.980000e-06	-4.016343e-06	-8.462804e-09	-2.992652e+01	-5.588143e+02
1.990000e-06	-3.983507e-06	-8.426592e-09	-2.968185e+01	-5.568642e+02
2.000000e-06	-3.950645e-06	-8.390180e-09	-2.943699e+01	-5.549063e+02
2.010000e-06	-3.917562e-06	-8.359777e-09	-2.919048e+01	-5.529410e+02
2.020000e-06	-3.884282e-06	-8.333453e-09	-2.894251e+01	-5.509683e+02
2.030000e-06	-3.850893e-06	-8.310181e-09	-2.869372e+01	-5.489880e+02
2.040000e-06	-3.817500e-06	-8.286532e-09	-2.844490e+01	-5.469996e+02
2.050000e-06	-3.784071e-06	-8.257817e-09	-2.819582e+01	-5.450023e+02
2.060000e-06	-3.750526e-06	-8.226967e-09	-2.794587e+01	-5.429951e+02
2.070000e-06	-3.716735e-06	-8.193632e-09	-2.769409e+01	-5.409765e+02
2.080000e-06	-3.682746e-06	-8.165048e-09	-2.744082e+01	-5.389451e+02
2.090000e-06	-3.648610e-06	-8.135096e-09	-2.718647e+01	-5.368992e+02
2.100000e-06	-3.614227e-06	-8.098984e-09	-2.693028e+01	-5.348369e+02
2.110000e-06	-3.579750e-06	-8.061386e-09	-2.667338e+01	-5.327565e+02
2.120000e-06	-3.545155e-06	-8.025546e-09	-2.641561e+01	-5.306559e+02
2.130000e-06	-3.510454e-06	-7.996211e-09	-2.615705e+01	-5.285336e+02
2.140000e-06	-3.475649e-06	-7.966071e-09	-2.589771e+01	-5.263876e+02
2.150000e-06	-3.440648e-06	-7.933788e-09	-2.563691e+01	-5.242167e+02
2.160000e-06	-3.405546e-06	-7.901649e-09	-2.537536e+01	-5.220193e+02
2.170000e-06	-3.370326e-06	-7.870234e-09	-2.511293e+01	-5.197944e+02
2.180000e-06	-3.334881e-06	-7.837633e-09	-2.484882e+01	-5.175410e+02
2.190000e-06	-3.299271e-06	-7.802667e-09	-2.458348e+01	-5.152585e+02
2.200000e-06	-3.263659e-06	-7.767481e-09	-2.431813e+01	-5.129464e+02
2.210000e-06	-3.228105e-06	-7.732170e-09	-2.405321e+01	-5.106043e+02
2.220000e-06	-3.192519e-06	-7.696611e-09	-2.378805e+01	-5.082319e+02
2.230000e-06	-3.156775e-06	-7.657722e-09	-2.352172e+01	-5.058293e+02
2.240000e-06	-3.120895e-06	-7.618661e-09	-2.325437e+01	-5.033962e+02
2.250000e-06	-3.084915e-06	-7.582881e-09	-2.298628e+01	-5.009327e+02
2.260000e-06	-3.048808e-06	-7.546065e-09	-2.271723e+01	-4.984386e+02
2.270000e-06	-3.012592e-06	-7.508477e-09	-2.244739e+01	-4.959137e+02
2.280000e-06	-2.976366e-06	-7.467133e-09	-2.217745e+01	-4.933578e+02
2.290000e-06	-2.940163e-06	-7.423956e-09	-2.190771e+01	-4.907705e+02
2.300000e-06	-2.903930e-06	-7.381519e-09	-2.163772e+01	-4.881512e+02
2.310000e-06	-2.867645e-06	-7.337413e-09	-2.136736e+01	-4.854993e+02
2.320000e-06	-2.831274e-06	-7.292575e-09	-2.109635e+01	-4.828141e+02
2.330000e-06	-2.794828e-06	-7.247848e-09	-2.082479e+01	-4.800947e+02
2.340000e-06	-2.758377e-06	-7.205289e-09	-2.055318e+01	-4.773403e+02
2.350000e-06	-2.721902e-06	-7.162490e-09	-2.028140e+01	-4.745501e+02
2.360000e-06	-2.685440e-06	-7.119707e-09	-2.000971e+01	-4.717232e+02
2.370000e-06	-2.648903e-06	-7.077059e-09	-1.973747e+01	-4.688589e+02
2.380000e-06	-2.612267e-06	-7.030253e-09	-1.946448e+01	-4.659567e+02
2.390000e-06	-2.575595e-06	-6.980849e-09	-1.919124e+01	-4.630162e+02
2.400000e-06	-2.538877e-06	-6.930508e-09	-1.891764e+01	-4.600371e+02
2.410000e-06	-2.502118e-06	-6.880402e-09	-1.864375e+01	-4.570195e+02
2.420000e-06	-2.465217e-06	-6.829585e-09	-1.836879e+01	-4.539637e+02
2.430000e-06	-2.428258e-06	-6.779126e-09	-1.809340e+01	-4.508702e+02
2.440000e-06	-2.391260e-06	-6.731932e-09	-1.781772e+01	-4.477397e+02
2.450000e-06	-2.354154e-06	-6.683038e-09	-1.754124e+01	-4.445731e+02
2.460000e-06	-2.317094e-06	-6.630820e-09	-1.726510e+01	-4.413715e+02
2.470000e-06	-2.279974e-06	-6.579916e-09	-1.698851e+01	-4.381362e+02
2.480000e-06	-2.242774e-06	-6.531319e-09	-1.671133e+01	-4.348683e+02
2.490000e-06	-2.205514e-06	-6.481391e-09	-1.643369e+01	-4.315692e+02
2.500000e-06	-2.168208e-06	-6.428733e-09	-1.615572e+01	-4.282401e+02
2.510000e-06	-2.130923e-06	-6.370960e-09	-1.587791e+01	-4.248821e+02
2.520000e-06	-2.093562e-06	-6.313715e-09	-1.559952e+01	-4.214962e+02
2.530000e-06	-2.056169e-06	-6.263169e-09	-1.532090e+01	-4.180833e+02
2.540000e-06	-2.018690e-06	-6.213543e-09	-1.504163e+01	-4.146439e+02
2.550000e-06	-1.981131e-06	-6.162324e-09	-1.476178e+01	-4.111783e+02
2.560000e-06	-1.943551e-06	-6.111687e-09	-1.448176e+01	-4.076868e+02
2.570000e-06	-1.905876e-06	-6.062224e-09	-1.420104e+01	-4.041692e+02
2.580000e-06	-1.868146e-06	-6.008247e-09	-1.391990e+01	-4.006251e+02
2.590000e-06	-1.830432e-06	-5.947772e-09	-1.363889e+01	-3.970539e+02
2.600000e-06	-1.792651e-06	-5.882992e-09	-1.335738e+01	-3.934550e+02
2.610000e-06	-1.754843e-06	-5.819453e-09	-1.307567e+01	-3.898275e+02
2.620000e-06	-1.716974e-06	-5.762738e-09	-1.279349e+01	-3.861704e+02
2.630000e-06	-1.678993e-06	-5.707427e-09	-1.251049e+01	-3.824826e+02
2.640000e-06	-1.641013e-06	-5.652193e-09	-1.222749e+01	-3.787632e+02
2.650000e-06	-1.602950e-06	-5.595181e-09	-1.194388e+01	-3.750110e+02
2.660000e-06	-1.564882e-06	-5.537642e-09	-1.166023e+01	-3.712249e+02
2.670000e-06	-1.526849e-06	-5.481534e-09	-1.137684e+01	-3.674041e+02
2.680000e-06	-1.488689e-06	-5.423624e-09	-1.109250e+01	-3.635474e+02
2.690000e-06	-1.450401e-06	-5.361868e-09	-1.080720e+01	-3.596540e+02
2.700000e-06	-1.412181e-06	-5.295038e-09	-1.052243e+01	-3.557229e+02
2.710000e-06	-1.373995e-06	-5.228439e-09	-1.023789e+01	-3.517532e+02
2.720000e-06	-1.335718e-06	-5.164302e-09	-9.952686e+00	-3.477440e+02
2.730000e-06	-1.297325e-06	-5.102643e-09	-9.666612e+00	-3.436942e+02
2.740000e-06	-1.258933e-06	-5.043681e-09	-9.380547e+00	-3.396028e+02
2.750000e-06	-1.220502e-06	-4.979901e-09	-9.094187e+00	-3.354686e+02
2.760000e-06	-1.182011e-06	-4.913862e-09	-8.807380e+00	-3.312902e+02
2.770000e-06	-1.143557e-06	-4.845757e-09	-8.520858e+00	-3.270660e+02
2.780000e-06	-1.104993e-06	-4.770435e-09	-8.233506e+00	-3.227944e+02
2.790000e-06	-1.066388e-06	-4.694301e-09	-7.945852e+00	-3.184735e+02
2.800000e-06	-1.027895e-06	-4.620182e-09	-7.659041e+00	-3.141013e+02
2.810000e-06	-9.893424e-07	-4.559342e-09	-7.371774e+00	-3.096755e+02
2.820000e-06	-9.507479e-07	-4.505161e-09	-7.084200e+00	-3.051939e+02
2.830000e-06	-9.121807e-07	-4.444040e-09	-6.796828e+00	-3.006542e+02
2.840000e-06	-8.735737e-07	-4.376595e-09	-6.509160e+00	-2.960539e+02
