# Temperatura_=_20.0
# Concentracion g/m^3_=_10000.0
# C_Vs_to_Am_M_A/Vsm_=_65563218390.804596
# pendiente_HvsI_1/m_=_3716.3
# ordenada_HvsI_A/m_=_1297.0
# frecuencia_Hz_=_81231.3385488696

Tiempo_(s)	Campo_(V.s)	Magnetizacion_(V.s)	Campo_(kA/m)	Magnetizacion_(A/m)
0.000000e+00	-7.631866e-06	-1.100933e-08	-5.695677e+01	-7.195421e+02
1.000000e-08	-7.632047e-06	-1.100505e-08	-5.695812e+01	-7.192929e+02
2.000000e-08	-7.632002e-06	-1.099902e-08	-5.695778e+01	-7.190174e+02
3.000000e-08	-7.631875e-06	-1.099422e-08	-5.695684e+01	-7.187177e+02
4.000000e-08	-7.631669e-06	-1.099034e-08	-5.695530e+01	-7.183965e+02
5.000000e-08	-7.631342e-06	-1.096769e-08	-5.695286e+01	-7.180576e+02
6.000000e-08	-7.630855e-06	-1.088948e-08	-5.694922e+01	-7.177056e+02
7.000000e-08	-7.630315e-06	-1.078872e-08	-5.694520e+01	-7.173454e+02
8.000000e-08	-7.629649e-06	-1.076742e-08	-5.694022e+01	-7.169830e+02
9.000000e-08	-7.628728e-06	-1.086587e-08	-5.693335e+01	-7.166244e+02
1.000000e-07	-7.627592e-06	-1.111572e-08	-5.692487e+01	-7.162758e+02
1.100000e-07	-7.626156e-06	-1.125040e-08	-5.691415e+01	-7.159434e+02
1.200000e-07	-7.624336e-06	-1.132269e-08	-5.690057e+01	-7.156330e+02
1.300000e-07	-7.622304e-06	-1.129550e-08	-5.688541e+01	-7.153500e+02
1.400000e-07	-7.619814e-06	-1.116182e-08	-5.686682e+01	-7.150990e+02
1.500000e-07	-7.616985e-06	-1.097087e-08	-5.684571e+01	-7.148837e+02
1.600000e-07	-7.614096e-06	-1.080001e-08	-5.682415e+01	-7.147066e+02
1.700000e-07	-7.610830e-06	-1.077329e-08	-5.679977e+01	-7.145692e+02
1.800000e-07	-7.607196e-06	-1.070451e-08	-5.677266e+01	-7.144714e+02
1.900000e-07	-7.603397e-06	-1.080051e-08	-5.674431e+01	-7.144120e+02
2.000000e-07	-7.599380e-06	-1.088185e-08	-5.671433e+01	-7.143886e+02
2.100000e-07	-7.595133e-06	-1.093841e-08	-5.668263e+01	-7.143973e+02
2.200000e-07	-7.590779e-06	-1.099282e-08	-5.665013e+01	-7.144333e+02
2.300000e-07	-7.586400e-06	-1.098097e-08	-5.661746e+01	-7.144908e+02
2.400000e-07	-7.581949e-06	-1.106607e-08	-5.658424e+01	-7.145635e+02
2.500000e-07	-7.577371e-06	-1.105818e-08	-5.655007e+01	-7.146443e+02
2.600000e-07	-7.572714e-06	-1.101828e-08	-5.651532e+01	-7.147262e+02
2.700000e-07	-7.567935e-06	-1.099879e-08	-5.647965e+01	-7.148021e+02
2.800000e-07	-7.562952e-06	-1.103242e-08	-5.644246e+01	-7.148652e+02
2.900000e-07	-7.557685e-06	-1.099997e-08	-5.640316e+01	-7.149092e+02
3.000000e-07	-7.552183e-06	-1.089762e-08	-5.636209e+01	-7.149287e+02
3.100000e-07	-7.546484e-06	-1.092307e-08	-5.631956e+01	-7.149192e+02
3.200000e-07	-7.540557e-06	-1.089721e-08	-5.627533e+01	-7.148770e+02
3.300000e-07	-7.534432e-06	-1.097170e-08	-5.622962e+01	-7.147999e+02
3.400000e-07	-7.528128e-06	-1.102851e-08	-5.618257e+01	-7.146867e+02
3.500000e-07	-7.521636e-06	-1.097953e-08	-5.613412e+01	-7.145374e+02
3.600000e-07	-7.515027e-06	-1.093651e-08	-5.608480e+01	-7.143529e+02
3.700000e-07	-7.508221e-06	-1.091044e-08	-5.603401e+01	-7.141354e+02
3.800000e-07	-7.501152e-06	-1.094164e-08	-5.598125e+01	-7.138875e+02
3.900000e-07	-7.493890e-06	-1.090298e-08	-5.592705e+01	-7.136129e+02
4.000000e-07	-7.486507e-06	-1.089970e-08	-5.587195e+01	-7.133152e+02
4.100000e-07	-7.478824e-06	-1.090408e-08	-5.581461e+01	-7.129985e+02
4.200000e-07	-7.470892e-06	-1.092785e-08	-5.575542e+01	-7.126669e+02
4.300000e-07	-7.462897e-06	-1.097008e-08	-5.569575e+01	-7.123240e+02
4.400000e-07	-7.454713e-06	-1.092180e-08	-5.563467e+01	-7.119734e+02
4.500000e-07	-7.446474e-06	-1.088750e-08	-5.557318e+01	-7.116177e+02
4.600000e-07	-7.438154e-06	-1.086275e-08	-5.551110e+01	-7.112590e+02
4.700000e-07	-7.429718e-06	-1.089010e-08	-5.544813e+01	-7.108988e+02
4.800000e-07	-7.421145e-06	-1.087784e-08	-5.538415e+01	-7.105377e+02
4.900000e-07	-7.412467e-06	-1.083895e-08	-5.531939e+01	-7.101753e+02
5.000000e-07	-7.403668e-06	-1.084787e-08	-5.525372e+01	-7.098108e+02
5.100000e-07	-7.394624e-06	-1.084833e-08	-5.518623e+01	-7.094426e+02
5.200000e-07	-7.385230e-06	-1.088263e-08	-5.511612e+01	-7.090688e+02
5.300000e-07	-7.375333e-06	-1.085426e-08	-5.504226e+01	-7.086870e+02
5.400000e-07	-7.365226e-06	-1.082369e-08	-5.496683e+01	-7.082946e+02
5.500000e-07	-7.354760e-06	-1.082319e-08	-5.488872e+01	-7.078892e+02
5.600000e-07	-7.343770e-06	-1.082539e-08	-5.480670e+01	-7.074684e+02
5.700000e-07	-7.332615e-06	-1.082639e-08	-5.472345e+01	-7.070302e+02
5.800000e-07	-7.321227e-06	-1.079095e-08	-5.463846e+01	-7.065732e+02
5.900000e-07	-7.309572e-06	-1.079016e-08	-5.455148e+01	-7.060964e+02
6.000000e-07	-7.297746e-06	-1.079098e-08	-5.446322e+01	-7.055995e+02
6.100000e-07	-7.285632e-06	-1.080809e-08	-5.437282e+01	-7.050830e+02
6.200000e-07	-7.273398e-06	-1.078917e-08	-5.428151e+01	-7.045480e+02
6.300000e-07	-7.261040e-06	-1.075064e-08	-5.418929e+01	-7.039963e+02
6.400000e-07	-7.248500e-06	-1.075862e-08	-5.409570e+01	-7.034303e+02
6.500000e-07	-7.235832e-06	-1.074972e-08	-5.400116e+01	-7.028528e+02
6.600000e-07	-7.222958e-06	-1.074614e-08	-5.390508e+01	-7.022671e+02
6.700000e-07	-7.209889e-06	-1.071497e-08	-5.380755e+01	-7.016765e+02
6.800000e-07	-7.196585e-06	-1.070013e-08	-5.370826e+01	-7.010847e+02
6.900000e-07	-7.182948e-06	-1.071133e-08	-5.360649e+01	-7.004949e+02
7.000000e-07	-7.169120e-06	-1.071118e-08	-5.350329e+01	-6.999104e+02
7.100000e-07	-7.155164e-06	-1.070274e-08	-5.339914e+01	-6.993339e+02
7.200000e-07	-7.141014e-06	-1.067827e-08	-5.329353e+01	-6.987679e+02
7.300000e-07	-7.126679e-06	-1.068912e-08	-5.318655e+01	-6.982140e+02
7.400000e-07	-7.112120e-06	-1.068355e-08	-5.307789e+01	-6.976734e+02
7.500000e-07	-7.097350e-06	-1.066680e-08	-5.296767e+01	-6.971467e+02
7.600000e-07	-7.082455e-06	-1.064928e-08	-5.285651e+01	-6.966338e+02
7.700000e-07	-7.067341e-06	-1.063425e-08	-5.274371e+01	-6.961341e+02
7.800000e-07	-7.051877e-06	-1.064448e-08	-5.262830e+01	-6.956465e+02
7.900000e-07	-7.036185e-06	-1.063290e-08	-5.251119e+01	-6.951695e+02
8.000000e-07	-7.020188e-06	-1.062407e-08	-5.239180e+01	-6.947013e+02
8.100000e-07	-7.003991e-06	-1.060587e-08	-5.227093e+01	-6.942399e+02
8.200000e-07	-6.987498e-06	-1.060367e-08	-5.214784e+01	-6.937833e+02
8.300000e-07	-6.970659e-06	-1.060932e-08	-5.202216e+01	-6.933294e+02
8.400000e-07	-6.953747e-06	-1.059690e-08	-5.189596e+01	-6.928765e+02
8.500000e-07	-6.936647e-06	-1.059197e-08	-5.176833e+01	-6.924229e+02
8.600000e-07	-6.919407e-06	-1.057721e-08	-5.163967e+01	-6.919672e+02
8.700000e-07	-6.901977e-06	-1.058060e-08	-5.150960e+01	-6.915086e+02
8.800000e-07	-6.884317e-06	-1.057467e-08	-5.137780e+01	-6.910462e+02
8.900000e-07	-6.866580e-06	-1.056219e-08	-5.124543e+01	-6.905796e+02
9.000000e-07	-6.848729e-06	-1.055619e-08	-5.111220e+01	-6.901089e+02
9.100000e-07	-6.830681e-06	-1.054609e-08	-5.097751e+01	-6.896340e+02
9.200000e-07	-6.812522e-06	-1.054576e-08	-5.084199e+01	-6.891552e+02
9.300000e-07	-6.794246e-06	-1.052978e-08	-5.070560e+01	-6.886726e+02
9.400000e-07	-6.775760e-06	-1.051910e-08	-5.056763e+01	-6.881865e+02
9.500000e-07	-6.757159e-06	-1.050762e-08	-5.042881e+01	-6.876968e+02
9.600000e-07	-6.738388e-06	-1.050183e-08	-5.028872e+01	-6.872033e+02
9.700000e-07	-6.719352e-06	-1.049882e-08	-5.014666e+01	-6.867055e+02
9.800000e-07	-6.700061e-06	-1.048154e-08	-5.000269e+01	-6.862024e+02
9.900000e-07	-6.680581e-06	-1.047179e-08	-4.985731e+01	-6.856928e+02
1.000000e-06	-6.660970e-06	-1.045561e-08	-4.971096e+01	-6.851751e+02
1.010000e-06	-6.641117e-06	-1.045026e-08	-4.956279e+01	-6.846471e+02
1.020000e-06	-6.621050e-06	-1.044573e-08	-4.941303e+01	-6.841065e+02
1.030000e-06	-6.600865e-06	-1.043793e-08	-4.926239e+01	-6.835507e+02
1.040000e-06	-6.580592e-06	-1.043254e-08	-4.911109e+01	-6.829770e+02
1.050000e-06	-6.560294e-06	-1.041898e-08	-4.895961e+01	-6.823826e+02
1.060000e-06	-6.539917e-06	-1.041017e-08	-4.880753e+01	-6.817646e+02
1.070000e-06	-6.519423e-06	-1.039241e-08	-4.865458e+01	-6.811206e+02
1.080000e-06	-6.498806e-06	-1.037949e-08	-4.850072e+01	-6.804483e+02
1.090000e-06	-6.478162e-06	-1.036681e-08	-4.834666e+01	-6.797457e+02
1.100000e-06	-6.457474e-06	-1.035125e-08	-4.819226e+01	-6.790114e+02
1.110000e-06	-6.436643e-06	-1.033993e-08	-4.803680e+01	-6.782444e+02
1.120000e-06	-6.415562e-06	-1.032396e-08	-4.787947e+01	-6.774446e+02
1.130000e-06	-6.394223e-06	-1.031565e-08	-4.772022e+01	-6.766121e+02
1.140000e-06	-6.372777e-06	-1.030111e-08	-4.756016e+01	-6.757478e+02
1.150000e-06	-6.351130e-06	-1.028741e-08	-4.739861e+01	-6.748530e+02
1.160000e-06	-6.329307e-06	-1.027282e-08	-4.723574e+01	-6.739295e+02
1.170000e-06	-6.307413e-06	-1.025707e-08	-4.707235e+01	-6.729796e+02
1.180000e-06	-6.285306e-06	-1.024477e-08	-4.690736e+01	-6.720058e+02
1.190000e-06	-6.262953e-06	-1.022505e-08	-4.674055e+01	-6.710107e+02
1.200000e-06	-6.240522e-06	-1.021036e-08	-4.657314e+01	-6.699971e+02
1.210000e-06	-6.217963e-06	-1.019113e-08	-4.640478e+01	-6.689677e+02
1.220000e-06	-6.195258e-06	-1.017561e-08	-4.623534e+01	-6.679249e+02
1.230000e-06	-6.172463e-06	-1.016333e-08	-4.606521e+01	-6.668711e+02
1.240000e-06	-6.149392e-06	-1.014531e-08	-4.589304e+01	-6.658083e+02
1.250000e-06	-6.126166e-06	-1.012896e-08	-4.571970e+01	-6.647379e+02
1.260000e-06	-6.102777e-06	-1.010655e-08	-4.554515e+01	-6.636613e+02
1.270000e-06	-6.079225e-06	-1.008511e-08	-4.536937e+01	-6.625790e+02
1.280000e-06	-6.055507e-06	-1.006296e-08	-4.519237e+01	-6.614916e+02
1.290000e-06	-6.031588e-06	-1.004384e-08	-4.501386e+01	-6.603991e+02
1.300000e-06	-6.007633e-06	-1.002984e-08	-4.483508e+01	-6.593012e+02
1.310000e-06	-5.983580e-06	-1.002005e-08	-4.465558e+01	-6.581974e+02
1.320000e-06	-5.959353e-06	-1.001527e-08	-4.447477e+01	-6.570871e+02
1.330000e-06	-5.935079e-06	-1.000310e-08	-4.429361e+01	-6.559698e+02
1.340000e-06	-5.910755e-06	-9.987715e-09	-4.411208e+01	-6.548448e+02
1.350000e-06	-5.886237e-06	-9.964807e-09	-4.392911e+01	-6.537118e+02
1.360000e-06	-5.861570e-06	-9.937331e-09	-4.374501e+01	-6.525705e+02
1.370000e-06	-5.836803e-06	-9.914076e-09	-4.356018e+01	-6.514209e+02
1.380000e-06	-5.811879e-06	-9.894792e-09	-4.337417e+01	-6.502633e+02
1.390000e-06	-5.786772e-06	-9.883317e-09	-4.318680e+01	-6.490984e+02
1.400000e-06	-5.761585e-06	-9.872066e-09	-4.299883e+01	-6.479271e+02
1.410000e-06	-5.736113e-06	-9.858947e-09	-4.280873e+01	-6.467505e+02
1.420000e-06	-5.710246e-06	-9.841199e-09	-4.261568e+01	-6.455701e+02
1.430000e-06	-5.684150e-06	-9.818362e-09	-4.242093e+01	-6.443874e+02
1.440000e-06	-5.657910e-06	-9.791036e-09	-4.222509e+01	-6.432038e+02
1.450000e-06	-5.631502e-06	-9.764175e-09	-4.202801e+01	-6.420211e+02
1.460000e-06	-5.604871e-06	-9.750658e-09	-4.182927e+01	-6.408406e+02
1.470000e-06	-5.578062e-06	-9.743312e-09	-4.162919e+01	-6.396633e+02
1.480000e-06	-5.550949e-06	-9.736447e-09	-4.142685e+01	-6.384903e+02
1.490000e-06	-5.523576e-06	-9.724469e-09	-4.122256e+01	-6.373221e+02
1.500000e-06	-5.496003e-06	-9.705216e-09	-4.101678e+01	-6.361585e+02
1.510000e-06	-5.468097e-06	-9.684172e-09	-4.080852e+01	-6.349992e+02
1.520000e-06	-5.440087e-06	-9.662089e-09	-4.059948e+01	-6.338433e+02
1.530000e-06	-5.412158e-06	-9.640746e-09	-4.039105e+01	-6.326893e+02
1.540000e-06	-5.384125e-06	-9.619823e-09	-4.018183e+01	-6.315354e+02
1.550000e-06	-5.355955e-06	-9.606230e-09	-3.997160e+01	-6.303792e+02
1.560000e-06	-5.327681e-06	-9.595132e-09	-3.976059e+01	-6.292182e+02
1.570000e-06	-5.299274e-06	-9.581336e-09	-3.954859e+01	-6.280494e+02
1.580000e-06	-5.270801e-06	-9.563768e-09	-3.933609e+01	-6.268700e+02
1.590000e-06	-5.242227e-06	-9.541172e-09	-3.912285e+01	-6.256767e+02
1.600000e-06	-5.213573e-06	-9.522145e-09	-3.890900e+01	-6.244666e+02
1.610000e-06	-5.184869e-06	-9.502853e-09	-3.869478e+01	-6.232368e+02
1.620000e-06	-5.156056e-06	-9.482269e-09	-3.847975e+01	-6.219846e+02
1.630000e-06	-5.127106e-06	-9.461890e-09	-3.826369e+01	-6.207077e+02
1.640000e-06	-5.098029e-06	-9.444688e-09	-3.804669e+01	-6.194043e+02
1.650000e-06	-5.068854e-06	-9.427923e-09	-3.782896e+01	-6.180726e+02
1.660000e-06	-5.039566e-06	-9.405490e-09	-3.761038e+01	-6.167116e+02
1.670000e-06	-5.010090e-06	-9.382399e-09	-3.739040e+01	-6.153206e+02
1.680000e-06	-4.980488e-06	-9.358998e-09	-3.716948e+01	-6.138993e+02
1.690000e-06	-4.950838e-06	-9.335774e-09	-3.694820e+01	-6.124479e+02
1.700000e-06	-4.921032e-06	-9.311886e-09	-3.672576e+01	-6.109668e+02
1.710000e-06	-4.891079e-06	-9.286903e-09	-3.650222e+01	-6.094566e+02
1.720000e-06	-4.860956e-06	-9.262177e-09	-3.627742e+01	-6.079183e+02
1.730000e-06	-4.830732e-06	-9.237804e-09	-3.605185e+01	-6.063528e+02
1.740000e-06	-4.800450e-06	-9.212505e-09	-3.582586e+01	-6.047612e+02
1.750000e-06	-4.770067e-06	-9.182312e-09	-3.559911e+01	-6.031446e+02
1.760000e-06	-4.739595e-06	-9.152633e-09	-3.537169e+01	-6.015040e+02
1.770000e-06	-4.708859e-06	-9.126633e-09	-3.514231e+01	-5.998401e+02
1.780000e-06	-4.678057e-06	-9.104225e-09	-3.491243e+01	-5.981536e+02
1.790000e-06	-4.647215e-06	-9.081181e-09	-3.468226e+01	-5.964452e+02
1.800000e-06	-4.616282e-06	-9.056244e-09	-3.445141e+01	-5.947151e+02
1.810000e-06	-4.585258e-06	-9.030243e-09	-3.421988e+01	-5.929634e+02
1.820000e-06	-4.554099e-06	-8.997017e-09	-3.398733e+01	-5.911903e+02
1.830000e-06	-4.522851e-06	-8.961759e-09	-3.375413e+01	-5.893957e+02
1.840000e-06	-4.491472e-06	-8.929806e-09	-3.351995e+01	-5.875794e+02
1.850000e-06	-4.460051e-06	-8.902847e-09	-3.328545e+01	-5.857412e+02
1.860000e-06	-4.428479e-06	-8.878257e-09	-3.304983e+01	-5.838811e+02
1.870000e-06	-4.396711e-06	-8.853280e-09	-3.281274e+01	-5.819991e+02
1.880000e-06	-4.364934e-06	-8.829787e-09	-3.257559e+01	-5.800951e+02
1.890000e-06	-4.333071e-06	-8.803095e-09	-3.233780e+01	-5.781694e+02
1.900000e-06	-4.301166e-06	-8.771661e-09	-3.209969e+01	-5.762225e+02
1.910000e-06	-4.269099e-06	-8.736372e-09	-3.186037e+01	-5.742551e+02
1.920000e-06	-4.236814e-06	-8.702077e-09	-3.161943e+01	-5.722678e+02
1.930000e-06	-4.204631e-06	-8.670670e-09	-3.137924e+01	-5.702619e+02
1.940000e-06	-4.172383e-06	-8.637263e-09	-3.113858e+01	-5.682385e+02
1.950000e-06	-4.140001e-06	-8.605533e-09	-3.089691e+01	-5.661989e+02
1.960000e-06	-4.107530e-06	-8.579304e-09	-3.065458e+01	-5.641447e+02
1.970000e-06	-4.074912e-06	-8.556310e-09	-3.041115e+01	-5.620774e+02
1.980000e-06	-4.042275e-06	-8.526383e-09	-3.016758e+01	-5.599985e+02
1.990000e-06	-4.009544e-06	-8.487971e-09	-2.992331e+01	-5.579095e+02
2.000000e-06	-3.976719e-06	-8.448267e-09	-2.967834e+01	-5.558120e+02
2.010000e-06	-3.943873e-06	-8.410601e-09	-2.943320e+01	-5.537072e+02
2.020000e-06	-3.910839e-06	-8.377190e-09	-2.918667e+01	-5.515962e+02
2.030000e-06	-3.877624e-06	-8.342864e-09	-2.893878e+01	-5.494801e+02
2.040000e-06	-3.844252e-06	-8.310928e-09	-2.868973e+01	-5.473595e+02
2.050000e-06	-3.810797e-06	-8.280707e-09	-2.844006e+01	-5.452351e+02
2.060000e-06	-3.777261e-06	-8.248976e-09	-2.818978e+01	-5.431069e+02
2.070000e-06	-3.743589e-06	-8.213370e-09	-2.793848e+01	-5.409752e+02
2.080000e-06	-3.709965e-06	-8.176651e-09	-2.768754e+01	-5.388397e+02
2.090000e-06	-3.676102e-06	-8.146926e-09	-2.743483e+01	-5.367000e+02
2.100000e-06	-3.641945e-06	-8.118782e-09	-2.717991e+01	-5.345555e+02
2.110000e-06	-3.607715e-06	-8.087584e-09	-2.692445e+01	-5.324056e+02
2.120000e-06	-3.573363e-06	-8.053501e-09	-2.666808e+01	-5.302494e+02
2.130000e-06	-3.538899e-06	-8.021482e-09	-2.641087e+01	-5.280859e+02
2.140000e-06	-3.504251e-06	-7.989102e-09	-2.615230e+01	-5.259140e+02
2.150000e-06	-3.469458e-06	-7.954646e-09	-2.589264e+01	-5.237327e+02
2.160000e-06	-3.434555e-06	-7.921584e-09	-2.563215e+01	-5.215406e+02
2.170000e-06	-3.399598e-06	-7.888006e-09	-2.537127e+01	-5.193365e+02
2.180000e-06	-3.364525e-06	-7.858519e-09	-2.510952e+01	-5.171192e+02
2.190000e-06	-3.329104e-06	-7.828358e-09	-2.484517e+01	-5.148873e+02
2.200000e-06	-3.293585e-06	-7.793872e-09	-2.458009e+01	-5.126394e+02
2.210000e-06	-3.258141e-06	-7.759557e-09	-2.431557e+01	-5.103739e+02
2.220000e-06	-3.222675e-06	-7.724653e-09	-2.405089e+01	-5.080895e+02
2.230000e-06	-3.187142e-06	-7.690700e-09	-2.378570e+01	-5.057844e+02
2.240000e-06	-3.151503e-06	-7.655203e-09	-2.351973e+01	-5.034572e+02
2.250000e-06	-3.115717e-06	-7.618986e-09	-2.325266e+01	-5.011059e+02
2.260000e-06	-3.079720e-06	-7.584186e-09	-2.298401e+01	-4.987289e+02
2.270000e-06	-3.043654e-06	-7.550522e-09	-2.271485e+01	-4.963244e+02
2.280000e-06	-3.007520e-06	-7.515505e-09	-2.244518e+01	-4.938904e+02
2.290000e-06	-2.971369e-06	-7.477695e-09	-2.217539e+01	-4.914253e+02
2.300000e-06	-2.935209e-06	-7.440412e-09	-2.190552e+01	-4.889270e+02
2.310000e-06	-2.898949e-06	-7.401501e-09	-2.163492e+01	-4.863939e+02
2.320000e-06	-2.862623e-06	-7.359850e-09	-2.136382e+01	-4.838242e+02
2.330000e-06	-2.826247e-06	-7.315046e-09	-2.109234e+01	-4.812164e+02
2.340000e-06	-2.789810e-06	-7.268448e-09	-2.082041e+01	-4.785690e+02
2.350000e-06	-2.753297e-06	-7.223089e-09	-2.054791e+01	-4.758807e+02
2.360000e-06	-2.716751e-06	-7.179038e-09	-2.027517e+01	-4.731506e+02
2.370000e-06	-2.680244e-06	-7.137369e-09	-2.000271e+01	-4.703776e+02
2.380000e-06	-2.643711e-06	-7.095527e-09	-1.973007e+01	-4.675612e+02
2.390000e-06	-2.607068e-06	-7.053062e-09	-1.945660e+01	-4.647010e+02
2.400000e-06	-2.570342e-06	-7.009014e-09	-1.918251e+01	-4.617967e+02
2.410000e-06	-2.533525e-06	-6.963674e-09	-1.890775e+01	-4.588483e+02
2.420000e-06	-2.496723e-06	-6.918461e-09	-1.863309e+01	-4.558561e+02
2.430000e-06	-2.459856e-06	-6.867876e-09	-1.835796e+01	-4.528203e+02
2.440000e-06	-2.422933e-06	-6.813780e-09	-1.808240e+01	-4.497414e+02
2.450000e-06	-2.386065e-06	-6.761622e-09	-1.780725e+01	-4.466199e+02
2.460000e-06	-2.349095e-06	-6.711373e-09	-1.753135e+01	-4.434564e+02
2.470000e-06	-2.312073e-06	-6.660215e-09	-1.725505e+01	-4.402515e+02
2.480000e-06	-2.274969e-06	-6.608093e-09	-1.697814e+01	-4.370057e+02
2.490000e-06	-2.237784e-06	-6.557401e-09	-1.670062e+01	-4.337197e+02
2.500000e-06	-2.200559e-06	-6.506458e-09	-1.642282e+01	-4.303937e+02
2.510000e-06	-2.163275e-06	-6.453657e-09	-1.614457e+01	-4.270284e+02
2.520000e-06	-2.126030e-06	-6.395590e-09	-1.586660e+01	-4.236239e+02
2.530000e-06	-2.088700e-06	-6.335022e-09	-1.558801e+01	-4.201806e+02
2.540000e-06	-2.051194e-06	-6.277835e-09	-1.530810e+01	-4.166987e+02
2.550000e-06	-2.013710e-06	-6.223455e-09	-1.502836e+01	-4.131783e+02
2.560000e-06	-1.976337e-06	-6.166790e-09	-1.474945e+01	-4.096197e+02
2.570000e-06	-1.938838e-06	-6.112337e-09	-1.446959e+01	-4.060231e+02
2.580000e-06	-1.901116e-06	-6.056992e-09	-1.418807e+01	-4.023887e+02
2.590000e-06	-1.863407e-06	-6.002060e-09	-1.390665e+01	-3.987170e+02
2.600000e-06	-1.825787e-06	-5.944149e-09	-1.362588e+01	-3.950084e+02
2.610000e-06	-1.788124e-06	-5.883525e-09	-1.334480e+01	-3.912636e+02
2.620000e-06	-1.750265e-06	-5.832440e-09	-1.306226e+01	-3.874834e+02
2.630000e-06	-1.712298e-06	-5.774132e-09	-1.277891e+01	-3.836687e+02
2.640000e-06	-1.674372e-06	-5.710832e-09	-1.249587e+01	-3.798205e+02
2.650000e-06	-1.636438e-06	-5.643482e-09	-1.221277e+01	-3.759402e+02
2.660000e-06	-1.598505e-06	-5.573375e-09	-1.192967e+01	-3.720289e+02
2.670000e-06	-1.560407e-06	-5.507114e-09	-1.164535e+01	-3.680879e+02
2.680000e-06	-1.522259e-06	-5.440097e-09	-1.136065e+01	-3.641187e+02
2.690000e-06	-1.484121e-06	-5.384316e-09	-1.107602e+01	-3.601224e+02
2.700000e-06	-1.445906e-06	-5.330559e-09	-1.079083e+01	-3.561001e+02
2.710000e-06	-1.407760e-06	-5.274642e-09	-1.050614e+01	-3.520527e+02
2.720000e-06	-1.369632e-06	-5.213732e-09	-1.022159e+01	-3.479809e+02
2.730000e-06	-1.331461e-06	-5.144140e-09	-9.936722e+00	-3.438849e+02
2.740000e-06	-1.293266e-06	-5.073118e-09	-9.651670e+00	-3.397648e+02
2.750000e-06	-1.254956e-06	-4.999825e-09	-9.365761e+00	-3.356200e+02
2.760000e-06	-1.216515e-06	-4.932042e-09	-9.078880e+00	-3.314497e+02
2.770000e-06	-1.178084e-06	-4.867295e-09	-8.792065e+00	-3.272525e+02
2.780000e-06	-1.139555e-06	-4.804224e-09	-8.504518e+00	-3.230267e+02
2.790000e-06	-1.101051e-06	-4.740838e-09	-8.217162e+00	-3.187700e+02
2.800000e-06	-1.062640e-06	-4.675556e-09	-7.930501e+00	-3.144799e+02
2.810000e-06	-1.024169e-06	-4.608734e-09	-7.643396e+00	-3.101535e+02
2.820000e-06	-9.855921e-07	-4.540536e-09	-7.355494e+00	-3.057877e+02
2.830000e-06	-9.469772e-07	-4.474118e-09	-7.067310e+00	-3.013791e+02
2.840000e-06	-9.084672e-07	-4.404569e-09	-6.779909e+00	-2.969244e+02
2.850000e-06	-8.699218e-07	-4.335179e-09	-6.492244e+00	-2.924200e+02
