# Temperatura_=_20.0
# Concentracion g/m^3_=_10000.0
# C_Vs_to_Am_M_A/Vsm_=_65563218390.804596
# pendiente_HvsI_1/m_=_3716.3
# ordenada_HvsI_A/m_=_1297.0
# frecuencia_Hz_=_269601.7417432927
# Promedio de 29 ciclos

Tiempo_(s)	Campo_(V.s)	Magnetizacion_(V.s)	Campo_(kA/m)	Magnetizacion_(A/m)
0.000000e+00	-8.184290e-09	-1.148023e-08	-5.700026e+01	-7.505300e+02
1.000000e-08	-8.181231e-09	-1.148155e-08	-5.697895e+01	-7.505060e+02
2.000000e-08	-8.175957e-09	-1.147965e-08	-5.694222e+01	-7.504142e+02
3.000000e-08	-8.168640e-09	-1.147605e-08	-5.689125e+01	-7.501854e+02
4.000000e-08	-8.159084e-09	-1.147152e-08	-5.682470e+01	-7.498039e+02
5.000000e-08	-8.147069e-09	-1.146553e-08	-5.674101e+01	-7.493188e+02
6.000000e-08	-8.132568e-09	-1.145723e-08	-5.664002e+01	-7.488116e+02
7.000000e-08	-8.115640e-09	-1.144379e-08	-5.652211e+01	-7.483380e+02
8.000000e-08	-8.096443e-09	-1.144600e-08	-5.638842e+01	-7.478833e+02
9.000000e-08	-8.074835e-09	-1.146589e-08	-5.623792e+01	-7.473613e+02
1.000000e-07	-8.050566e-09	-1.144905e-08	-5.606889e+01	-7.466651e+02
1.100000e-07	-8.023687e-09	-1.142264e-08	-5.588169e+01	-7.457416e+02
1.200000e-07	-7.994623e-09	-1.141911e-08	-5.567926e+01	-7.446450e+02
1.300000e-07	-7.963876e-09	-1.137598e-08	-5.546512e+01	-7.435319e+02
1.400000e-07	-7.931453e-09	-1.135023e-08	-5.523930e+01	-7.425937e+02
1.500000e-07	-7.896941e-09	-1.139215e-08	-5.499894e+01	-7.419576e+02
1.600000e-07	-7.860443e-09	-1.132456e-08	-5.474474e+01	-7.416108e+02
1.700000e-07	-7.821985e-09	-1.131150e-08	-5.447690e+01	-7.413899e+02
1.800000e-07	-7.781181e-09	-1.135375e-08	-5.419271e+01	-7.410470e+02
1.900000e-07	-7.738174e-09	-1.128512e-08	-5.389318e+01	-7.403576e+02
2.000000e-07	-7.693076e-09	-1.128382e-08	-5.357909e+01	-7.392173e+02
2.100000e-07	-7.645801e-09	-1.125814e-08	-5.324983e+01	-7.376751e+02
2.200000e-07	-7.596120e-09	-1.120916e-08	-5.290383e+01	-7.358914e+02
2.300000e-07	-7.543787e-09	-1.120545e-08	-5.253934e+01	-7.340463e+02
2.400000e-07	-7.489086e-09	-1.117617e-08	-5.215837e+01	-7.322488e+02
2.500000e-07	-7.432239e-09	-1.114718e-08	-5.176245e+01	-7.304965e+02
2.600000e-07	-7.373175e-09	-1.111394e-08	-5.135109e+01	-7.286991e+02
2.700000e-07	-7.311976e-09	-1.108809e-08	-5.092486e+01	-7.267474e+02
2.800000e-07	-7.248704e-09	-1.105645e-08	-5.048419e+01	-7.245817e+02
2.900000e-07	-7.183293e-09	-1.101291e-08	-5.002863e+01	-7.222218e+02
3.000000e-07	-7.115670e-09	-1.098063e-08	-4.955767e+01	-7.197445e+02
3.100000e-07	-7.045880e-09	-1.092513e-08	-4.907160e+01	-7.172286e+02
3.200000e-07	-6.974010e-09	-1.090009e-08	-4.857105e+01	-7.147034e+02
3.300000e-07	-6.900020e-09	-1.086369e-08	-4.805574e+01	-7.121336e+02
3.400000e-07	-6.823767e-09	-1.080840e-08	-4.752467e+01	-7.094455e+02
3.500000e-07	-6.745205e-09	-1.077362e-08	-4.697752e+01	-7.065754e+02
3.600000e-07	-6.664455e-09	-1.072255e-08	-4.641512e+01	-7.035082e+02
3.700000e-07	-6.581728e-09	-1.067909e-08	-4.583896e+01	-7.002810e+02
3.800000e-07	-6.497218e-09	-1.062617e-08	-4.525037e+01	-6.969529e+02
3.900000e-07	-6.410999e-09	-1.057039e-08	-4.464989e+01	-6.935611e+02
4.000000e-07	-6.323061e-09	-1.051341e-08	-4.403743e+01	-6.900933e+02
4.100000e-07	-6.233348e-09	-1.046037e-08	-4.341261e+01	-6.864933e+02
4.200000e-07	-6.141799e-09	-1.040823e-08	-4.277501e+01	-6.826958e+02
4.300000e-07	-6.048481e-09	-1.033939e-08	-4.212509e+01	-6.786674e+02
4.400000e-07	-5.953487e-09	-1.027525e-08	-4.146349e+01	-6.744272e+02
4.500000e-07	-5.856824e-09	-1.020686e-08	-4.079027e+01	-6.700341e+02
4.600000e-07	-5.758519e-09	-1.014078e-08	-4.010561e+01	-6.655492e+02
4.700000e-07	-5.658589e-09	-1.007074e-08	-3.940964e+01	-6.609969e+02
4.800000e-07	-5.557122e-09	-9.996331e-09	-3.870296e+01	-6.563484e+02
4.900000e-07	-5.454151e-09	-9.921800e-09	-3.798581e+01	-6.515368e+02
5.000000e-07	-5.349647e-09	-9.844519e-09	-3.725797e+01	-6.464939e+02
5.100000e-07	-5.243696e-09	-9.761634e-09	-3.652007e+01	-6.411865e+02
5.200000e-07	-5.136298e-09	-9.670483e-09	-3.577208e+01	-6.356294e+02
5.300000e-07	-5.027490e-09	-9.584593e-09	-3.501428e+01	-6.298717e+02
5.400000e-07	-4.917357e-09	-9.498199e-09	-3.424724e+01	-6.239630e+02
5.500000e-07	-4.805864e-09	-9.407513e-09	-3.347073e+01	-6.179242e+02
5.600000e-07	-4.692981e-09	-9.308107e-09	-3.268455e+01	-6.117350e+02
5.700000e-07	-4.578699e-09	-9.205244e-09	-3.188862e+01	-6.053469e+02
5.800000e-07	-4.462980e-09	-9.103830e-09	-3.108268e+01	-5.987078e+02
5.900000e-07	-4.345864e-09	-9.000906e-09	-3.026702e+01	-5.917849e+02
6.000000e-07	-4.227453e-09	-8.890188e-09	-2.944233e+01	-5.845725e+02
6.100000e-07	-4.107783e-09	-8.772204e-09	-2.860888e+01	-5.770837e+02
6.200000e-07	-3.986894e-09	-8.655410e-09	-2.776693e+01	-5.693340e+02
6.300000e-07	-3.864843e-09	-8.535506e-09	-2.691689e+01	-5.613297e+02
6.400000e-07	-3.741593e-09	-8.408424e-09	-2.605851e+01	-5.530652e+02
6.500000e-07	-3.617128e-09	-8.272296e-09	-2.519165e+01	-5.445281e+02
6.600000e-07	-3.491616e-09	-8.134668e-09	-2.431751e+01	-5.357053e+02
6.700000e-07	-3.365155e-09	-7.999055e-09	-2.343675e+01	-5.265835e+02
6.800000e-07	-3.237691e-09	-7.859019e-09	-2.254902e+01	-5.171445e+02
6.900000e-07	-3.109213e-09	-7.708646e-09	-2.165422e+01	-5.073614e+02
7.000000e-07	-2.979773e-09	-7.550390e-09	-2.075272e+01	-4.972016e+02
7.100000e-07	-2.849449e-09	-7.387895e-09	-1.984507e+01	-4.866380e+02
7.200000e-07	-2.718242e-09	-7.219519e-09	-1.893126e+01	-4.756623e+02
7.300000e-07	-2.586134e-09	-7.044239e-09	-1.801118e+01	-4.642899e+02
7.400000e-07	-2.453248e-09	-6.863416e-09	-1.708568e+01	-4.525514e+02
7.500000e-07	-2.319729e-09	-6.680666e-09	-1.615577e+01	-4.404717e+02
7.600000e-07	-2.185606e-09	-6.492589e-09	-1.522166e+01	-4.280495e+02
7.700000e-07	-2.050873e-09	-6.296334e-09	-1.428329e+01	-4.152481e+02
7.800000e-07	-1.915556e-09	-6.092230e-09	-1.334087e+01	-4.020065e+02
7.900000e-07	-1.779717e-09	-5.882914e-09	-1.239480e+01	-3.882631e+02
8.000000e-07	-1.643418e-09	-5.667065e-09	-1.144553e+01	-3.739806e+02
8.100000e-07	-1.506672e-09	-5.441956e-09	-1.049316e+01	-3.591558e+02
8.200000e-07	-1.369523e-09	-5.207583e-09	-9.537966e+00	-3.438083e+02
8.300000e-07	-1.232040e-09	-4.964498e-09	-8.580458e+00	-3.279548e+02
8.400000e-07	-1.094275e-09	-4.714270e-09	-7.620983e+00	-3.115838e+02
8.500000e-07	-9.562664e-10	-4.455979e-09	-6.659810e+00	-2.946454e+02
8.600000e-07	-8.180496e-10	-4.187445e-09	-5.697188e+00	-2.770622e+02
8.700000e-07	-6.796618e-10	-3.906833e-09	-4.733377e+00	-2.587526e+02
8.800000e-07	-5.411266e-10	-3.616484e-09	-3.768539e+00	-2.396536e+02
8.900000e-07	-4.024857e-10	-3.315256e-09	-2.802965e+00	-2.197289e+02
9.000000e-07	-2.637692e-10	-2.997774e-09	-1.836865e+00	-1.989602e+02
9.100000e-07	-1.249862e-10	-2.664802e-09	-8.703026e-01	-1.773290e+02
9.200000e-07	1.383086e-11	-2.318105e-09	9.649769e-02	-1.548027e+02
9.300000e-07	1.526444e-10	-1.958603e-09	1.063273e+00	-1.313336e+02
9.400000e-07	2.914251e-10	-1.585392e-09	2.029819e+00	-1.068712e+02
9.500000e-07	4.301392e-10	-1.197236e-09	2.995903e+00	-8.137882e+01
9.600000e-07	5.687422e-10	-7.952639e-10	3.961212e+00	-5.484487e+01
9.700000e-07	7.072029e-10	-3.787356e-10	4.925531e+00	-2.728453e+01
9.800000e-07	8.455055e-10	5.440060e-11	5.888749e+00	1.262582e+00
9.900000e-07	9.836247e-10	5.052297e-10	6.850690e+00	3.072904e+01
1.000000e-06	1.121499e-09	9.709080e-10	7.810929e+00	6.100429e+01
1.010000e-06	1.259080e-09	1.445498e-09	8.769116e+00	9.191181e+01
1.020000e-06	1.396331e-09	1.921730e-09	9.725013e+00	1.231929e+02
1.030000e-06	1.533211e-09	2.395537e-09	1.067833e+01	1.545129e+02
1.040000e-06	1.669691e-09	2.865146e-09	1.162885e+01	1.854966e+02
1.050000e-06	1.805724e-09	3.325931e-09	1.257627e+01	2.157842e+02
1.060000e-06	1.941253e-09	3.770746e-09	1.352016e+01	2.450850e+02
1.070000e-06	2.076212e-09	4.197103e-09	1.446010e+01	2.732079e+02
1.080000e-06	2.210559e-09	4.604941e-09	1.539577e+01	3.000547e+02
1.090000e-06	2.344311e-09	4.992500e-09	1.632731e+01	3.255868e+02
1.100000e-06	2.477470e-09	5.357645e-09	1.725471e+01	3.497835e+02
1.110000e-06	2.609937e-09	5.701669e-09	1.817728e+01	3.726188e+02
1.120000e-06	2.741569e-09	6.026731e-09	1.909405e+01	3.940652e+02
1.130000e-06	2.872318e-09	6.331036e-09	2.000466e+01	4.141193e+02
1.140000e-06	3.002196e-09	6.613742e-09	2.090921e+01	4.328274e+02
1.150000e-06	3.131183e-09	6.877111e-09	2.180755e+01	4.502918e+02
1.160000e-06	3.259206e-09	7.122612e-09	2.269917e+01	4.666485e+02
1.170000e-06	3.386205e-09	7.353463e-09	2.358367e+01	4.820291e+02
1.180000e-06	3.512237e-09	7.572443e-09	2.446143e+01	4.965266e+02
1.190000e-06	3.637359e-09	7.778735e-09	2.533286e+01	5.101852e+02
1.200000e-06	3.761438e-09	7.971172e-09	2.619702e+01	5.230189e+02
1.210000e-06	3.884310e-09	8.151638e-09	2.705278e+01	5.350448e+02
1.220000e-06	4.005976e-09	8.321968e-09	2.790013e+01	5.463107e+02
1.230000e-06	4.126450e-09	8.483139e-09	2.873918e+01	5.568996e+02
1.240000e-06	4.245694e-09	8.636291e-09	2.956966e+01	5.669091e+02
1.250000e-06	4.363697e-09	8.781647e-09	3.039151e+01	5.764199e+02
1.260000e-06	4.480393e-09	8.919462e-09	3.120424e+01	5.854738e+02
1.270000e-06	4.595645e-09	9.049918e-09	3.200692e+01	5.940754e+02
1.280000e-06	4.709431e-09	9.172517e-09	3.279939e+01	6.022129e+02
1.290000e-06	4.821805e-09	9.287998e-09	3.358203e+01	6.098863e+02
1.300000e-06	4.932803e-09	9.397959e-09	3.435508e+01	6.171212e+02
1.310000e-06	5.042524e-09	9.501693e-09	3.511925e+01	6.239631e+02
1.320000e-06	5.150989e-09	9.599983e-09	3.587466e+01	6.304564e+02
1.330000e-06	5.258032e-09	9.693074e-09	3.662017e+01	6.366268e+02
1.340000e-06	5.363566e-09	9.781555e-09	3.735517e+01	6.424799e+02
1.350000e-06	5.467556e-09	9.865145e-09	3.807942e+01	6.480186e+02
1.360000e-06	5.570014e-09	9.943776e-09	3.879299e+01	6.532673e+02
1.370000e-06	5.671001e-09	1.001827e-08	3.949632e+01	6.582822e+02
1.380000e-06	5.770377e-09	1.009052e-08	4.018843e+01	6.631383e+02
1.390000e-06	5.868029e-09	1.016174e-08	4.086854e+01	6.678957e+02
1.400000e-06	5.963968e-09	1.023157e-08	4.153672e+01	6.725674e+02
1.410000e-06	6.058256e-09	1.029930e-08	4.219339e+01	6.771092e+02
1.420000e-06	6.150970e-09	1.036366e-08	4.283910e+01	6.814434e+02
1.430000e-06	6.241997e-09	1.042487e-08	4.347307e+01	6.855049e+02
1.440000e-06	6.331173e-09	1.048202e-08	4.409414e+01	6.892849e+02
1.450000e-06	6.418485e-09	1.053485e-08	4.470224e+01	6.928435e+02
1.460000e-06	6.504039e-09	1.058478e-08	4.529808e+01	6.962827e+02
1.470000e-06	6.587840e-09	1.063420e-08	4.588173e+01	6.996925e+02
1.480000e-06	6.669746e-09	1.068460e-08	4.645216e+01	7.031004e+02
1.490000e-06	6.749641e-09	1.073417e-08	4.700859e+01	7.064549e+02
1.500000e-06	6.827538e-09	1.078143e-08	4.755112e+01	7.096535e+02
1.510000e-06	6.903372e-09	1.082601e-08	4.807926e+01	7.126004e+02
1.520000e-06	6.977009e-09	1.086744e-08	4.859211e+01	7.152611e+02
1.530000e-06	7.048513e-09	1.090582e-08	4.909011e+01	7.176833e+02
1.540000e-06	7.118026e-09	1.094087e-08	4.957423e+01	7.199718e+02
1.550000e-06	7.185505e-09	1.097322e-08	5.004419e+01	7.222328e+02
1.560000e-06	7.250818e-09	1.100497e-08	5.049907e+01	7.245190e+02
1.570000e-06	7.314034e-09	1.103711e-08	5.093934e+01	7.268065e+02
1.580000e-06	7.375323e-09	1.106940e-08	5.136620e+01	7.290130e+02
1.590000e-06	7.434619e-09	1.110027e-08	5.177917e+01	7.310467e+02
1.600000e-06	7.491730e-09	1.112838e-08	5.217692e+01	7.328545e+02
1.610000e-06	7.546658e-09	1.115333e-08	5.255947e+01	7.344453e+02
1.620000e-06	7.599304e-09	1.117535e-08	5.292612e+01	7.358779e+02
1.630000e-06	7.649431e-09	1.119609e-08	5.327523e+01	7.372258e+02
1.640000e-06	7.697146e-09	1.121572e-08	5.360754e+01	7.385411e+02
1.650000e-06	7.742798e-09	1.123445e-08	5.392549e+01	7.398386e+02
1.660000e-06	7.786443e-09	1.125370e-08	5.422946e+01	7.411031e+02
1.670000e-06	7.827845e-09	1.127265e-08	5.451780e+01	7.423098e+02
1.680000e-06	7.867000e-09	1.129064e-08	5.479050e+01	7.434417e+02
1.690000e-06	7.904133e-09	1.130768e-08	5.504912e+01	7.444924e+02
1.700000e-06	7.939147e-09	1.132243e-08	5.529297e+01	7.454570e+02
1.710000e-06	7.971848e-09	1.133498e-08	5.552072e+01	7.463228e+02
1.720000e-06	8.002368e-09	1.134656e-08	5.573327e+01	7.470722e+02
1.730000e-06	8.030865e-09	1.135688e-08	5.593174e+01	7.476966e+02
1.740000e-06	8.057089e-09	1.136618e-08	5.611438e+01	7.482131e+02
1.750000e-06	8.080853e-09	1.137466e-08	5.627988e+01	7.486671e+02
1.760000e-06	8.102404e-09	1.138281e-08	5.642998e+01	7.491147e+02
1.770000e-06	8.121843e-09	1.139188e-08	5.656536e+01	7.495915e+02
1.780000e-06	8.138938e-09	1.140105e-08	5.668441e+01	7.500877e+02
1.790000e-06	8.153596e-09	1.140868e-08	5.678650e+01	7.505468e+02
1.800000e-06	8.165793e-09	1.141393e-08	5.687145e+01	7.508932e+02
1.810000e-06	8.175394e-09	1.141657e-08	5.693831e+01	7.510758e+02
1.820000e-06	8.182518e-09	1.141671e-08	5.698792e+01	7.510991e+02
1.830000e-06	8.187426e-09	1.141563e-08	5.702210e+01	7.510237e+02
1.840000e-06	8.190018e-09	1.141544e-08	5.704015e+01	7.509320e+02
1.850000e-06	8.190181e-09	1.141605e-08	5.704128e+01	7.508789e+02
1.860000e-06	8.188142e-09	1.141526e-08	5.702708e+01	7.508586e+02
1.870000e-06	8.183981e-09	1.141334e-08	5.699810e+01	7.508082e+02
1.880000e-06	8.177517e-09	1.141188e-08	5.695307e+01	7.506482e+02
1.890000e-06	8.168796e-09	1.140899e-08	5.689233e+01	7.503341e+02
1.900000e-06	8.157911e-09	1.140327e-08	5.681652e+01	7.498871e+02
1.910000e-06	8.144671e-09	1.139933e-08	5.672430e+01	7.493802e+02
1.920000e-06	8.129117e-09	1.139667e-08	5.661598e+01	7.488881e+02
1.930000e-06	8.111423e-09	1.136885e-08	5.649274e+01	7.484318e+02
1.940000e-06	8.091025e-09	1.133449e-08	5.635067e+01	7.479543e+02
1.950000e-06	8.067318e-09	1.133433e-08	5.618556e+01	7.473495e+02
1.960000e-06	8.040819e-09	1.132545e-08	5.600100e+01	7.465306e+02
1.970000e-06	8.012336e-09	1.132418e-08	5.580263e+01	7.454991e+02
1.980000e-06	7.982297e-09	1.135022e-08	5.559342e+01	7.443697e+02
1.990000e-06	7.950744e-09	1.126903e-08	5.537367e+01	7.433294e+02
2.000000e-06	7.917146e-09	1.125419e-08	5.513967e+01	7.425468e+02
2.010000e-06	7.881613e-09	1.131202e-08	5.489219e+01	7.420793e+02
2.020000e-06	7.844141e-09	1.127862e-08	5.463121e+01	7.418287e+02
2.030000e-06	7.804074e-09	1.133032e-08	5.435216e+01	7.415736e+02
2.040000e-06	7.761812e-09	1.130113e-08	5.405781e+01	7.410649e+02
2.050000e-06	7.717586e-09	1.124409e-08	5.374980e+01	7.401343e+02
2.060000e-06	7.671176e-09	1.129815e-08	5.342657e+01	7.387613e+02
2.070000e-06	7.622693e-09	1.123896e-08	5.308890e+01	7.370647e+02
2.080000e-06	7.571788e-09	1.121970e-08	5.273436e+01	7.352282e+02
2.090000e-06	7.518353e-09	1.120100e-08	5.236221e+01	7.334023e+02
2.100000e-06	7.462630e-09	1.114660e-08	5.197412e+01	7.316364e+02
2.110000e-06	7.404748e-09	1.115727e-08	5.157099e+01	7.298739e+02
2.120000e-06	7.344838e-09	1.109206e-08	5.115374e+01	7.280046e+02
2.130000e-06	7.282648e-09	1.107204e-08	5.072061e+01	7.259394e+02
2.140000e-06	7.218285e-09	1.103524e-08	5.027234e+01	7.236613e+02
2.150000e-06	7.151870e-09	1.100514e-08	4.980979e+01	7.212268e+02
2.160000e-06	7.083258e-09	1.099351e-08	4.933194e+01	7.187210e+02
2.170000e-06	7.012371e-09	1.091826e-08	4.883824e+01	7.162007e+02
2.180000e-06	6.939214e-09	1.091083e-08	4.832873e+01	7.136592e+02
2.190000e-06	6.864031e-09	1.085097e-08	4.780510e+01	7.110350e+02
2.200000e-06	6.786583e-09	1.081000e-08	4.726571e+01	7.082537e+02
2.210000e-06	6.706905e-09	1.076997e-08	4.671078e+01	7.052750e+02
2.220000e-06	6.625341e-09	1.070323e-08	4.614272e+01	7.021141e+02
2.230000e-06	6.541911e-09	1.067651e-08	4.556165e+01	6.988253e+02
2.240000e-06	6.456540e-09	1.061539e-08	4.496708e+01	6.954609e+02
2.250000e-06	6.369168e-09	1.057858e-08	4.435857e+01	6.920328e+02
2.260000e-06	6.280048e-09	1.050976e-08	4.373788e+01	6.885020e+02
2.270000e-06	6.189248e-09	1.045687e-08	4.310549e+01	6.848019e+02
2.280000e-06	6.096713e-09	1.040193e-08	4.246102e+01	6.808802e+02
2.290000e-06	6.002384e-09	1.033230e-08	4.180406e+01	6.767315e+02
2.300000e-06	5.906313e-09	1.027240e-08	4.113495e+01	6.724000e+02
2.310000e-06	5.808741e-09	1.019517e-08	4.045540e+01	6.679512e+02
2.320000e-06	5.709662e-09	1.014284e-08	3.976536e+01	6.634301e+02
2.330000e-06	5.608999e-09	1.006852e-08	3.906428e+01	6.588324e+02
2.340000e-06	5.506642e-09	9.995446e-09	3.835140e+01	6.541049e+02
2.350000e-06	5.402661e-09	9.917103e-09	3.762721e+01	6.491749e+02
2.360000e-06	5.297264e-09	9.846288e-09	3.689316e+01	6.439897e+02
2.370000e-06	5.190590e-09	9.772712e-09	3.615022e+01	6.385424e+02
2.380000e-06	5.082603e-09	9.684446e-09	3.539813e+01	6.328697e+02
2.390000e-06	4.973239e-09	9.593986e-09	3.463645e+01	6.270253e+02
2.400000e-06	4.862409e-09	9.496770e-09	3.386456e+01	6.210462e+02
2.410000e-06	4.750094e-09	9.408830e-09	3.308234e+01	6.149307e+02
2.420000e-06	4.636411e-09	9.313286e-09	3.229058e+01	6.086407e+02
2.430000e-06	4.521306e-09	9.215415e-09	3.148892e+01	6.021222e+02
2.440000e-06	4.404786e-09	9.113865e-09	3.067741e+01	5.953317e+02
2.450000e-06	4.286847e-09	9.012235e-09	2.985602e+01	5.882512e+02
2.460000e-06	4.167515e-09	8.901079e-09	2.902491e+01	5.808869e+02
2.470000e-06	4.046908e-09	8.781382e-09	2.818494e+01	5.732552e+02
2.480000e-06	3.925175e-09	8.658757e-09	2.733711e+01	5.653676e+02
2.490000e-06	3.802293e-09	8.536323e-09	2.648128e+01	5.572237e+02
2.500000e-06	3.678247e-09	8.413227e-09	2.561735e+01	5.488132e+02
2.510000e-06	3.553145e-09	8.282035e-09	2.474606e+01	5.401229e+02
2.520000e-06	3.426978e-09	8.144738e-09	2.386737e+01	5.311400e+02
2.530000e-06	3.299702e-09	8.003805e-09	2.298094e+01	5.218491e+02
2.540000e-06	3.171349e-09	7.860007e-09	2.208701e+01	5.122276e+02
2.550000e-06	3.042097e-09	7.707544e-09	2.118682e+01	5.022445e+02
2.560000e-06	2.912017e-09	7.547970e-09	2.028086e+01	4.918684e+02
2.570000e-06	2.781077e-09	7.383991e-09	1.936891e+01	4.810810e+02
2.580000e-06	2.649323e-09	7.218157e-09	1.845129e+01	4.698871e+02
2.590000e-06	2.516828e-09	7.043317e-09	1.752852e+01	4.583124e+02
2.600000e-06	2.383613e-09	6.859003e-09	1.660073e+01	4.463873e+02
2.610000e-06	2.249714e-09	6.670515e-09	1.566818e+01	4.341245e+02
2.620000e-06	2.115219e-09	6.479601e-09	1.473148e+01	4.215035e+02
2.630000e-06	1.980160e-09	6.283039e-09	1.379085e+01	4.084719e+02
2.640000e-06	1.844507e-09	6.076521e-09	1.284608e+01	3.949650e+02
2.650000e-06	1.708289e-09	5.860754e-09	1.189737e+01	3.809320e+02
2.660000e-06	1.571591e-09	5.637819e-09	1.094533e+01	3.663542e+02
2.670000e-06	1.434516e-09	5.407810e-09	9.990647e+00	3.512433e+02
2.680000e-06	1.297157e-09	5.169036e-09	9.033993e+00	3.356210e+02
2.690000e-06	1.159551e-09	4.922110e-09	8.075627e+00	3.194911e+02
2.700000e-06	1.021692e-09	4.667210e-09	7.115493e+00	3.028212e+02
2.710000e-06	8.835816e-10	4.404284e-09	6.153609e+00	2.855440e+02
2.720000e-06	7.452398e-10	4.130086e-09	5.190115e+00	2.675767e+02
2.730000e-06	6.067019e-10	3.842138e-09	4.225256e+00	2.488455e+02
2.740000e-06	4.680394e-10	3.542395e-09	3.259530e+00	2.293023e+02
2.750000e-06	3.292917e-10	3.232610e-09	2.293210e+00	2.089222e+02
2.760000e-06	1.904757e-10	2.912335e-09	1.326415e+00	1.876893e+02
2.770000e-06	5.161549e-11	2.578837e-09	3.593125e-01	1.655785e+02
2.780000e-06	-8.726155e-11	2.227725e-09	-6.079074e-01	1.425479e+02
2.790000e-06	-2.261163e-10	1.859035e-09	-1.574971e+00	1.185465e+02
2.800000e-06	-3.649139e-10	1.474858e-09	-2.541638e+00	9.352929e+01
2.810000e-06	-5.036355e-10	1.076439e-09	-3.507775e+00	6.747239e+01
2.820000e-06	-6.422064e-10	6.625742e-10	-4.472863e+00	4.037899e+01
2.830000e-06	-7.805829e-10	2.328948e-10	-5.436597e+00	1.227766e+01
2.840000e-06	-9.187622e-10	-2.103662e-10	-6.398958e+00	-1.677807e+01
2.850000e-06	-1.056713e-09	-6.663848e-10	-7.359731e+00	-4.670003e+01
2.860000e-06	-1.194417e-09	-1.133547e-09	-8.318780e+00	-7.734475e+01
2.870000e-06	-1.331843e-09	-1.609063e-09	-9.275904e+00	-1.084921e+02
2.880000e-06	-1.468961e-09	-2.087727e-09	-1.023088e+01	-1.398395e+02
2.890000e-06	-1.605706e-09	-2.564590e-09	-1.118326e+01	-1.710244e+02
2.900000e-06	-1.742013e-09	-3.034511e-09	-1.213258e+01	-2.016724e+02
2.910000e-06	-1.877832e-09	-3.492210e-09	-1.307850e+01	-2.314555e+02
2.920000e-06	-2.013094e-09	-3.933182e-09	-1.402055e+01	-2.601355e+02
2.930000e-06	-2.147751e-09	-4.353555e-09	-1.495838e+01	-2.875746e+02
2.940000e-06	-2.281787e-09	-4.753129e-09	-1.589188e+01	-3.137121e+02
2.950000e-06	-2.415174e-09	-5.133922e-09	-1.682087e+01	-3.385235e+02
