# Temperatura_=_20.0
# Concentracion g/m^3_=_10000.0
# C_Vs_to_Am_M_A/Vsm_=_65563218390.804596
# pendiente_HvsI_1/m_=_3716.3
# ordenada_HvsI_A/m_=_1297.0
# frecuencia_Hz_=_81225.19353113018

Tiempo_(s)	Campo_(V.s)	Magnetizacion_(V.s)	Campo_(kA/m)	Magnetizacion_(A/m)
0.000000e+00	-7.595594e-06	-1.967283e-11	-5.696000e+01	-2.115056e-03
1.000000e-08	-7.595671e-06	-1.859066e-11	-5.696058e+01	1.670075e-02
2.000000e-08	-7.595630e-06	-2.304914e-11	-5.696027e+01	3.592505e-02
3.000000e-08	-7.595367e-06	-2.732253e-11	-5.695829e+01	5.547415e-02
4.000000e-08	-7.594979e-06	-1.429796e-11	-5.695538e+01	7.523115e-02
5.000000e-08	-7.594504e-06	4.528375e-11	-5.695182e+01	9.504233e-02
6.000000e-08	-7.593830e-06	1.538032e-10	-5.694677e+01	1.147153e-01
7.000000e-08	-7.592987e-06	1.539936e-10	-5.694045e+01	1.340196e-01
8.000000e-08	-7.592039e-06	1.479598e-10	-5.693334e+01	1.526892e-01
9.000000e-08	-7.590954e-06	5.552339e-11	-5.692520e+01	1.704274e-01
1.000000e-07	-7.589634e-06	-1.274797e-10	-5.691530e+01	1.869140e-01
1.100000e-07	-7.587977e-06	-2.761620e-10	-5.690288e+01	2.018135e-01
1.200000e-07	-7.586046e-06	-3.047876e-10	-5.688840e+01	2.147862e-01
1.300000e-07	-7.583931e-06	-2.440804e-10	-5.687254e+01	2.254984e-01
1.400000e-07	-7.581489e-06	-1.289868e-10	-5.685422e+01	2.336349e-01
1.500000e-07	-7.578761e-06	2.793110e-11	-5.683377e+01	2.389107e-01
1.600000e-07	-7.575647e-06	1.596807e-10	-5.681042e+01	2.410817e-01
1.700000e-07	-7.572228e-06	3.063901e-10	-5.678477e+01	2.399554e-01
1.800000e-07	-7.568694e-06	2.839152e-10	-5.675827e+01	2.353990e-01
1.900000e-07	-7.564830e-06	2.277297e-10	-5.672930e+01	2.273464e-01
2.000000e-07	-7.560691e-06	1.236489e-10	-5.669826e+01	2.158019e-01
2.100000e-07	-7.556392e-06	-4.078936e-11	-5.666602e+01	2.008424e-01
2.200000e-07	-7.551993e-06	1.133049e-11	-5.663303e+01	1.826160e-01
2.300000e-07	-7.547534e-06	-1.593078e-11	-5.659959e+01	1.613383e-01
2.400000e-07	-7.542935e-06	-7.821925e-11	-5.656510e+01	1.372867e-01
2.500000e-07	-7.538173e-06	-8.556403e-11	-5.652940e+01	1.107912e-01
2.600000e-07	-7.533297e-06	-4.120224e-11	-5.649283e+01	8.222419e-02
2.700000e-07	-7.528214e-06	4.205235e-11	-5.645471e+01	5.198877e-02
2.800000e-07	-7.522937e-06	-1.857935e-11	-5.641514e+01	2.050543e-02
2.900000e-07	-7.517460e-06	4.651633e-11	-5.637407e+01	-1.180108e-02
3.000000e-07	-7.511755e-06	5.189098e-11	-5.633128e+01	-4.451502e-02
3.100000e-07	-7.505929e-06	8.590455e-11	-5.628759e+01	-7.724210e-02
3.200000e-07	-7.500030e-06	6.054883e-11	-5.624336e+01	-1.096207e-01
3.300000e-07	-7.493918e-06	-4.850234e-11	-5.619752e+01	-1.413313e-01
3.400000e-07	-7.487509e-06	-4.901811e-11	-5.614946e+01	-1.721038e-01
3.500000e-07	-7.480933e-06	-5.450443e-11	-5.610014e+01	-2.017225e-01
3.600000e-07	-7.474161e-06	7.394906e-11	-5.604936e+01	-2.300286e-01
3.700000e-07	-7.467116e-06	7.073428e-11	-5.599653e+01	-2.569195e-01
3.800000e-07	-7.459920e-06	5.511614e-12	-5.594257e+01	-2.823464e-01
3.900000e-07	-7.452545e-06	2.078383e-12	-5.588726e+01	-3.063087e-01
4.000000e-07	-7.444857e-06	1.987349e-11	-5.582961e+01	-3.288473e-01
4.100000e-07	-7.436921e-06	3.603389e-11	-5.577010e+01	-3.500352e-01
4.200000e-07	-7.428819e-06	-7.793915e-11	-5.570934e+01	-3.699676e-01
4.300000e-07	-7.420650e-06	-7.452935e-11	-5.564808e+01	-3.887515e-01
4.400000e-07	-7.412369e-06	-2.303012e-11	-5.558598e+01	-4.064946e-01
4.500000e-07	-7.403923e-06	4.016417e-11	-5.552264e+01	-4.232953e-01
4.600000e-07	-7.395362e-06	3.606468e-11	-5.545844e+01	-4.392335e-01
4.700000e-07	-7.386698e-06	-2.007017e-11	-5.539347e+01	-4.543624e-01
4.800000e-07	-7.377910e-06	7.017528e-12	-5.532756e+01	-4.687032e-01
4.900000e-07	-7.368951e-06	5.880090e-12	-5.526038e+01	-4.822410e-01
5.000000e-07	-7.359826e-06	3.693965e-11	-5.519196e+01	-4.949236e-01
5.100000e-07	-7.350587e-06	-1.524263e-11	-5.512267e+01	-5.066626e-01
5.200000e-07	-7.341127e-06	-5.426190e-11	-5.505173e+01	-5.173369e-01
5.300000e-07	-7.331285e-06	-1.234114e-11	-5.497792e+01	-5.267981e-01
5.400000e-07	-7.321002e-06	8.892331e-12	-5.490081e+01	-5.348782e-01
5.500000e-07	-7.310339e-06	1.235559e-11	-5.482085e+01	-5.413988e-01
5.600000e-07	-7.299307e-06	-4.978954e-11	-5.473812e+01	-5.461811e-01
5.700000e-07	-7.287964e-06	-2.923019e-11	-5.465305e+01	-5.490567e-01
5.800000e-07	-7.276456e-06	3.351150e-12	-5.456676e+01	-5.498782e-01
5.900000e-07	-7.264713e-06	5.622106e-12	-5.447869e+01	-5.485292e-01
6.000000e-07	-7.252754e-06	-2.449425e-11	-5.438901e+01	-5.449339e-01
6.100000e-07	-7.240526e-06	-6.177683e-11	-5.429731e+01	-5.390643e-01
6.200000e-07	-7.228128e-06	-1.358358e-11	-5.420434e+01	-5.309460e-01
6.300000e-07	-7.215705e-06	-7.633348e-12	-5.411118e+01	-5.206615e-01
6.400000e-07	-7.203054e-06	-4.083932e-12	-5.401630e+01	-5.083515e-01
6.500000e-07	-7.190195e-06	-2.474951e-11	-5.391988e+01	-4.942132e-01
6.600000e-07	-7.177281e-06	-2.055333e-11	-5.382303e+01	-4.784965e-01
6.700000e-07	-7.164090e-06	2.492599e-11	-5.372412e+01	-4.614977e-01
6.800000e-07	-7.150581e-06	1.757786e-11	-5.362281e+01	-4.435515e-01
6.900000e-07	-7.136896e-06	-2.881714e-12	-5.352018e+01	-4.250208e-01
7.000000e-07	-7.123004e-06	-3.860873e-11	-5.341600e+01	-4.062858e-01
7.100000e-07	-7.108868e-06	-1.468850e-11	-5.331000e+01	-3.877320e-01
7.200000e-07	-7.094524e-06	-3.500087e-12	-5.320243e+01	-3.697387e-01
7.300000e-07	-7.080086e-06	-1.585662e-11	-5.309416e+01	-3.526665e-01
7.400000e-07	-7.065577e-06	-1.458975e-11	-5.298535e+01	-3.368474e-01
7.500000e-07	-7.050883e-06	-1.067619e-11	-5.287516e+01	-3.225749e-01
7.600000e-07	-7.035981e-06	2.775903e-11	-5.276341e+01	-3.100964e-01
7.700000e-07	-7.020895e-06	1.289111e-11	-5.265028e+01	-2.996075e-01
7.800000e-07	-7.005492e-06	-4.869736e-12	-5.253477e+01	-2.912485e-01
7.900000e-07	-6.989911e-06	-1.989404e-11	-5.241793e+01	-2.851038e-01
8.000000e-07	-6.974008e-06	-1.670428e-11	-5.229867e+01	-2.812026e-01
8.100000e-07	-6.957792e-06	8.881054e-13	-5.217707e+01	-2.795228e-01
8.200000e-07	-6.941327e-06	-1.749015e-11	-5.205359e+01	-2.799961e-01
8.300000e-07	-6.924701e-06	-1.103533e-11	-5.192892e+01	-2.825154e-01
8.400000e-07	-6.907876e-06	-1.053693e-11	-5.180275e+01	-2.869427e-01
8.500000e-07	-6.890760e-06	1.240151e-11	-5.167439e+01	-2.931184e-01
8.600000e-07	-6.873561e-06	1.674064e-11	-5.154541e+01	-3.008705e-01
8.700000e-07	-6.856149e-06	-2.360730e-12	-5.141484e+01	-3.100235e-01
8.800000e-07	-6.838589e-06	-5.299175e-12	-5.128315e+01	-3.204070e-01
8.900000e-07	-6.820888e-06	-1.629493e-11	-5.115041e+01	-3.318627e-01
9.000000e-07	-6.803024e-06	-4.042765e-12	-5.101645e+01	-3.442498e-01
9.100000e-07	-6.785058e-06	-1.479764e-11	-5.088172e+01	-3.574497e-01
9.200000e-07	-6.766944e-06	-1.489278e-11	-5.074588e+01	-3.713670e-01
9.300000e-07	-6.748666e-06	-3.437413e-12	-5.060881e+01	-3.859301e-01
9.400000e-07	-6.730161e-06	8.157051e-12	-5.047005e+01	-4.010889e-01
9.500000e-07	-6.711474e-06	2.025656e-11	-5.032990e+01	-4.168108e-01
9.600000e-07	-6.692650e-06	-9.121900e-13	-5.018874e+01	-4.330751e-01
9.700000e-07	-6.673587e-06	-4.996845e-12	-5.004579e+01	-4.498670e-01
9.800000e-07	-6.654283e-06	-1.230707e-11	-4.990102e+01	-4.671692e-01
9.900000e-07	-6.634693e-06	-1.105315e-11	-4.975412e+01	-4.849545e-01
1.000000e-06	-6.614942e-06	-1.353657e-11	-4.960601e+01	-5.031783e-01
1.010000e-06	-6.595111e-06	-2.277184e-11	-4.945729e+01	-5.217709e-01
1.020000e-06	-6.575107e-06	-9.927204e-12	-4.930728e+01	-5.406319e-01
1.030000e-06	-6.554912e-06	-8.721712e-12	-4.915584e+01	-5.596256e-01
1.040000e-06	-6.534581e-06	-3.705601e-12	-4.900337e+01	-5.785784e-01
1.050000e-06	-6.514191e-06	-1.511251e-11	-4.885047e+01	-5.972777e-01
1.060000e-06	-6.493722e-06	-2.099081e-11	-4.869697e+01	-6.154742e-01
1.070000e-06	-6.473151e-06	-2.157047e-11	-4.854270e+01	-6.328851e-01
1.080000e-06	-6.452465e-06	-2.661202e-11	-4.838758e+01	-6.492005e-01
1.090000e-06	-6.431649e-06	-2.004761e-11	-4.823148e+01	-6.640912e-01
1.100000e-06	-6.410703e-06	-2.491293e-11	-4.807440e+01	-6.772180e-01
1.110000e-06	-6.389729e-06	-1.437172e-11	-4.791711e+01	-6.882429e-01
1.120000e-06	-6.368709e-06	-1.214821e-11	-4.775948e+01	-6.968404e-01
1.130000e-06	-6.347386e-06	-1.572229e-11	-4.759958e+01	-7.027095e-01
1.140000e-06	-6.325765e-06	-2.164629e-11	-4.743745e+01	-7.055852e-01
1.150000e-06	-6.303945e-06	-3.222565e-11	-4.727381e+01	-7.052490e-01
1.160000e-06	-6.282031e-06	-2.735229e-11	-4.710948e+01	-7.015385e-01
1.170000e-06	-6.260084e-06	-3.028320e-11	-4.694490e+01	-6.943549e-01
1.180000e-06	-6.237909e-06	-2.567668e-11	-4.677860e+01	-6.836683e-01
1.190000e-06	-6.215548e-06	-2.664039e-11	-4.661092e+01	-6.695208e-01
1.200000e-06	-6.193154e-06	-2.341190e-11	-4.644298e+01	-6.520266e-01
1.210000e-06	-6.170655e-06	-1.663181e-11	-4.627426e+01	-6.313695e-01
1.220000e-06	-6.147964e-06	-2.530274e-11	-4.610410e+01	-6.077982e-01
1.230000e-06	-6.125122e-06	-2.546303e-11	-4.593280e+01	-5.816185e-01
1.240000e-06	-6.102067e-06	-3.008902e-11	-4.575991e+01	-5.531841e-01
1.250000e-06	-6.078887e-06	-2.275708e-11	-4.558608e+01	-5.228848e-01
1.260000e-06	-6.055603e-06	-1.416539e-11	-4.541148e+01	-4.911343e-01
1.270000e-06	-6.032064e-06	-1.115164e-11	-4.523496e+01	-4.583571e-01
1.280000e-06	-6.008349e-06	-8.125931e-12	-4.505711e+01	-4.249749e-01
1.290000e-06	-5.984440e-06	-1.530224e-11	-4.487782e+01	-3.913937e-01
1.300000e-06	-5.960374e-06	-1.859268e-11	-4.469735e+01	-3.579921e-01
1.310000e-06	-5.936267e-06	-2.960091e-11	-4.451657e+01	-3.251110e-01
1.320000e-06	-5.912023e-06	-3.236222e-11	-4.433475e+01	-2.930448e-01
1.330000e-06	-5.887615e-06	-3.106063e-11	-4.415172e+01	-2.620358e-01
1.340000e-06	-5.863084e-06	-2.446757e-11	-4.396776e+01	-2.322704e-01
1.350000e-06	-5.838442e-06	-6.439517e-12	-4.378297e+01	-2.038778e-01
1.360000e-06	-5.813728e-06	3.005788e-12	-4.359763e+01	-1.769323e-01
1.370000e-06	-5.788864e-06	8.357020e-12	-4.341118e+01	-1.514566e-01
1.380000e-06	-5.763848e-06	5.378958e-13	-4.322358e+01	-1.274290e-01
1.390000e-06	-5.738720e-06	-4.936901e-12	-4.303514e+01	-1.047905e-01
1.400000e-06	-5.713520e-06	-6.767325e-12	-4.284616e+01	-8.345528e-02
1.410000e-06	-5.688272e-06	-5.894038e-12	-4.265683e+01	-6.332071e-02
1.420000e-06	-5.662827e-06	3.273458e-12	-4.246601e+01	-4.427806e-02
1.430000e-06	-5.637136e-06	1.110162e-11	-4.227336e+01	-2.622322e-02
1.440000e-06	-5.611236e-06	2.318622e-11	-4.207913e+01	-9.066426e-03
1.450000e-06	-5.585024e-06	2.384034e-11	-4.188257e+01	7.259229e-03
1.460000e-06	-5.558614e-06	1.988401e-11	-4.168451e+01	2.279094e-02
1.470000e-06	-5.531957e-06	1.028667e-11	-4.148461e+01	3.753143e-02
1.480000e-06	-5.504937e-06	1.214251e-12	-4.128198e+01	5.144645e-02
1.490000e-06	-5.477720e-06	3.398372e-12	-4.107788e+01	6.446469e-02
1.500000e-06	-5.450415e-06	5.308874e-12	-4.087312e+01	7.648010e-02
1.510000e-06	-5.422804e-06	1.264157e-11	-4.066606e+01	8.735654e-02
1.520000e-06	-5.394823e-06	1.556871e-11	-4.045623e+01	9.693444e-02
1.530000e-06	-5.366773e-06	2.182129e-11	-4.024588e+01	1.050392e-01
1.540000e-06	-5.338655e-06	2.379301e-11	-4.003502e+01	1.114909e-01
1.550000e-06	-5.310468e-06	1.689202e-11	-3.982365e+01	1.161147e-01
1.560000e-06	-5.282241e-06	1.245694e-11	-3.961197e+01	1.187518e-01
1.570000e-06	-5.253912e-06	7.891605e-12	-3.939953e+01	1.192699e-01
1.580000e-06	-5.225509e-06	1.152850e-11	-3.918653e+01	1.175725e-01
1.590000e-06	-5.197018e-06	1.205958e-11	-3.897288e+01	1.136078e-01
1.600000e-06	-5.168452e-06	1.049261e-11	-3.875865e+01	1.073752e-01
1.610000e-06	-5.139851e-06	8.241906e-12	-3.854418e+01	9.892953e-02
1.620000e-06	-5.111168e-06	8.128614e-12	-3.832908e+01	8.838362e-02
1.630000e-06	-5.082293e-06	9.579429e-12	-3.811254e+01	7.590788e-02
1.640000e-06	-5.053345e-06	2.620565e-12	-3.789546e+01	6.172755e-02
1.650000e-06	-5.024372e-06	-1.430444e-12	-3.767819e+01	4.611761e-02
1.660000e-06	-4.995196e-06	-6.270576e-12	-3.745939e+01	2.939543e-02
1.670000e-06	-4.965865e-06	-6.706096e-12	-3.723944e+01	1.191168e-02
1.680000e-06	-4.936339e-06	-5.989472e-12	-3.701802e+01	-5.960307e-03
1.690000e-06	-4.906612e-06	-8.739255e-12	-3.679510e+01	-2.383601e-02
1.700000e-06	-4.876825e-06	-6.766225e-12	-3.657172e+01	-4.133174e-02
1.710000e-06	-4.847019e-06	-7.187605e-12	-3.634820e+01	-5.807648e-02
1.720000e-06	-4.817089e-06	-4.604617e-12	-3.612376e+01	-7.372318e-02
1.730000e-06	-4.786979e-06	-1.587643e-12	-3.589796e+01	-8.795884e-02
1.740000e-06	-4.756696e-06	5.937076e-13	-3.567086e+01	-1.005131e-01
1.750000e-06	-4.726215e-06	7.772061e-13	-3.544228e+01	-1.111650e-01
1.760000e-06	-4.695663e-06	-1.288087e-12	-3.521317e+01	-1.197473e-01
1.770000e-06	-4.665166e-06	-2.338802e-12	-3.498447e+01	-1.261487e-01
1.780000e-06	-4.634630e-06	-6.382047e-12	-3.475548e+01	-1.303141e-01
1.790000e-06	-4.603903e-06	-6.301483e-12	-3.452506e+01	-1.322413e-01
1.800000e-06	-4.573032e-06	-4.659764e-12	-3.429355e+01	-1.319772e-01
1.810000e-06	-4.542079e-06	1.545729e-12	-3.406143e+01	-1.296115e-01
1.820000e-06	-4.511002e-06	8.763809e-12	-3.382838e+01	-1.252682e-01
1.830000e-06	-4.479752e-06	1.089158e-11	-3.359404e+01	-1.190977e-01
1.840000e-06	-4.448457e-06	1.194473e-11	-3.335935e+01	-1.112673e-01
1.850000e-06	-4.417185e-06	8.239805e-12	-3.312484e+01	-1.019519e-01
1.860000e-06	-4.385751e-06	6.439556e-12	-3.288912e+01	-9.132535e-02
1.870000e-06	-4.354115e-06	4.554981e-12	-3.265187e+01	-7.955256e-02
1.880000e-06	-4.322340e-06	3.767185e-12	-3.241359e+01	-6.678326e-02
1.890000e-06	-4.290604e-06	6.776712e-12	-3.217560e+01	-5.314709e-02
1.900000e-06	-4.258818e-06	1.024454e-11	-3.193723e+01	-3.875073e-02
1.910000e-06	-4.226757e-06	1.745315e-11	-3.169680e+01	-2.367701e-02
1.920000e-06	-4.194552e-06	2.294841e-11	-3.145530e+01	-7.986035e-03
1.930000e-06	-4.162264e-06	2.798500e-11	-3.121316e+01	8.281739e-03
1.940000e-06	-4.129909e-06	2.813141e-11	-3.097053e+01	2.510078e-02
1.950000e-06	-4.097495e-06	2.491836e-11	-3.072746e+01	4.245433e-02
1.960000e-06	-4.065021e-06	2.203347e-11	-3.048393e+01	6.032718e-02
1.970000e-06	-4.032555e-06	1.901779e-11	-3.024047e+01	7.869799e-02
1.980000e-06	-4.000059e-06	2.057690e-11	-2.999678e+01	9.753138e-02
1.990000e-06	-3.967362e-06	2.680916e-11	-2.975158e+01	1.167705e-01
2.000000e-06	-3.934518e-06	3.878773e-11	-2.950528e+01	1.363304e-01
2.010000e-06	-3.901630e-06	4.600924e-11	-2.925865e+01	1.560928e-01
2.020000e-06	-3.868731e-06	4.771044e-11	-2.901194e+01	1.759024e-01
2.030000e-06	-3.835740e-06	4.476379e-11	-2.876453e+01	1.955653e-01
2.040000e-06	-3.802594e-06	4.329524e-11	-2.851597e+01	2.148495e-01
2.050000e-06	-3.769398e-06	4.876344e-11	-2.826703e+01	2.334877e-01
2.060000e-06	-3.736021e-06	5.152785e-11	-2.801673e+01	2.511822e-01
2.070000e-06	-3.702502e-06	5.496455e-11	-2.776537e+01	2.676117e-01
2.080000e-06	-3.668967e-06	5.348997e-11	-2.751389e+01	2.824407e-01
2.090000e-06	-3.635391e-06	5.263218e-11	-2.726210e+01	2.953293e-01
2.100000e-06	-3.601626e-06	5.399784e-11	-2.700890e+01	3.059443e-01
2.110000e-06	-3.567637e-06	5.361728e-11	-2.675401e+01	3.139717e-01
2.120000e-06	-3.533640e-06	5.582806e-11	-2.649906e+01	3.191276e-01
2.130000e-06	-3.499523e-06	5.364628e-11	-2.624322e+01	3.211701e-01
2.140000e-06	-3.465067e-06	5.461030e-11	-2.598483e+01	3.199087e-01
2.150000e-06	-3.430333e-06	5.504709e-11	-2.572435e+01	3.152133e-01
2.160000e-06	-3.395536e-06	5.637794e-11	-2.546341e+01	3.070204e-01
2.170000e-06	-3.360792e-06	5.638150e-11	-2.520286e+01	2.953374e-01
2.180000e-06	-3.325880e-06	5.209942e-11	-2.494105e+01	2.802439e-01
2.190000e-06	-3.290815e-06	4.971915e-11	-2.467810e+01	2.618908e-01
2.200000e-06	-3.255785e-06	4.803579e-11	-2.441540e+01	2.404965e-01
2.210000e-06	-3.220544e-06	5.054524e-11	-2.415113e+01	2.163405e-01
2.220000e-06	-3.185102e-06	5.059964e-11	-2.388535e+01	1.897547e-01
2.230000e-06	-3.149554e-06	5.246506e-11	-2.361877e+01	1.611131e-01
2.240000e-06	-3.113833e-06	5.744696e-11	-2.335090e+01	1.308196e-01
2.250000e-06	-3.078004e-06	5.795829e-11	-2.308221e+01	9.929521e-02
2.260000e-06	-3.042055e-06	5.590249e-11	-2.281262e+01	6.696452e-02
2.270000e-06	-3.005996e-06	5.024457e-11	-2.254222e+01	3.424267e-02
2.280000e-06	-2.969860e-06	4.654412e-11	-2.227123e+01	1.522834e-03
2.290000e-06	-2.933727e-06	4.499247e-11	-2.200027e+01	-3.083486e-02
2.300000e-06	-2.897610e-06	4.305510e-11	-2.172942e+01	-6.251275e-02
2.310000e-06	-2.861318e-06	4.344539e-11	-2.145726e+01	-9.324287e-02
2.320000e-06	-2.824934e-06	4.586762e-11	-2.118441e+01	-1.228118e-01
2.330000e-06	-2.788579e-06	5.013325e-11	-2.091178e+01	-1.510629e-01
2.340000e-06	-2.752198e-06	5.055802e-11	-2.063896e+01	-1.778958e-01
2.350000e-06	-2.715773e-06	4.656053e-11	-2.036581e+01	-2.032638e-01
2.360000e-06	-2.679291e-06	4.069549e-11	-2.009223e+01	-2.271682e-01
2.370000e-06	-2.642761e-06	3.730662e-11	-1.981829e+01	-2.496512e-01
2.380000e-06	-2.606229e-06	3.709748e-11	-1.954433e+01	-2.707868e-01
2.390000e-06	-2.569650e-06	3.594215e-11	-1.927002e+01	-2.906712e-01
2.400000e-06	-2.533021e-06	3.437413e-11	-1.899534e+01	-3.094114e-01
2.410000e-06	-2.496372e-06	3.074425e-11	-1.872050e+01	-3.271151e-01
2.420000e-06	-2.459682e-06	2.905081e-11	-1.844536e+01	-3.438799e-01
2.430000e-06	-2.422963e-06	3.042123e-11	-1.817000e+01	-3.597849e-01
2.440000e-06	-2.386160e-06	3.173857e-11	-1.789402e+01	-3.748821e-01
2.450000e-06	-2.349273e-06	3.320453e-11	-1.761739e+01	-3.891913e-01
2.460000e-06	-2.312358e-06	3.351734e-11	-1.734057e+01	-4.026961e-01
2.470000e-06	-2.275433e-06	3.380715e-11	-1.706367e+01	-4.153429e-01
2.480000e-06	-2.238511e-06	3.318894e-11	-1.678678e+01	-4.270419e-01
2.490000e-06	-2.201560e-06	3.181485e-11	-1.650968e+01	-4.376707e-01
2.500000e-06	-2.164606e-06	3.068385e-11	-1.623256e+01	-4.470799e-01
2.510000e-06	-2.127587e-06	3.217869e-11	-1.595495e+01	-4.551011e-01
2.520000e-06	-2.090448e-06	3.475864e-11	-1.567645e+01	-4.615556e-01
2.530000e-06	-2.053225e-06	3.506120e-11	-1.539731e+01	-4.662648e-01
2.540000e-06	-2.015939e-06	3.513889e-11	-1.511770e+01	-4.690609e-01
2.550000e-06	-1.978632e-06	3.370135e-11	-1.483792e+01	-4.697975e-01
2.560000e-06	-1.941300e-06	3.097393e-11	-1.455797e+01	-4.683598e-01
2.570000e-06	-1.903982e-06	2.841336e-11	-1.427812e+01	-4.646738e-01
2.580000e-06	-1.866576e-06	2.807029e-11	-1.399761e+01	-4.587134e-01
2.590000e-06	-1.829020e-06	3.098322e-11	-1.371598e+01	-4.505064e-01
2.600000e-06	-1.791439e-06	3.482876e-11	-1.343415e+01	-4.401378e-01
2.610000e-06	-1.753879e-06	3.635666e-11	-1.315249e+01	-4.277505e-01
2.620000e-06	-1.716300e-06	3.590810e-11	-1.287068e+01	-4.135440e-01
2.630000e-06	-1.678719e-06	3.885417e-11	-1.258885e+01	-3.977700e-01
2.640000e-06	-1.641074e-06	4.294420e-11	-1.230655e+01	-3.807267e-01
2.650000e-06	-1.603388e-06	4.512665e-11	-1.202394e+01	-3.627500e-01
2.660000e-06	-1.565651e-06	4.655830e-11	-1.174095e+01	-3.442037e-01
2.670000e-06	-1.527811e-06	4.782429e-11	-1.145718e+01	-3.254685e-01
2.680000e-06	-1.489976e-06	5.003393e-11	-1.117345e+01	-3.069300e-01
2.690000e-06	-1.452011e-06	5.156604e-11	-1.088875e+01	-2.889667e-01
2.700000e-06	-1.413936e-06	5.399047e-11	-1.060322e+01	-2.719385e-01
2.710000e-06	-1.375914e-06	5.624233e-11	-1.031810e+01	-2.561760e-01
2.720000e-06	-1.337931e-06	5.750367e-11	-1.003326e+01	-2.419708e-01
2.730000e-06	-1.299885e-06	5.768250e-11	-9.747948e+00	-2.295685e-01
2.740000e-06	-1.261714e-06	5.281732e-11	-9.461697e+00	-2.191624e-01
2.750000e-06	-1.223562e-06	5.086907e-11	-9.175592e+00	-2.108908e-01
2.760000e-06	-1.185403e-06	5.129025e-11	-8.889440e+00	-2.048356e-01
2.770000e-06	-1.147126e-06	5.499994e-11	-8.602394e+00	-2.010241e-01
2.780000e-06	-1.108849e-06	6.548097e-11	-8.315349e+00	-1.994320e-01
2.790000e-06	-1.070613e-06	7.246190e-11	-8.028620e+00	-1.999894e-01
2.800000e-06	-1.032286e-06	7.618604e-11	-7.741201e+00	-2.025878e-01
2.810000e-06	-9.939105e-07	6.750457e-11	-7.453418e+00	-2.070882e-01
2.820000e-06	-9.555109e-07	5.089613e-11	-7.165456e+00	-2.133304e-01
2.830000e-06	-9.171218e-07	4.129456e-11	-6.877574e+00	-2.211418e-01
2.840000e-06	-8.787153e-07	3.701660e-11	-6.589559e+00	-2.303473e-01
2.850000e-06	-8.403015e-07	3.749303e-11	-6.301492e+00	-2.407766e-01
2.860000e-06	-8.019621e-07	4.259444e-11	-6.013981e+00	-2.522721e-01
2.870000e-06	-7.635310e-07	5.647818e-11	-5.725783e+00	-2.646939e-01
2.880000e-06	-7.249688e-07	6.817409e-11	-5.436602e+00	-2.779241e-01
