# Temperatura_=_20.0
# Concentracion g/m^3_=_10000.0
# C_Vs_to_Am_M_A/Vsm_=_65563218390.804596
# pendiente_HvsI_1/m_=_3716.3
# ordenada_HvsI_A/m_=_1297.0
# frecuencia_Hz_=_81230.17364352349

Tiempo_(s)	Campo_(V.s)	Magnetizacion_(V.s)	Campo_(kA/m)	Magnetizacion_(A/m)
0.000000e+00	-7.539833e-06	-1.084106e-08	-5.694603e+01	-7.064024e+02
1.000000e-08	-7.539801e-06	-1.084567e-08	-5.694578e+01	-7.064083e+02
2.000000e-08	-7.539735e-06	-1.085567e-08	-5.694529e+01	-7.064179e+02
3.000000e-08	-7.539525e-06	-1.086020e-08	-5.694370e+01	-7.064287e+02
4.000000e-08	-7.539143e-06	-1.084700e-08	-5.694082e+01	-7.064383e+02
5.000000e-08	-7.538623e-06	-1.079142e-08	-5.693689e+01	-7.064444e+02
6.000000e-08	-7.537991e-06	-1.070311e-08	-5.693212e+01	-7.064450e+02
7.000000e-08	-7.537243e-06	-1.077151e-08	-5.692647e+01	-7.064385e+02
8.000000e-08	-7.536263e-06	-1.077571e-08	-5.691906e+01	-7.064239e+02
9.000000e-08	-7.535020e-06	-1.086206e-08	-5.690968e+01	-7.064007e+02
1.000000e-07	-7.533551e-06	-1.107225e-08	-5.689858e+01	-7.063691e+02
1.100000e-07	-7.531945e-06	-1.109849e-08	-5.688645e+01	-7.063299e+02
1.200000e-07	-7.530229e-06	-1.086069e-08	-5.687350e+01	-7.062846e+02
1.300000e-07	-7.528241e-06	-1.086159e-08	-5.685848e+01	-7.062350e+02
1.400000e-07	-7.526018e-06	-1.097209e-08	-5.684169e+01	-7.061836e+02
1.500000e-07	-7.523538e-06	-1.080840e-08	-5.682296e+01	-7.061329e+02
1.600000e-07	-7.520565e-06	-1.069948e-08	-5.680051e+01	-7.060858e+02
1.700000e-07	-7.517176e-06	-1.069009e-08	-5.677491e+01	-7.060448e+02
1.800000e-07	-7.513519e-06	-1.063390e-08	-5.674729e+01	-7.060125e+02
1.900000e-07	-7.509677e-06	-1.066304e-08	-5.671827e+01	-7.059907e+02
2.000000e-07	-7.505661e-06	-1.077355e-08	-5.668794e+01	-7.059810e+02
2.100000e-07	-7.501450e-06	-1.083999e-08	-5.665613e+01	-7.059840e+02
2.200000e-07	-7.497092e-06	-1.076820e-08	-5.662322e+01	-7.059997e+02
2.300000e-07	-7.492606e-06	-1.079548e-08	-5.658934e+01	-7.060271e+02
2.400000e-07	-7.488014e-06	-1.098896e-08	-5.655466e+01	-7.060643e+02
2.500000e-07	-7.483368e-06	-1.089929e-08	-5.651956e+01	-7.061086e+02
2.600000e-07	-7.478576e-06	-1.075544e-08	-5.648338e+01	-7.061565e+02
2.700000e-07	-7.473581e-06	-1.083765e-08	-5.644565e+01	-7.062039e+02
2.800000e-07	-7.468416e-06	-1.096249e-08	-5.640664e+01	-7.062459e+02
2.900000e-07	-7.462994e-06	-1.072093e-08	-5.636569e+01	-7.062775e+02
3.000000e-07	-7.457358e-06	-1.072033e-08	-5.632313e+01	-7.062936e+02
3.100000e-07	-7.451478e-06	-1.087056e-08	-5.627871e+01	-7.062888e+02
3.200000e-07	-7.445345e-06	-1.075667e-08	-5.623239e+01	-7.062584e+02
3.300000e-07	-7.439168e-06	-1.084357e-08	-5.618574e+01	-7.061980e+02
3.400000e-07	-7.432891e-06	-1.092912e-08	-5.613833e+01	-7.061036e+02
3.500000e-07	-7.426410e-06	-1.073907e-08	-5.608938e+01	-7.059725e+02
3.600000e-07	-7.419719e-06	-1.062815e-08	-5.603884e+01	-7.058025e+02
3.700000e-07	-7.412833e-06	-1.085562e-08	-5.598684e+01	-7.055927e+02
3.800000e-07	-7.405765e-06	-1.087613e-08	-5.593345e+01	-7.053430e+02
3.900000e-07	-7.398402e-06	-1.066657e-08	-5.587784e+01	-7.050545e+02
4.000000e-07	-7.390857e-06	-1.074154e-08	-5.582086e+01	-7.047291e+02
4.100000e-07	-7.383161e-06	-1.081105e-08	-5.576273e+01	-7.043697e+02
4.200000e-07	-7.375302e-06	-1.077712e-08	-5.570338e+01	-7.039796e+02
4.300000e-07	-7.367314e-06	-1.074552e-08	-5.564304e+01	-7.035631e+02
4.400000e-07	-7.359091e-06	-1.073814e-08	-5.558094e+01	-7.031243e+02
4.500000e-07	-7.350763e-06	-1.067611e-08	-5.551804e+01	-7.026680e+02
4.600000e-07	-7.342292e-06	-1.070925e-08	-5.545407e+01	-7.021985e+02
4.700000e-07	-7.333673e-06	-1.078969e-08	-5.538897e+01	-7.017202e+02
4.800000e-07	-7.324966e-06	-1.066481e-08	-5.532321e+01	-7.012369e+02
4.900000e-07	-7.316139e-06	-1.063757e-08	-5.525654e+01	-7.007519e+02
5.000000e-07	-7.307133e-06	-1.069610e-08	-5.518852e+01	-7.002681e+02
5.100000e-07	-7.297913e-06	-1.071332e-08	-5.511888e+01	-6.997874e+02
5.200000e-07	-7.288677e-06	-1.069299e-08	-5.504913e+01	-6.993112e+02
5.300000e-07	-7.279224e-06	-1.063699e-08	-5.497773e+01	-6.988402e+02
5.400000e-07	-7.269266e-06	-1.062936e-08	-5.490252e+01	-6.983745e+02
5.500000e-07	-7.258874e-06	-1.065414e-08	-5.482403e+01	-6.979135e+02
5.600000e-07	-7.248081e-06	-1.068965e-08	-5.474252e+01	-6.974565e+02
5.700000e-07	-7.237039e-06	-1.061802e-08	-5.465912e+01	-6.970022e+02
5.800000e-07	-7.225738e-06	-1.058859e-08	-5.457376e+01	-6.965494e+02
5.900000e-07	-7.214174e-06	-1.063974e-08	-5.448643e+01	-6.960969e+02
6.000000e-07	-7.202314e-06	-1.063529e-08	-5.439685e+01	-6.956435e+02
6.100000e-07	-7.190241e-06	-1.062440e-08	-5.430567e+01	-6.951885e+02
6.200000e-07	-7.177986e-06	-1.057199e-08	-5.421311e+01	-6.947314e+02
6.300000e-07	-7.165417e-06	-1.056794e-08	-5.411818e+01	-6.942723e+02
6.400000e-07	-7.152788e-06	-1.059279e-08	-5.402280e+01	-6.938115e+02
6.500000e-07	-7.140051e-06	-1.059143e-08	-5.392660e+01	-6.933501e+02
6.600000e-07	-7.127043e-06	-1.055265e-08	-5.382835e+01	-6.928895e+02
6.700000e-07	-7.113929e-06	-1.051791e-08	-5.372931e+01	-6.924313e+02
6.800000e-07	-7.100621e-06	-1.055848e-08	-5.362880e+01	-6.919776e+02
6.900000e-07	-7.087049e-06	-1.056520e-08	-5.352629e+01	-6.915304e+02
7.000000e-07	-7.073303e-06	-1.055435e-08	-5.342247e+01	-6.910919e+02
7.100000e-07	-7.059372e-06	-1.052384e-08	-5.331726e+01	-6.906641e+02
7.200000e-07	-7.045266e-06	-1.052235e-08	-5.321072e+01	-6.902486e+02
7.300000e-07	-7.031002e-06	-1.055160e-08	-5.310299e+01	-6.898468e+02
7.400000e-07	-7.016666e-06	-1.052846e-08	-5.299471e+01	-6.894594e+02
7.500000e-07	-7.002053e-06	-1.049861e-08	-5.288434e+01	-6.890865e+02
7.600000e-07	-6.987123e-06	-1.047443e-08	-5.277158e+01	-6.887276e+02
7.700000e-07	-6.972054e-06	-1.050100e-08	-5.265777e+01	-6.883815e+02
7.800000e-07	-6.956785e-06	-1.050854e-08	-5.254245e+01	-6.880462e+02
7.900000e-07	-6.941126e-06	-1.048632e-08	-5.242418e+01	-6.877194e+02
8.000000e-07	-6.925228e-06	-1.047429e-08	-5.230411e+01	-6.873979e+02
8.100000e-07	-6.909284e-06	-1.047042e-08	-5.218369e+01	-6.870782e+02
8.200000e-07	-6.892946e-06	-1.049788e-08	-5.206029e+01	-6.867565e+02
8.300000e-07	-6.876257e-06	-1.048478e-08	-5.193424e+01	-6.864290e+02
8.400000e-07	-6.859463e-06	-1.046551e-08	-5.180741e+01	-6.860915e+02
8.500000e-07	-6.842438e-06	-1.045146e-08	-5.167882e+01	-6.857404e+02
8.600000e-07	-6.825213e-06	-1.045344e-08	-5.154873e+01	-6.853719e+02
8.700000e-07	-6.807942e-06	-1.046410e-08	-5.141828e+01	-6.849831e+02
8.800000e-07	-6.790367e-06	-1.044039e-08	-5.128554e+01	-6.845712e+02
8.900000e-07	-6.772516e-06	-1.043404e-08	-5.115073e+01	-6.841342e+02
9.000000e-07	-6.754725e-06	-1.042656e-08	-5.101635e+01	-6.836707e+02
9.100000e-07	-6.736867e-06	-1.043192e-08	-5.088147e+01	-6.831797e+02
9.200000e-07	-6.718789e-06	-1.041743e-08	-5.074494e+01	-6.826611e+02
9.300000e-07	-6.700460e-06	-1.038426e-08	-5.060650e+01	-6.821151e+02
9.400000e-07	-6.681959e-06	-1.037256e-08	-5.046678e+01	-6.815426e+02
9.500000e-07	-6.663345e-06	-1.036349e-08	-5.032618e+01	-6.809446e+02
9.600000e-07	-6.644616e-06	-1.036996e-08	-5.018473e+01	-6.803225e+02
9.700000e-07	-6.625759e-06	-1.035057e-08	-5.004231e+01	-6.796779e+02
9.800000e-07	-6.606705e-06	-1.033603e-08	-4.989840e+01	-6.790123e+02
9.900000e-07	-6.587517e-06	-1.033041e-08	-4.975348e+01	-6.783271e+02
1.000000e-06	-6.568107e-06	-1.032321e-08	-4.960688e+01	-6.776234e+02
1.010000e-06	-6.548297e-06	-1.032034e-08	-4.945726e+01	-6.769023e+02
1.020000e-06	-6.528243e-06	-1.029404e-08	-4.930580e+01	-6.761644e+02
1.030000e-06	-6.508217e-06	-1.028225e-08	-4.915455e+01	-6.754099e+02
1.040000e-06	-6.488164e-06	-1.026801e-08	-4.900310e+01	-6.746389e+02
1.050000e-06	-6.467892e-06	-1.025460e-08	-4.884999e+01	-6.738509e+02
1.060000e-06	-6.447488e-06	-1.023468e-08	-4.869588e+01	-6.730453e+02
1.070000e-06	-6.427036e-06	-1.020943e-08	-4.854142e+01	-6.722214e+02
1.080000e-06	-6.406543e-06	-1.020188e-08	-4.838664e+01	-6.713782e+02
1.090000e-06	-6.386011e-06	-1.018713e-08	-4.823157e+01	-6.705149e+02
1.100000e-06	-6.365302e-06	-1.017811e-08	-4.807516e+01	-6.696308e+02
1.110000e-06	-6.344362e-06	-1.015768e-08	-4.791701e+01	-6.687253e+02
1.120000e-06	-6.323331e-06	-1.014067e-08	-4.775816e+01	-6.677982e+02
1.130000e-06	-6.302250e-06	-1.012982e-08	-4.759895e+01	-6.668497e+02
1.140000e-06	-6.280983e-06	-1.011289e-08	-4.743833e+01	-6.658803e+02
1.150000e-06	-6.259442e-06	-1.009950e-08	-4.727563e+01	-6.648911e+02
1.160000e-06	-6.237751e-06	-1.007734e-08	-4.711181e+01	-6.638834e+02
1.170000e-06	-6.215961e-06	-1.006637e-08	-4.694723e+01	-6.628593e+02
1.180000e-06	-6.193905e-06	-1.005084e-08	-4.678065e+01	-6.618210e+02
1.190000e-06	-6.171666e-06	-1.003425e-08	-4.661268e+01	-6.607709e+02
1.200000e-06	-6.149376e-06	-1.001650e-08	-4.644434e+01	-6.597119e+02
1.210000e-06	-6.126938e-06	-9.991679e-09	-4.627487e+01	-6.586468e+02
1.220000e-06	-6.104291e-06	-9.981384e-09	-4.610383e+01	-6.575784e+02
1.230000e-06	-6.081591e-06	-9.962403e-09	-4.593238e+01	-6.565093e+02
1.240000e-06	-6.058780e-06	-9.946512e-09	-4.576010e+01	-6.554420e+02
1.250000e-06	-6.035787e-06	-9.925674e-09	-4.558644e+01	-6.543786e+02
1.260000e-06	-6.012665e-06	-9.903519e-09	-4.541180e+01	-6.533207e+02
1.270000e-06	-5.989325e-06	-9.887897e-09	-4.523552e+01	-6.522696e+02
1.280000e-06	-5.965832e-06	-9.867249e-09	-4.505808e+01	-6.512261e+02
1.290000e-06	-5.942158e-06	-9.859298e-09	-4.487928e+01	-6.501903e+02
1.300000e-06	-5.918353e-06	-9.848834e-09	-4.469949e+01	-6.491621e+02
1.310000e-06	-5.894511e-06	-9.844924e-09	-4.451942e+01	-6.481407e+02
1.320000e-06	-5.870495e-06	-9.837774e-09	-4.433803e+01	-6.471252e+02
1.330000e-06	-5.846262e-06	-9.823161e-09	-4.415501e+01	-6.461143e+02
1.340000e-06	-5.821858e-06	-9.806220e-09	-4.397070e+01	-6.451065e+02
1.350000e-06	-5.797243e-06	-9.773209e-09	-4.378479e+01	-6.441002e+02
1.360000e-06	-5.772526e-06	-9.746004e-09	-4.359810e+01	-6.430939e+02
1.370000e-06	-5.747876e-06	-9.724751e-09	-4.341193e+01	-6.420861e+02
1.380000e-06	-5.723233e-06	-9.718701e-09	-4.322581e+01	-6.410756e+02
1.390000e-06	-5.698435e-06	-9.714844e-09	-4.303852e+01	-6.400613e+02
1.400000e-06	-5.673385e-06	-9.704630e-09	-4.284932e+01	-6.390425e+02
1.410000e-06	-5.648203e-06	-9.693203e-09	-4.265913e+01	-6.380186e+02
1.420000e-06	-5.622899e-06	-9.668484e-09	-4.246802e+01	-6.369895e+02
1.430000e-06	-5.597375e-06	-9.645256e-09	-4.227524e+01	-6.359552e+02
1.440000e-06	-5.571704e-06	-9.619520e-09	-4.208136e+01	-6.349160e+02
1.450000e-06	-5.545854e-06	-9.604472e-09	-4.188612e+01	-6.338721e+02
1.460000e-06	-5.519638e-06	-9.595184e-09	-4.168812e+01	-6.328239e+02
1.470000e-06	-5.493107e-06	-9.589908e-09	-4.148774e+01	-6.317719e+02
1.480000e-06	-5.466289e-06	-9.587920e-09	-4.128519e+01	-6.307162e+02
1.490000e-06	-5.439296e-06	-9.570648e-09	-4.108132e+01	-6.296567e+02
1.500000e-06	-5.412229e-06	-9.549543e-09	-4.087689e+01	-6.285931e+02
1.510000e-06	-5.384962e-06	-9.522101e-09	-4.067095e+01	-6.275247e+02
1.520000e-06	-5.357458e-06	-9.499066e-09	-4.046322e+01	-6.264504e+02
1.530000e-06	-5.329646e-06	-9.478665e-09	-4.025317e+01	-6.253688e+02
1.540000e-06	-5.301573e-06	-9.460401e-09	-4.004114e+01	-6.242778e+02
1.550000e-06	-5.273439e-06	-9.448256e-09	-3.982866e+01	-6.231752e+02
1.560000e-06	-5.245269e-06	-9.432899e-09	-3.961589e+01	-6.220584e+02
1.570000e-06	-5.216984e-06	-9.417970e-09	-3.940227e+01	-6.209245e+02
1.580000e-06	-5.188567e-06	-9.394518e-09	-3.918765e+01	-6.197705e+02
1.590000e-06	-5.160051e-06	-9.374749e-09	-3.897227e+01	-6.185934e+02
1.600000e-06	-5.131477e-06	-9.359632e-09	-3.875646e+01	-6.173902e+02
1.610000e-06	-5.102872e-06	-9.339092e-09	-3.854042e+01	-6.161580e+02
1.620000e-06	-5.074224e-06	-9.316434e-09	-3.832405e+01	-6.148946e+02
1.630000e-06	-5.045520e-06	-9.292847e-09	-3.810726e+01	-6.135976e+02
1.640000e-06	-5.016711e-06	-9.277579e-09	-3.788967e+01	-6.122654e+02
1.650000e-06	-4.987744e-06	-9.257480e-09	-3.767089e+01	-6.108970e+02
1.660000e-06	-4.958778e-06	-9.233358e-09	-3.745212e+01	-6.094918e+02
1.670000e-06	-4.929828e-06	-9.209387e-09	-3.723347e+01	-6.080497e+02
1.680000e-06	-4.900679e-06	-9.186122e-09	-3.701331e+01	-6.065714e+02
1.690000e-06	-4.871285e-06	-9.164769e-09	-3.679131e+01	-6.050579e+02
1.700000e-06	-4.841679e-06	-9.134829e-09	-3.656771e+01	-6.035107e+02
1.710000e-06	-4.811851e-06	-9.104662e-09	-3.634242e+01	-6.019317e+02
1.720000e-06	-4.781891e-06	-9.075622e-09	-3.611614e+01	-6.003231e+02
1.730000e-06	-4.751843e-06	-9.051575e-09	-3.588920e+01	-5.986874e+02
1.740000e-06	-4.721844e-06	-9.027082e-09	-3.566263e+01	-5.970269e+02
1.750000e-06	-4.691739e-06	-9.003480e-09	-3.543526e+01	-5.953441e+02
1.760000e-06	-4.661268e-06	-8.979961e-09	-3.520512e+01	-5.936414e+02
1.770000e-06	-4.630798e-06	-8.950000e-09	-3.497499e+01	-5.919210e+02
1.780000e-06	-4.600483e-06	-8.927610e-09	-3.474602e+01	-5.901848e+02
1.790000e-06	-4.570112e-06	-8.902205e-09	-3.451665e+01	-5.884345e+02
1.800000e-06	-4.539575e-06	-8.876789e-09	-3.428601e+01	-5.866714e+02
1.810000e-06	-4.508757e-06	-8.849236e-09	-3.405325e+01	-5.848966e+02
1.820000e-06	-4.477725e-06	-8.815112e-09	-3.381888e+01	-5.831110e+02
1.830000e-06	-4.446684e-06	-8.785949e-09	-3.358443e+01	-5.813151e+02
1.840000e-06	-4.415716e-06	-8.755017e-09	-3.335054e+01	-5.795092e+02
1.850000e-06	-4.384668e-06	-8.725139e-09	-3.311604e+01	-5.776936e+02
1.860000e-06	-4.353364e-06	-8.689873e-09	-3.287962e+01	-5.758684e+02
1.870000e-06	-4.321995e-06	-8.661397e-09	-3.264270e+01	-5.740338e+02
1.880000e-06	-4.290538e-06	-8.644599e-09	-3.240511e+01	-5.721900e+02
1.890000e-06	-4.258896e-06	-8.625853e-09	-3.216613e+01	-5.703372e+02
1.900000e-06	-4.227079e-06	-8.608121e-09	-3.192582e+01	-5.684759e+02
1.910000e-06	-4.195079e-06	-8.579137e-09	-3.168413e+01	-5.666067e+02
1.920000e-06	-4.163120e-06	-8.545245e-09	-3.144276e+01	-5.647303e+02
1.930000e-06	-4.131158e-06	-8.508088e-09	-3.120136e+01	-5.628477e+02
1.940000e-06	-4.099115e-06	-8.472593e-09	-3.095935e+01	-5.609598e+02
1.950000e-06	-4.066997e-06	-8.442053e-09	-3.071677e+01	-5.590677e+02
1.960000e-06	-4.034738e-06	-8.416881e-09	-3.047313e+01	-5.571727e+02
1.970000e-06	-4.002328e-06	-8.403583e-09	-3.022835e+01	-5.552757e+02
1.980000e-06	-3.969805e-06	-8.389278e-09	-2.998271e+01	-5.533777e+02
1.990000e-06	-3.937216e-06	-8.363615e-09	-2.973657e+01	-5.514796e+02
2.000000e-06	-3.904634e-06	-8.327826e-09	-2.949050e+01	-5.495819e+02
2.010000e-06	-3.872011e-06	-8.292959e-09	-2.924410e+01	-5.476849e+02
2.020000e-06	-3.839245e-06	-8.256945e-09	-2.899663e+01	-5.457884e+02
2.030000e-06	-3.806431e-06	-8.219257e-09	-2.874880e+01	-5.438920e+02
2.040000e-06	-3.773645e-06	-8.183345e-09	-2.850117e+01	-5.419947e+02
2.050000e-06	-3.740712e-06	-8.152348e-09	-2.825245e+01	-5.400955e+02
2.060000e-06	-3.707618e-06	-8.136173e-09	-2.800249e+01	-5.381925e+02
2.070000e-06	-3.674502e-06	-8.119964e-09	-2.775238e+01	-5.362839e+02
2.080000e-06	-3.641309e-06	-8.101550e-09	-2.750169e+01	-5.343674e+02
2.090000e-06	-3.608040e-06	-8.075799e-09	-2.725041e+01	-5.324406e+02
2.100000e-06	-3.574592e-06	-8.041930e-09	-2.699779e+01	-5.305008e+02
2.110000e-06	-3.540867e-06	-8.003277e-09	-2.674307e+01	-5.285454e+02
2.120000e-06	-3.506893e-06	-7.958650e-09	-2.648648e+01	-5.265717e+02
2.130000e-06	-3.472801e-06	-7.925989e-09	-2.622899e+01	-5.245772e+02
2.140000e-06	-3.438777e-06	-7.896592e-09	-2.597202e+01	-5.225593e+02
2.150000e-06	-3.404755e-06	-7.874247e-09	-2.571506e+01	-5.205158e+02
2.160000e-06	-3.370552e-06	-7.849902e-09	-2.545674e+01	-5.184447e+02
2.170000e-06	-3.335954e-06	-7.822642e-09	-2.519543e+01	-5.163442e+02
2.180000e-06	-3.301178e-06	-7.796371e-09	-2.493278e+01	-5.142128e+02
2.190000e-06	-3.266495e-06	-7.760825e-09	-2.467082e+01	-5.120492e+02
2.200000e-06	-3.231688e-06	-7.722603e-09	-2.440794e+01	-5.098523e+02
2.210000e-06	-3.196665e-06	-7.683485e-09	-2.414343e+01	-5.076213e+02
2.220000e-06	-3.161493e-06	-7.649572e-09	-2.387778e+01	-5.053555e+02
2.230000e-06	-3.126288e-06	-7.615670e-09	-2.361189e+01	-5.030542e+02
2.240000e-06	-3.090986e-06	-7.578653e-09	-2.334526e+01	-5.007170e+02
2.250000e-06	-3.055567e-06	-7.545580e-09	-2.307775e+01	-4.983432e+02
2.260000e-06	-3.019869e-06	-7.511819e-09	-2.280814e+01	-4.959323e+02
2.270000e-06	-2.983870e-06	-7.475052e-09	-2.253625e+01	-4.934837e+02
2.280000e-06	-2.947911e-06	-7.434014e-09	-2.226466e+01	-4.909967e+02
2.290000e-06	-2.911929e-06	-7.393410e-09	-2.199290e+01	-4.884703e+02
2.300000e-06	-2.875860e-06	-7.355118e-09	-2.172048e+01	-4.859037e+02
2.310000e-06	-2.839816e-06	-7.312213e-09	-2.144825e+01	-4.832960e+02
2.320000e-06	-2.803776e-06	-7.263494e-09	-2.117605e+01	-4.806460e+02
2.330000e-06	-2.767578e-06	-7.214889e-09	-2.090266e+01	-4.779528e+02
2.340000e-06	-2.731287e-06	-7.172501e-09	-2.062857e+01	-4.752154e+02
2.350000e-06	-2.695005e-06	-7.128533e-09	-2.035454e+01	-4.724329e+02
2.360000e-06	-2.658708e-06	-7.083404e-09	-2.008040e+01	-4.696046e+02
2.370000e-06	-2.622395e-06	-7.040704e-09	-1.980614e+01	-4.667301e+02
2.380000e-06	-2.586039e-06	-6.998680e-09	-1.953155e+01	-4.638092e+02
2.390000e-06	-2.549660e-06	-6.951591e-09	-1.925679e+01	-4.608418e+02
2.400000e-06	-2.513211e-06	-6.897647e-09	-1.898151e+01	-4.578284e+02
2.410000e-06	-2.476704e-06	-6.845495e-09	-1.870578e+01	-4.547697e+02
2.420000e-06	-2.440176e-06	-6.793165e-09	-1.842990e+01	-4.516669e+02
2.430000e-06	-2.403583e-06	-6.743440e-09	-1.815352e+01	-4.485212e+02
2.440000e-06	-2.366972e-06	-6.694222e-09	-1.787701e+01	-4.453343e+02
2.450000e-06	-2.330407e-06	-6.642199e-09	-1.760084e+01	-4.421081e+02
2.460000e-06	-2.293855e-06	-6.589878e-09	-1.732478e+01	-4.388446e+02
2.470000e-06	-2.257204e-06	-6.535791e-09	-1.704797e+01	-4.355461e+02
2.480000e-06	-2.220475e-06	-6.481753e-09	-1.677056e+01	-4.322148e+02
2.490000e-06	-2.183696e-06	-6.426165e-09	-1.649278e+01	-4.288527e+02
2.500000e-06	-2.146809e-06	-6.372077e-09	-1.621418e+01	-4.254621e+02
2.510000e-06	-2.109984e-06	-6.318715e-09	-1.593606e+01	-4.220449e+02
2.520000e-06	-2.073159e-06	-6.263462e-09	-1.565793e+01	-4.186028e+02
2.530000e-06	-2.036178e-06	-6.210527e-09	-1.537862e+01	-4.151373e+02
2.540000e-06	-1.999163e-06	-6.158564e-09	-1.509906e+01	-4.116497e+02
2.550000e-06	-1.962190e-06	-6.108970e-09	-1.481982e+01	-4.081410e+02
2.560000e-06	-1.925175e-06	-6.060547e-09	-1.454025e+01	-4.046117e+02
2.570000e-06	-1.888079e-06	-6.008624e-09	-1.426008e+01	-4.010623e+02
2.580000e-06	-1.850860e-06	-5.949855e-09	-1.397897e+01	-3.974931e+02
2.590000e-06	-1.813640e-06	-5.887555e-09	-1.369786e+01	-3.939038e+02
2.600000e-06	-1.776512e-06	-5.825883e-09	-1.341745e+01	-3.902945e+02
2.610000e-06	-1.739335e-06	-5.768646e-09	-1.313666e+01	-3.866646e+02
2.620000e-06	-1.701977e-06	-5.714311e-09	-1.285451e+01	-3.830138e+02
2.630000e-06	-1.664537e-06	-5.658237e-09	-1.257173e+01	-3.793416e+02
2.640000e-06	-1.627123e-06	-5.603741e-09	-1.228916e+01	-3.756475e+02
2.650000e-06	-1.589628e-06	-5.549541e-09	-1.200597e+01	-3.719310e+02
2.660000e-06	-1.552108e-06	-5.491710e-09	-1.172259e+01	-3.681915e+02
2.670000e-06	-1.514561e-06	-5.430428e-09	-1.143901e+01	-3.644285e+02
2.680000e-06	-1.476917e-06	-5.368663e-09	-1.115470e+01	-3.606414e+02
2.690000e-06	-1.439258e-06	-5.308358e-09	-1.087027e+01	-3.568295e+02
2.700000e-06	-1.401619e-06	-5.245370e-09	-1.058600e+01	-3.529923e+02
2.710000e-06	-1.363887e-06	-5.181377e-09	-1.030102e+01	-3.491289e+02
2.720000e-06	-1.326052e-06	-5.122805e-09	-1.001526e+01	-3.452382e+02
2.730000e-06	-1.288154e-06	-5.064257e-09	-9.729026e+00	-3.413190e+02
2.740000e-06	-1.250255e-06	-5.008532e-09	-9.442787e+00	-3.373699e+02
2.750000e-06	-1.212308e-06	-4.948690e-09	-9.156189e+00	-3.333892e+02
2.760000e-06	-1.174303e-06	-4.884206e-09	-8.869144e+00	-3.293747e+02
2.770000e-06	-1.136263e-06	-4.817432e-09	-8.581846e+00	-3.253241e+02
2.780000e-06	-1.098163e-06	-4.741064e-09	-8.294090e+00	-3.212348e+02
2.790000e-06	-1.060039e-06	-4.667787e-09	-8.006147e+00	-3.171036e+02
2.800000e-06	-1.021965e-06	-4.597700e-09	-7.718589e+00	-3.129275e+02
2.810000e-06	-9.839708e-07	-4.537248e-09	-7.431628e+00	-3.087030e+02
2.820000e-06	-9.459097e-07	-4.485113e-09	-7.144164e+00	-3.044264e+02
2.830000e-06	-9.077400e-07	-4.429055e-09	-6.855880e+00	-3.000942e+02
2.840000e-06	-8.695171e-07	-4.369884e-09	-6.567194e+00	-2.957028e+02
