# Temperatura_=_20.0
# Concentracion g/m^3_=_10000.0
# C_Vs_to_Am_M_A/Vsm_=_65563218390.804596
# pendiente_HvsI_1/m_=_3716.3
# ordenada_HvsI_A/m_=_1297.0
# frecuencia_Hz_=_81232.29830752932

Tiempo_(s)	Campo_(V.s)	Magnetizacion_(V.s)	Campo_(kA/m)	Magnetizacion_(A/m)
0.000000e+00	-7.594668e-06	-1.092984e-08	-5.696506e+01	-7.122467e+02
1.000000e-08	-7.594699e-06	-1.093020e-08	-5.696529e+01	-7.122257e+02
2.000000e-08	-7.594624e-06	-1.093955e-08	-5.696473e+01	-7.122204e+02
3.000000e-08	-7.594310e-06	-1.095234e-08	-5.696237e+01	-7.122320e+02
4.000000e-08	-7.593864e-06	-1.095380e-08	-5.695903e+01	-7.122613e+02
5.000000e-08	-7.593379e-06	-1.092497e-08	-5.695539e+01	-7.123087e+02
6.000000e-08	-7.592806e-06	-1.083233e-08	-5.695109e+01	-7.123742e+02
7.000000e-08	-7.592146e-06	-1.077006e-08	-5.694614e+01	-7.124572e+02
8.000000e-08	-7.591348e-06	-1.071530e-08	-5.694016e+01	-7.125568e+02
9.000000e-08	-7.590188e-06	-1.090944e-08	-5.693146e+01	-7.126719e+02
1.000000e-07	-7.588630e-06	-1.123812e-08	-5.691977e+01	-7.128007e+02
1.100000e-07	-7.586838e-06	-1.119874e-08	-5.690633e+01	-7.129412e+02
1.200000e-07	-7.584886e-06	-1.096179e-08	-5.689169e+01	-7.130913e+02
1.300000e-07	-7.582723e-06	-1.105003e-08	-5.687547e+01	-7.132484e+02
1.400000e-07	-7.580386e-06	-1.112146e-08	-5.685794e+01	-7.134100e+02
1.500000e-07	-7.577861e-06	-1.094227e-08	-5.683900e+01	-7.135732e+02
1.600000e-07	-7.574936e-06	-1.079153e-08	-5.681706e+01	-7.137351e+02
1.700000e-07	-7.571669e-06	-1.074866e-08	-5.679255e+01	-7.138929e+02
1.800000e-07	-7.568013e-06	-1.075190e-08	-5.676513e+01	-7.140436e+02
1.900000e-07	-7.564059e-06	-1.070856e-08	-5.673547e+01	-7.141844e+02
2.000000e-07	-7.559984e-06	-1.086577e-08	-5.670490e+01	-7.143123e+02
2.100000e-07	-7.555720e-06	-1.095410e-08	-5.667293e+01	-7.144246e+02
2.200000e-07	-7.551290e-06	-1.084811e-08	-5.663970e+01	-7.145186e+02
2.300000e-07	-7.546783e-06	-1.096128e-08	-5.660589e+01	-7.145919e+02
2.400000e-07	-7.542193e-06	-1.111733e-08	-5.657146e+01	-7.146420e+02
2.500000e-07	-7.537456e-06	-1.104972e-08	-5.653593e+01	-7.146668e+02
2.600000e-07	-7.532607e-06	-1.084720e-08	-5.649956e+01	-7.146643e+02
2.700000e-07	-7.527665e-06	-1.094328e-08	-5.646249e+01	-7.146327e+02
2.800000e-07	-7.522610e-06	-1.111676e-08	-5.642457e+01	-7.145705e+02
2.900000e-07	-7.517435e-06	-1.083662e-08	-5.638576e+01	-7.144765e+02
3.000000e-07	-7.511959e-06	-1.076403e-08	-5.634469e+01	-7.143498e+02
3.100000e-07	-7.506195e-06	-1.089032e-08	-5.630145e+01	-7.141897e+02
3.200000e-07	-7.500344e-06	-1.087537e-08	-5.625757e+01	-7.139961e+02
3.300000e-07	-7.494245e-06	-1.092783e-08	-5.621182e+01	-7.137691e+02
3.400000e-07	-7.487879e-06	-1.104366e-08	-5.616407e+01	-7.135092e+02
3.500000e-07	-7.481231e-06	-1.088349e-08	-5.611421e+01	-7.132174e+02
3.600000e-07	-7.474478e-06	-1.070591e-08	-5.606355e+01	-7.128949e+02
3.700000e-07	-7.467773e-06	-1.094713e-08	-5.601326e+01	-7.125434e+02
3.800000e-07	-7.460881e-06	-1.098018e-08	-5.596157e+01	-7.121651e+02
3.900000e-07	-7.453634e-06	-1.074754e-08	-5.590721e+01	-7.117622e+02
4.000000e-07	-7.446002e-06	-1.074479e-08	-5.584997e+01	-7.113373e+02
4.100000e-07	-7.438281e-06	-1.090064e-08	-5.579206e+01	-7.108933e+02
4.200000e-07	-7.430452e-06	-1.091989e-08	-5.573333e+01	-7.104332e+02
4.300000e-07	-7.422423e-06	-1.082348e-08	-5.567310e+01	-7.099601e+02
4.400000e-07	-7.414230e-06	-1.081189e-08	-5.561166e+01	-7.094768e+02
4.500000e-07	-7.405802e-06	-1.074948e-08	-5.554844e+01	-7.089865e+02
4.600000e-07	-7.397323e-06	-1.080276e-08	-5.548484e+01	-7.084919e+02
4.700000e-07	-7.388791e-06	-1.086470e-08	-5.542084e+01	-7.079957e+02
4.800000e-07	-7.379993e-06	-1.072964e-08	-5.535486e+01	-7.075000e+02
4.900000e-07	-7.371032e-06	-1.068514e-08	-5.528764e+01	-7.070069e+02
5.000000e-07	-7.361946e-06	-1.075419e-08	-5.521949e+01	-7.065178e+02
5.100000e-07	-7.352677e-06	-1.080940e-08	-5.514996e+01	-7.060341e+02
5.200000e-07	-7.343121e-06	-1.075114e-08	-5.507829e+01	-7.055563e+02
5.300000e-07	-7.333127e-06	-1.070374e-08	-5.500333e+01	-7.050850e+02
5.400000e-07	-7.322776e-06	-1.070389e-08	-5.492569e+01	-7.046200e+02
5.500000e-07	-7.312256e-06	-1.074439e-08	-5.484678e+01	-7.041611e+02
5.600000e-07	-7.301425e-06	-1.079083e-08	-5.476555e+01	-7.037076e+02
5.700000e-07	-7.290203e-06	-1.068693e-08	-5.468137e+01	-7.032587e+02
5.800000e-07	-7.278848e-06	-1.065149e-08	-5.459620e+01	-7.028136e+02
5.900000e-07	-7.267255e-06	-1.070633e-08	-5.450925e+01	-7.023711e+02
6.000000e-07	-7.255343e-06	-1.073253e-08	-5.441990e+01	-7.019303e+02
6.100000e-07	-7.243150e-06	-1.070114e-08	-5.432844e+01	-7.014904e+02
6.200000e-07	-7.230801e-06	-1.064674e-08	-5.423582e+01	-7.010504e+02
6.300000e-07	-7.218469e-06	-1.065875e-08	-5.414331e+01	-7.006100e+02
6.400000e-07	-7.205959e-06	-1.068222e-08	-5.404949e+01	-7.001686e+02
6.500000e-07	-7.193153e-06	-1.070425e-08	-5.395343e+01	-6.997263e+02
6.600000e-07	-7.180116e-06	-1.064255e-08	-5.385565e+01	-6.992832e+02
6.700000e-07	-7.166834e-06	-1.059985e-08	-5.375602e+01	-6.988396e+02
6.800000e-07	-7.153363e-06	-1.064708e-08	-5.365498e+01	-6.983961e+02
6.900000e-07	-7.139766e-06	-1.066529e-08	-5.355299e+01	-6.979535e+02
7.000000e-07	-7.125973e-06	-1.064050e-08	-5.344954e+01	-6.975126e+02
7.100000e-07	-7.111889e-06	-1.058656e-08	-5.334390e+01	-6.970742e+02
7.200000e-07	-7.097584e-06	-1.061068e-08	-5.323660e+01	-6.966392e+02
7.300000e-07	-7.083155e-06	-1.064464e-08	-5.312837e+01	-6.962081e+02
7.400000e-07	-7.068504e-06	-1.063157e-08	-5.301848e+01	-6.957816e+02
7.500000e-07	-7.053721e-06	-1.059063e-08	-5.290760e+01	-6.953600e+02
7.600000e-07	-7.038809e-06	-1.056033e-08	-5.279575e+01	-6.949431e+02
7.700000e-07	-7.023530e-06	-1.059722e-08	-5.268115e+01	-6.945306e+02
7.800000e-07	-7.007775e-06	-1.059544e-08	-5.256297e+01	-6.941219e+02
7.900000e-07	-6.991798e-06	-1.057535e-08	-5.244314e+01	-6.937160e+02
8.000000e-07	-6.975805e-06	-1.054284e-08	-5.232318e+01	-6.933115e+02
8.100000e-07	-6.959516e-06	-1.054276e-08	-5.220099e+01	-6.929069e+02
8.200000e-07	-6.943075e-06	-1.057763e-08	-5.207768e+01	-6.925001e+02
8.300000e-07	-6.926403e-06	-1.056298e-08	-5.195263e+01	-6.920893e+02
8.400000e-07	-6.909427e-06	-1.054171e-08	-5.182529e+01	-6.916722e+02
8.500000e-07	-6.892212e-06	-1.051666e-08	-5.169617e+01	-6.912466e+02
8.600000e-07	-6.874843e-06	-1.053799e-08	-5.156590e+01	-6.908106e+02
8.700000e-07	-6.857466e-06	-1.054586e-08	-5.143556e+01	-6.903620e+02
8.800000e-07	-6.839841e-06	-1.051119e-08	-5.130335e+01	-6.898990e+02
8.900000e-07	-6.821998e-06	-1.049196e-08	-5.116952e+01	-6.894201e+02
9.000000e-07	-6.804030e-06	-1.048606e-08	-5.103475e+01	-6.889240e+02
9.100000e-07	-6.786048e-06	-1.050471e-08	-5.089987e+01	-6.884099e+02
9.200000e-07	-6.767950e-06	-1.048592e-08	-5.076412e+01	-6.878769e+02
9.300000e-07	-6.749639e-06	-1.046016e-08	-5.062678e+01	-6.873250e+02
9.400000e-07	-6.731208e-06	-1.044593e-08	-5.048854e+01	-6.867541e+02
9.500000e-07	-6.712462e-06	-1.044609e-08	-5.034793e+01	-6.861645e+02
9.600000e-07	-6.693542e-06	-1.045083e-08	-5.020601e+01	-6.855568e+02
9.700000e-07	-6.674677e-06	-1.041778e-08	-5.006452e+01	-6.849316e+02
9.800000e-07	-6.655662e-06	-1.040045e-08	-4.992189e+01	-6.842897e+02
9.900000e-07	-6.636302e-06	-1.038882e-08	-4.977668e+01	-6.836319e+02
1.000000e-06	-6.616608e-06	-1.039039e-08	-4.962896e+01	-6.829590e+02
1.010000e-06	-6.596731e-06	-1.038110e-08	-4.947987e+01	-6.822717e+02
1.020000e-06	-6.576645e-06	-1.035432e-08	-4.932921e+01	-6.815706e+02
1.030000e-06	-6.556495e-06	-1.035043e-08	-4.917808e+01	-6.808560e+02
1.040000e-06	-6.536310e-06	-1.034460e-08	-4.902667e+01	-6.801281e+02
1.050000e-06	-6.515999e-06	-1.033906e-08	-4.887433e+01	-6.793868e+02
1.060000e-06	-6.495577e-06	-1.030932e-08	-4.872115e+01	-6.786320e+02
1.070000e-06	-6.475064e-06	-1.028906e-08	-4.856728e+01	-6.778633e+02
1.080000e-06	-6.454432e-06	-1.028292e-08	-4.841254e+01	-6.770800e+02
1.090000e-06	-6.433720e-06	-1.026836e-08	-4.825718e+01	-6.762817e+02
1.100000e-06	-6.412948e-06	-1.025037e-08	-4.810137e+01	-6.754677e+02
1.110000e-06	-6.392007e-06	-1.022227e-08	-4.794430e+01	-6.746375e+02
1.120000e-06	-6.370865e-06	-1.022034e-08	-4.778572e+01	-6.737904e+02
1.130000e-06	-6.349669e-06	-1.022042e-08	-4.762674e+01	-6.729263e+02
1.140000e-06	-6.328281e-06	-1.021427e-08	-4.746632e+01	-6.720450e+02
1.150000e-06	-6.306597e-06	-1.019602e-08	-4.730367e+01	-6.711468e+02
1.160000e-06	-6.284851e-06	-1.017407e-08	-4.714056e+01	-6.702319e+02
1.170000e-06	-6.262862e-06	-1.016904e-08	-4.697563e+01	-6.693012e+02
1.180000e-06	-6.240768e-06	-1.015327e-08	-4.680991e+01	-6.683557e+02
1.190000e-06	-6.218623e-06	-1.013946e-08	-4.664381e+01	-6.673967e+02
1.200000e-06	-6.196133e-06	-1.011732e-08	-4.647512e+01	-6.664259e+02
1.210000e-06	-6.173391e-06	-1.009760e-08	-4.630454e+01	-6.654448e+02
1.220000e-06	-6.150552e-06	-1.009127e-08	-4.613323e+01	-6.644555e+02
1.230000e-06	-6.127716e-06	-1.007609e-08	-4.596195e+01	-6.634598e+02
1.240000e-06	-6.104751e-06	-1.006155e-08	-4.578969e+01	-6.624597e+02
1.250000e-06	-6.081588e-06	-1.004095e-08	-4.561595e+01	-6.614571e+02
1.260000e-06	-6.058224e-06	-1.002656e-08	-4.544071e+01	-6.604537e+02
1.270000e-06	-6.034609e-06	-1.001541e-08	-4.526358e+01	-6.594509e+02
1.280000e-06	-6.010960e-06	-9.993436e-09	-4.508619e+01	-6.584499e+02
1.290000e-06	-5.987088e-06	-9.973332e-09	-4.490714e+01	-6.574518e+02
1.300000e-06	-5.962980e-06	-9.960792e-09	-4.472631e+01	-6.564569e+02
1.310000e-06	-5.938737e-06	-9.965462e-09	-4.454448e+01	-6.554656e+02
1.320000e-06	-5.914392e-06	-9.967871e-09	-4.436187e+01	-6.544777e+02
1.330000e-06	-5.890126e-06	-9.958195e-09	-4.417986e+01	-6.534928e+02
1.340000e-06	-5.865647e-06	-9.939094e-09	-4.399625e+01	-6.525101e+02
1.350000e-06	-5.840976e-06	-9.910405e-09	-4.381120e+01	-6.515287e+02
1.360000e-06	-5.816312e-06	-9.887779e-09	-4.362621e+01	-6.505474e+02
1.370000e-06	-5.791500e-06	-9.865435e-09	-4.344010e+01	-6.495650e+02
1.380000e-06	-5.766610e-06	-9.852382e-09	-4.325341e+01	-6.485802e+02
1.390000e-06	-5.741670e-06	-9.843847e-09	-4.306634e+01	-6.475914e+02
1.400000e-06	-5.716527e-06	-9.837044e-09	-4.287776e+01	-6.465976e+02
1.410000e-06	-5.691237e-06	-9.830820e-09	-4.268806e+01	-6.455974e+02
1.420000e-06	-5.665667e-06	-9.808043e-09	-4.249627e+01	-6.445897e+02
1.430000e-06	-5.639806e-06	-9.781891e-09	-4.230229e+01	-6.435736e+02
1.440000e-06	-5.613608e-06	-9.755372e-09	-4.210580e+01	-6.425484e+02
1.450000e-06	-5.587091e-06	-9.744479e-09	-4.190690e+01	-6.415132e+02
1.460000e-06	-5.560347e-06	-9.734400e-09	-4.170630e+01	-6.404675e+02
1.470000e-06	-5.533482e-06	-9.721582e-09	-4.150479e+01	-6.394109e+02
1.480000e-06	-5.506593e-06	-9.714689e-09	-4.130311e+01	-6.383430e+02
1.490000e-06	-5.479397e-06	-9.703216e-09	-4.109912e+01	-6.372632e+02
1.500000e-06	-5.451916e-06	-9.686416e-09	-4.089299e+01	-6.361711e+02
1.510000e-06	-5.424336e-06	-9.652828e-09	-4.068613e+01	-6.350663e+02
1.520000e-06	-5.396617e-06	-9.624350e-09	-4.047822e+01	-6.339478e+02
1.530000e-06	-5.368617e-06	-9.604706e-09	-4.026820e+01	-6.328150e+02
1.540000e-06	-5.340473e-06	-9.591654e-09	-4.005710e+01	-6.316668e+02
1.550000e-06	-5.312302e-06	-9.576858e-09	-3.984580e+01	-6.305019e+02
1.560000e-06	-5.284038e-06	-9.557781e-09	-3.963380e+01	-6.293189e+02
1.570000e-06	-5.255650e-06	-9.546561e-09	-3.942087e+01	-6.281163e+02
1.580000e-06	-5.227168e-06	-9.530192e-09	-3.920724e+01	-6.268923e+02
1.590000e-06	-5.198639e-06	-9.510080e-09	-3.899325e+01	-6.256452e+02
1.600000e-06	-5.169977e-06	-9.487184e-09	-3.877827e+01	-6.243731e+02
1.610000e-06	-5.141279e-06	-9.466589e-09	-3.856301e+01	-6.230742e+02
1.620000e-06	-5.112594e-06	-9.449367e-09	-3.834785e+01	-6.217468e+02
1.630000e-06	-5.083806e-06	-9.428776e-09	-3.813192e+01	-6.203894e+02
1.640000e-06	-5.054887e-06	-9.409107e-09	-3.791501e+01	-6.190008e+02
1.650000e-06	-5.025841e-06	-9.387063e-09	-3.769715e+01	-6.175798e+02
1.660000e-06	-4.996712e-06	-9.368059e-09	-3.747866e+01	-6.161259e+02
1.670000e-06	-4.967415e-06	-9.347540e-09	-3.725892e+01	-6.146387e+02
1.680000e-06	-4.937898e-06	-9.319030e-09	-3.703752e+01	-6.131184e+02
1.690000e-06	-4.908220e-06	-9.286579e-09	-3.681492e+01	-6.115655e+02
1.700000e-06	-4.878442e-06	-9.252902e-09	-3.659156e+01	-6.099807e+02
1.710000e-06	-4.848590e-06	-9.224947e-09	-3.636765e+01	-6.083655e+02
1.720000e-06	-4.818688e-06	-9.196065e-09	-3.614337e+01	-6.067214e+02
1.730000e-06	-4.788604e-06	-9.169702e-09	-3.591771e+01	-6.050501e+02
1.740000e-06	-4.758365e-06	-9.145362e-09	-3.569090e+01	-6.033538e+02
1.750000e-06	-4.728086e-06	-9.124121e-09	-3.546379e+01	-6.016347e+02
1.760000e-06	-4.697681e-06	-9.105279e-09	-3.523573e+01	-5.998948e+02
1.770000e-06	-4.667161e-06	-9.080294e-09	-3.500681e+01	-5.981366e+02
1.780000e-06	-4.636554e-06	-9.054295e-09	-3.477724e+01	-5.963620e+02
1.790000e-06	-4.605842e-06	-9.023135e-09	-3.454688e+01	-5.945732e+02
1.800000e-06	-4.574942e-06	-8.987708e-09	-3.431511e+01	-5.927718e+02
1.810000e-06	-4.544032e-06	-8.949032e-09	-3.408326e+01	-5.909595e+02
1.820000e-06	-4.513086e-06	-8.911964e-09	-3.385114e+01	-5.891376e+02
1.830000e-06	-4.481997e-06	-8.884567e-09	-3.361796e+01	-5.873072e+02
1.840000e-06	-4.450843e-06	-8.862487e-09	-3.338428e+01	-5.854689e+02
1.850000e-06	-4.419571e-06	-8.844755e-09	-3.314972e+01	-5.836234e+02
1.860000e-06	-4.388234e-06	-8.824489e-09	-3.291467e+01	-5.817710e+02
1.870000e-06	-4.356750e-06	-8.799765e-09	-3.267853e+01	-5.799119e+02
1.880000e-06	-4.325077e-06	-8.770771e-09	-3.244095e+01	-5.780459e+02
1.890000e-06	-4.293255e-06	-8.737270e-09	-3.220227e+01	-5.761730e+02
1.900000e-06	-4.261360e-06	-8.704101e-09	-3.196303e+01	-5.742930e+02
1.910000e-06	-4.229367e-06	-8.671002e-09	-3.172306e+01	-5.724058e+02
1.920000e-06	-4.197198e-06	-8.640824e-09	-3.148178e+01	-5.705112e+02
1.930000e-06	-4.164996e-06	-8.611002e-09	-3.124024e+01	-5.686092e+02
1.940000e-06	-4.132686e-06	-8.590348e-09	-3.099789e+01	-5.666995e+02
1.950000e-06	-4.100201e-06	-8.576473e-09	-3.075423e+01	-5.647824e+02
1.960000e-06	-4.067663e-06	-8.555539e-09	-3.051018e+01	-5.628579e+02
1.970000e-06	-4.035161e-06	-8.524098e-09	-3.026639e+01	-5.609263e+02
1.980000e-06	-4.002623e-06	-8.486022e-09	-3.002234e+01	-5.589876e+02
1.990000e-06	-3.969908e-06	-8.448863e-09	-2.977695e+01	-5.570421e+02
2.000000e-06	-3.937178e-06	-8.414177e-09	-2.953145e+01	-5.550900e+02
2.010000e-06	-3.904449e-06	-8.382749e-09	-2.928596e+01	-5.531314e+02
2.020000e-06	-3.871606e-06	-8.355274e-09	-2.903962e+01	-5.511663e+02
2.030000e-06	-3.838657e-06	-8.335372e-09	-2.879248e+01	-5.491944e+02
2.040000e-06	-3.805566e-06	-8.312668e-09	-2.854427e+01	-5.472155e+02
2.050000e-06	-3.772255e-06	-8.280354e-09	-2.829442e+01	-5.452289e+02
2.060000e-06	-3.738855e-06	-8.245387e-09	-2.804390e+01	-5.432339e+02
2.070000e-06	-3.705393e-06	-8.209875e-09	-2.779291e+01	-5.412293e+02
2.080000e-06	-3.671742e-06	-8.180168e-09	-2.754051e+01	-5.392140e+02
2.090000e-06	-3.637987e-06	-8.151424e-09	-2.728732e+01	-5.371863e+02
2.100000e-06	-3.604185e-06	-8.119943e-09	-2.703378e+01	-5.351445e+02
2.110000e-06	-3.570224e-06	-8.087382e-09	-2.677905e+01	-5.330869e+02
2.120000e-06	-3.536175e-06	-8.056014e-09	-2.652366e+01	-5.310112e+02
2.130000e-06	-3.501986e-06	-8.029204e-09	-2.626722e+01	-5.289156e+02
2.140000e-06	-3.467502e-06	-7.993988e-09	-2.600857e+01	-5.267978e+02
2.150000e-06	-3.432890e-06	-7.958558e-09	-2.574896e+01	-5.246557e+02
2.160000e-06	-3.398207e-06	-7.925603e-09	-2.548881e+01	-5.224873e+02
2.170000e-06	-3.363291e-06	-7.895054e-09	-2.522692e+01	-5.202907e+02
2.180000e-06	-3.328358e-06	-7.866653e-09	-2.496490e+01	-5.180639e+02
2.190000e-06	-3.293274e-06	-7.835252e-09	-2.470174e+01	-5.158054e+02
2.200000e-06	-3.257861e-06	-7.802809e-09	-2.443613e+01	-5.135138e+02
2.210000e-06	-3.222424e-06	-7.763964e-09	-2.417032e+01	-5.111878e+02
2.220000e-06	-3.186869e-06	-7.723536e-09	-2.390364e+01	-5.088262e+02
2.230000e-06	-3.151202e-06	-7.680515e-09	-2.363611e+01	-5.064284e+02
2.240000e-06	-3.115485e-06	-7.636986e-09	-2.336821e+01	-5.039936e+02
2.250000e-06	-3.079690e-06	-7.599124e-09	-2.309972e+01	-5.015212e+02
2.260000e-06	-3.043823e-06	-7.560061e-09	-2.283070e+01	-4.990109e+02
2.270000e-06	-3.007868e-06	-7.522743e-09	-2.256101e+01	-4.964625e+02
2.280000e-06	-2.971842e-06	-7.483772e-09	-2.229079e+01	-4.938758e+02
2.290000e-06	-2.935702e-06	-7.441752e-09	-2.201972e+01	-4.912505e+02
2.300000e-06	-2.899587e-06	-7.399418e-09	-2.174883e+01	-4.885867e+02
2.310000e-06	-2.863425e-06	-7.352970e-09	-2.147759e+01	-4.858844e+02
2.320000e-06	-2.827150e-06	-7.306915e-09	-2.120550e+01	-4.831433e+02
2.330000e-06	-2.790894e-06	-7.257906e-09	-2.093356e+01	-4.803636e+02
2.340000e-06	-2.754610e-06	-7.208561e-09	-2.066140e+01	-4.775452e+02
2.350000e-06	-2.718265e-06	-7.161985e-09	-2.038880e+01	-4.746882e+02
2.360000e-06	-2.681832e-06	-7.117549e-09	-2.011552e+01	-4.717925e+02
2.370000e-06	-2.645339e-06	-7.075097e-09	-1.984180e+01	-4.688583e+02
2.380000e-06	-2.608804e-06	-7.029259e-09	-1.956776e+01	-4.658858e+02
2.390000e-06	-2.572260e-06	-6.980975e-09	-1.929366e+01	-4.628753e+02
2.400000e-06	-2.535678e-06	-6.934377e-09	-1.901927e+01	-4.598272e+02
2.410000e-06	-2.499140e-06	-6.890201e-09	-1.874521e+01	-4.567419e+02
2.420000e-06	-2.462496e-06	-6.838999e-09	-1.847035e+01	-4.536202e+02
2.430000e-06	-2.425696e-06	-6.779383e-09	-1.819433e+01	-4.504629e+02
2.440000e-06	-2.388900e-06	-6.723375e-09	-1.791834e+01	-4.472708e+02
2.450000e-06	-2.352107e-06	-6.670306e-09	-1.764237e+01	-4.440452e+02
2.460000e-06	-2.315309e-06	-6.618924e-09	-1.736636e+01	-4.407873e+02
2.470000e-06	-2.278448e-06	-6.568650e-09	-1.708988e+01	-4.374982e+02
2.480000e-06	-2.241480e-06	-6.520367e-09	-1.681259e+01	-4.341795e+02
2.490000e-06	-2.204426e-06	-6.477703e-09	-1.653466e+01	-4.308325e+02
2.500000e-06	-2.167382e-06	-6.433762e-09	-1.625681e+01	-4.274587e+02
2.510000e-06	-2.130379e-06	-6.376753e-09	-1.597926e+01	-4.240594e+02
2.520000e-06	-2.093337e-06	-6.312748e-09	-1.570142e+01	-4.206359e+02
2.530000e-06	-2.056189e-06	-6.254071e-09	-1.542279e+01	-4.171895e+02
2.540000e-06	-2.019051e-06	-6.198867e-09	-1.514423e+01	-4.137211e+02
2.550000e-06	-1.981749e-06	-6.143557e-09	-1.486443e+01	-4.102318e+02
2.560000e-06	-1.944261e-06	-6.091125e-09	-1.458325e+01	-4.067223e+02
2.570000e-06	-1.906860e-06	-6.044301e-09	-1.430272e+01	-4.031930e+02
2.580000e-06	-1.869504e-06	-5.999067e-09	-1.402253e+01	-3.996442e+02
2.590000e-06	-1.832031e-06	-5.945910e-09	-1.374145e+01	-3.960761e+02
2.600000e-06	-1.794472e-06	-5.881050e-09	-1.345974e+01	-3.924886e+02
2.610000e-06	-1.756955e-06	-5.817635e-09	-1.317833e+01	-3.888813e+02
2.620000e-06	-1.719357e-06	-5.759484e-09	-1.289632e+01	-3.852537e+02
2.630000e-06	-1.681578e-06	-5.698112e-09	-1.261296e+01	-3.816052e+02
2.640000e-06	-1.643803e-06	-5.637232e-09	-1.232961e+01	-3.779349e+02
2.650000e-06	-1.606091e-06	-5.581222e-09	-1.204675e+01	-3.742419e+02
2.660000e-06	-1.568284e-06	-5.527865e-09	-1.176317e+01	-3.705249e+02
2.670000e-06	-1.530379e-06	-5.476211e-09	-1.147886e+01	-3.667828e+02
2.680000e-06	-1.492463e-06	-5.419365e-09	-1.119447e+01	-3.630142e+02
2.690000e-06	-1.454569e-06	-5.356586e-09	-1.091023e+01	-3.592175e+02
2.700000e-06	-1.416560e-06	-5.293644e-09	-1.062514e+01	-3.553911e+02
2.710000e-06	-1.378523e-06	-5.227184e-09	-1.033984e+01	-3.515333e+02
2.720000e-06	-1.340464e-06	-5.162333e-09	-1.005437e+01	-3.476421e+02
2.730000e-06	-1.302309e-06	-5.096798e-09	-9.768183e+00	-3.437157e+02
2.740000e-06	-1.264193e-06	-5.039245e-09	-9.482286e+00	-3.397517e+02
2.750000e-06	-1.226055e-06	-4.987986e-09	-9.196228e+00	-3.357479e+02
2.760000e-06	-1.187944e-06	-4.930385e-09	-8.910372e+00	-3.317019e+02
2.770000e-06	-1.149807e-06	-4.867970e-09	-8.624317e+00	-3.276111e+02
2.780000e-06	-1.111530e-06	-4.789388e-09	-8.337210e+00	-3.234728e+02
2.790000e-06	-1.073272e-06	-4.713977e-09	-8.050253e+00	-3.192842e+02
2.800000e-06	-1.035002e-06	-4.637316e-09	-7.763203e+00	-3.150425e+02
2.810000e-06	-9.966143e-07	-4.568111e-09	-7.475270e+00	-3.107447e+02
2.820000e-06	-9.581581e-07	-4.516049e-09	-7.186823e+00	-3.063880e+02
2.830000e-06	-9.196666e-07	-4.458348e-09	-6.898111e+00	-3.019696e+02
2.840000e-06	-8.811492e-07	-4.402772e-09	-6.609205e+00	-2.974867e+02
