# Temperatura_=_20.0
# Concentracion g/m^3_=_10000.0
# C_Vs_to_Am_M_A/Vsm_=_65563218390.804596
# pendiente_HvsI_1/m_=_3716.3
# ordenada_HvsI_A/m_=_1297.0
# frecuencia_Hz_=_81228.77571171023

Tiempo_(s)	Campo_(V.s)	Magnetizacion_(V.s)	Campo_(kA/m)	Magnetizacion_(A/m)
0.000000e+00	-7.572834e-06	-1.090443e-08	-5.694705e+01	-7.113237e+02
1.000000e-08	-7.572808e-06	-1.090578e-08	-5.694686e+01	-7.113416e+02
2.000000e-08	-7.572688e-06	-1.091578e-08	-5.694596e+01	-7.113592e+02
3.000000e-08	-7.572436e-06	-1.092368e-08	-5.694406e+01	-7.113740e+02
4.000000e-08	-7.572045e-06	-1.091079e-08	-5.694112e+01	-7.113830e+02
5.000000e-08	-7.571578e-06	-1.084824e-08	-5.693761e+01	-7.113838e+02
6.000000e-08	-7.570975e-06	-1.074493e-08	-5.693308e+01	-7.113738e+02
7.000000e-08	-7.570222e-06	-1.075999e-08	-5.692741e+01	-7.113514e+02
8.000000e-08	-7.569272e-06	-1.075768e-08	-5.692027e+01	-7.113150e+02
9.000000e-08	-7.568163e-06	-1.087322e-08	-5.691193e+01	-7.112639e+02
1.000000e-07	-7.566827e-06	-1.110690e-08	-5.690188e+01	-7.111982e+02
1.100000e-07	-7.565226e-06	-1.126152e-08	-5.688984e+01	-7.111186e+02
1.200000e-07	-7.563497e-06	-1.116495e-08	-5.687684e+01	-7.110263e+02
1.300000e-07	-7.561520e-06	-1.105877e-08	-5.686197e+01	-7.109235e+02
1.400000e-07	-7.559187e-06	-1.104346e-08	-5.684443e+01	-7.108126e+02
1.500000e-07	-7.556429e-06	-1.092569e-08	-5.682369e+01	-7.106965e+02
1.600000e-07	-7.553388e-06	-1.083295e-08	-5.680082e+01	-7.105786e+02
1.700000e-07	-7.549995e-06	-1.071558e-08	-5.677531e+01	-7.104619e+02
1.800000e-07	-7.546162e-06	-1.071723e-08	-5.674649e+01	-7.103496e+02
1.900000e-07	-7.542191e-06	-1.069509e-08	-5.671662e+01	-7.102445e+02
2.000000e-07	-7.538079e-06	-1.080939e-08	-5.668570e+01	-7.101490e+02
2.100000e-07	-7.533791e-06	-1.095941e-08	-5.665345e+01	-7.100648e+02
2.200000e-07	-7.529387e-06	-1.093717e-08	-5.662034e+01	-7.099929e+02
2.300000e-07	-7.524920e-06	-1.098471e-08	-5.658674e+01	-7.099335e+02
2.400000e-07	-7.520408e-06	-1.103219e-08	-5.655281e+01	-7.098857e+02
2.500000e-07	-7.515784e-06	-1.107241e-08	-5.651805e+01	-7.098480e+02
2.600000e-07	-7.510839e-06	-1.092462e-08	-5.648086e+01	-7.098179e+02
2.700000e-07	-7.505711e-06	-1.088533e-08	-5.644230e+01	-7.097921e+02
2.800000e-07	-7.500487e-06	-1.102478e-08	-5.640301e+01	-7.097668e+02
2.900000e-07	-7.495052e-06	-1.089667e-08	-5.636214e+01	-7.097376e+02
3.000000e-07	-7.489370e-06	-1.083108e-08	-5.631941e+01	-7.097001e+02
3.100000e-07	-7.483383e-06	-1.086610e-08	-5.627439e+01	-7.096494e+02
3.200000e-07	-7.477211e-06	-1.091558e-08	-5.622798e+01	-7.095811e+02
3.300000e-07	-7.470884e-06	-1.092042e-08	-5.618040e+01	-7.094909e+02
3.400000e-07	-7.464387e-06	-1.098460e-08	-5.613154e+01	-7.093752e+02
3.500000e-07	-7.457749e-06	-1.095786e-08	-5.608163e+01	-7.092310e+02
3.600000e-07	-7.450986e-06	-1.076377e-08	-5.603077e+01	-7.090562e+02
3.700000e-07	-7.444094e-06	-1.084444e-08	-5.597894e+01	-7.088496e+02
3.800000e-07	-7.436971e-06	-1.091709e-08	-5.592537e+01	-7.086109e+02
3.900000e-07	-7.429612e-06	-1.084718e-08	-5.587004e+01	-7.083408e+02
4.000000e-07	-7.421980e-06	-1.079513e-08	-5.581265e+01	-7.080411e+02
4.100000e-07	-7.414136e-06	-1.086139e-08	-5.575366e+01	-7.077142e+02
4.200000e-07	-7.406265e-06	-1.093743e-08	-5.569447e+01	-7.073632e+02
4.300000e-07	-7.398255e-06	-1.088524e-08	-5.563424e+01	-7.069920e+02
4.400000e-07	-7.389953e-06	-1.086336e-08	-5.557181e+01	-7.066044e+02
4.500000e-07	-7.381511e-06	-1.078784e-08	-5.550833e+01	-7.062049e+02
4.600000e-07	-7.373032e-06	-1.079877e-08	-5.544456e+01	-7.057974e+02
4.700000e-07	-7.364424e-06	-1.085510e-08	-5.537983e+01	-7.053859e+02
4.800000e-07	-7.355705e-06	-1.079801e-08	-5.531426e+01	-7.049738e+02
4.900000e-07	-7.346875e-06	-1.076249e-08	-5.524787e+01	-7.045641e+02
5.000000e-07	-7.337924e-06	-1.077038e-08	-5.518055e+01	-7.041590e+02
5.100000e-07	-7.328789e-06	-1.083047e-08	-5.511186e+01	-7.037599e+02
5.200000e-07	-7.319199e-06	-1.081460e-08	-5.503974e+01	-7.033674e+02
5.300000e-07	-7.309357e-06	-1.077913e-08	-5.496573e+01	-7.029815e+02
5.400000e-07	-7.299317e-06	-1.074506e-08	-5.489023e+01	-7.026014e+02
5.500000e-07	-7.288889e-06	-1.074988e-08	-5.481181e+01	-7.022256e+02
5.600000e-07	-7.278106e-06	-1.082044e-08	-5.473073e+01	-7.018521e+02
5.700000e-07	-7.266882e-06	-1.076140e-08	-5.464632e+01	-7.014788e+02
5.800000e-07	-7.255283e-06	-1.071253e-08	-5.455910e+01	-7.011033e+02
5.900000e-07	-7.243396e-06	-1.073223e-08	-5.446971e+01	-7.007230e+02
6.000000e-07	-7.231388e-06	-1.076960e-08	-5.437941e+01	-7.003358e+02
6.100000e-07	-7.219235e-06	-1.076150e-08	-5.428802e+01	-6.999398e+02
6.200000e-07	-7.206855e-06	-1.071759e-08	-5.419493e+01	-6.995336e+02
6.300000e-07	-7.194196e-06	-1.071137e-08	-5.409973e+01	-6.991162e+02
6.400000e-07	-7.181437e-06	-1.070071e-08	-5.400378e+01	-6.986873e+02
6.500000e-07	-7.168679e-06	-1.072915e-08	-5.390785e+01	-6.982474e+02
6.600000e-07	-7.155636e-06	-1.069338e-08	-5.380976e+01	-6.977974e+02
6.700000e-07	-7.142480e-06	-1.064821e-08	-5.371083e+01	-6.973388e+02
6.800000e-07	-7.129212e-06	-1.067115e-08	-5.361105e+01	-6.968736e+02
6.900000e-07	-7.115585e-06	-1.069222e-08	-5.350858e+01	-6.964041e+02
7.000000e-07	-7.101769e-06	-1.069904e-08	-5.340469e+01	-6.959328e+02
7.100000e-07	-7.087745e-06	-1.065936e-08	-5.329922e+01	-6.954622e+02
7.200000e-07	-7.073475e-06	-1.065949e-08	-5.319192e+01	-6.949948e+02
7.300000e-07	-7.059107e-06	-1.066912e-08	-5.308387e+01	-6.945327e+02
7.400000e-07	-7.044561e-06	-1.066710e-08	-5.297449e+01	-6.940775e+02
7.500000e-07	-7.029852e-06	-1.064005e-08	-5.286388e+01	-6.936303e+02
7.600000e-07	-7.015047e-06	-1.060076e-08	-5.275254e+01	-6.931918e+02
7.700000e-07	-6.999977e-06	-1.062148e-08	-5.263922e+01	-6.927615e+02
7.800000e-07	-6.984697e-06	-1.062422e-08	-5.252432e+01	-6.923388e+02
7.900000e-07	-6.969126e-06	-1.061984e-08	-5.240723e+01	-6.919220e+02
8.000000e-07	-6.953180e-06	-1.059610e-08	-5.228731e+01	-6.915089e+02
8.100000e-07	-6.937110e-06	-1.058689e-08	-5.216646e+01	-6.910968e+02
8.200000e-07	-6.920727e-06	-1.060304e-08	-5.204327e+01	-6.906827e+02
8.300000e-07	-6.904013e-06	-1.059142e-08	-5.191758e+01	-6.902631e+02
8.400000e-07	-6.887056e-06	-1.057631e-08	-5.179006e+01	-6.898348e+02
8.500000e-07	-6.869909e-06	-1.054450e-08	-5.166112e+01	-6.893942e+02
8.600000e-07	-6.852604e-06	-1.055118e-08	-5.153099e+01	-6.889383e+02
8.700000e-07	-6.835105e-06	-1.056153e-08	-5.139940e+01	-6.884643e+02
8.800000e-07	-6.817477e-06	-1.055938e-08	-5.126684e+01	-6.879699e+02
8.900000e-07	-6.799643e-06	-1.055420e-08	-5.113272e+01	-6.874535e+02
9.000000e-07	-6.781690e-06	-1.053476e-08	-5.099772e+01	-6.869140e+02
9.100000e-07	-6.763665e-06	-1.053914e-08	-5.086218e+01	-6.863510e+02
9.200000e-07	-6.745461e-06	-1.051582e-08	-5.072528e+01	-6.857647e+02
9.300000e-07	-6.727069e-06	-1.048577e-08	-5.058697e+01	-6.851559e+02
9.400000e-07	-6.708601e-06	-1.045445e-08	-5.044810e+01	-6.845259e+02
9.500000e-07	-6.690020e-06	-1.044529e-08	-5.030837e+01	-6.838764e+02
9.600000e-07	-6.671161e-06	-1.046050e-08	-5.016655e+01	-6.832093e+02
9.700000e-07	-6.651986e-06	-1.045219e-08	-5.002235e+01	-6.825268e+02
9.800000e-07	-6.632677e-06	-1.044823e-08	-4.987715e+01	-6.818308e+02
9.900000e-07	-6.613352e-06	-1.042922e-08	-4.973183e+01	-6.811232e+02
1.000000e-06	-6.593811e-06	-1.042065e-08	-4.958488e+01	-6.804058e+02
1.010000e-06	-6.573896e-06	-1.040549e-08	-4.943512e+01	-6.796796e+02
1.020000e-06	-6.553796e-06	-1.037741e-08	-4.928398e+01	-6.789454e+02
1.030000e-06	-6.533606e-06	-1.036229e-08	-4.913215e+01	-6.782035e+02
1.040000e-06	-6.513285e-06	-1.034895e-08	-4.897934e+01	-6.774537e+02
1.050000e-06	-6.492870e-06	-1.035299e-08	-4.882582e+01	-6.766953e+02
1.060000e-06	-6.472410e-06	-1.033790e-08	-4.867196e+01	-6.759271e+02
1.070000e-06	-6.451831e-06	-1.032341e-08	-4.851721e+01	-6.751476e+02
1.080000e-06	-6.431143e-06	-1.030766e-08	-4.836164e+01	-6.743552e+02
1.090000e-06	-6.410488e-06	-1.028701e-08	-4.820631e+01	-6.735481e+02
1.100000e-06	-6.389810e-06	-1.027154e-08	-4.805082e+01	-6.727245e+02
1.110000e-06	-6.369024e-06	-1.024275e-08	-4.789451e+01	-6.718828e+02
1.120000e-06	-6.348100e-06	-1.022760e-08	-4.773716e+01	-6.710218e+02
1.130000e-06	-6.326914e-06	-1.021196e-08	-4.757784e+01	-6.701406e+02
1.140000e-06	-6.305505e-06	-1.020645e-08	-4.741685e+01	-6.692387e+02
1.150000e-06	-6.283919e-06	-1.019662e-08	-4.725452e+01	-6.683164e+02
1.160000e-06	-6.262079e-06	-1.017941e-08	-4.709029e+01	-6.673745e+02
1.170000e-06	-6.240079e-06	-1.017290e-08	-4.692485e+01	-6.664141e+02
1.180000e-06	-6.217970e-06	-1.015999e-08	-4.675859e+01	-6.654373e+02
1.190000e-06	-6.195705e-06	-1.015235e-08	-4.659116e+01	-6.644463e+02
1.200000e-06	-6.173278e-06	-1.012882e-08	-4.642252e+01	-6.634439e+02
1.210000e-06	-6.150687e-06	-1.010339e-08	-4.625263e+01	-6.624330e+02
1.220000e-06	-6.127937e-06	-1.008685e-08	-4.608155e+01	-6.614168e+02
1.230000e-06	-6.105120e-06	-1.006974e-08	-4.590997e+01	-6.603982e+02
1.240000e-06	-6.082260e-06	-1.005726e-08	-4.573807e+01	-6.593801e+02
1.250000e-06	-6.059109e-06	-1.003567e-08	-4.556398e+01	-6.583652e+02
1.260000e-06	-6.035677e-06	-1.002137e-08	-4.538776e+01	-6.573556e+02
1.270000e-06	-6.012239e-06	-1.000895e-08	-4.521151e+01	-6.563529e+02
1.280000e-06	-5.988697e-06	-9.994682e-09	-4.503448e+01	-6.553581e+02
1.290000e-06	-5.964947e-06	-9.977383e-09	-4.485588e+01	-6.543718e+02
1.300000e-06	-5.941038e-06	-9.957126e-09	-4.467609e+01	-6.533936e+02
1.310000e-06	-5.917009e-06	-9.950100e-09	-4.449540e+01	-6.524228e+02
1.320000e-06	-5.892828e-06	-9.943890e-09	-4.431356e+01	-6.514578e+02
1.330000e-06	-5.868506e-06	-9.936288e-09	-4.413066e+01	-6.504968e+02
1.340000e-06	-5.844052e-06	-9.919054e-09	-4.394677e+01	-6.495376e+02
1.350000e-06	-5.819518e-06	-9.896068e-09	-4.376227e+01	-6.485775e+02
1.360000e-06	-5.794934e-06	-9.878759e-09	-4.357740e+01	-6.476139e+02
1.370000e-06	-5.770195e-06	-9.864270e-09	-4.339136e+01	-6.466442e+02
1.380000e-06	-5.745281e-06	-9.854532e-09	-4.320402e+01	-6.456657e+02
1.390000e-06	-5.720346e-06	-9.837516e-09	-4.301650e+01	-6.446762e+02
1.400000e-06	-5.695385e-06	-9.822115e-09	-4.282880e+01	-6.436736e+02
1.410000e-06	-5.670338e-06	-9.806660e-09	-4.264045e+01	-6.426563e+02
1.420000e-06	-5.645109e-06	-9.785296e-09	-4.245073e+01	-6.416231e+02
1.430000e-06	-5.619604e-06	-9.761548e-09	-4.225893e+01	-6.405734e+02
1.440000e-06	-5.593935e-06	-9.738230e-09	-4.206591e+01	-6.395067e+02
1.450000e-06	-5.568018e-06	-9.729954e-09	-4.187101e+01	-6.384233e+02
1.460000e-06	-5.541809e-06	-9.723737e-09	-4.167392e+01	-6.373237e+02
1.470000e-06	-5.515271e-06	-9.717751e-09	-4.147436e+01	-6.362085e+02
1.480000e-06	-5.488255e-06	-9.702150e-09	-4.127120e+01	-6.350788e+02
1.490000e-06	-5.460901e-06	-9.680476e-09	-4.106550e+01	-6.339356e+02
1.500000e-06	-5.433329e-06	-9.657553e-09	-4.085816e+01	-6.327798e+02
1.510000e-06	-5.405599e-06	-9.625781e-09	-4.064964e+01	-6.316124e+02
1.520000e-06	-5.377840e-06	-9.600702e-09	-4.044089e+01	-6.304340e+02
1.530000e-06	-5.349941e-06	-9.578973e-09	-4.023109e+01	-6.292453e+02
1.540000e-06	-5.321894e-06	-9.572259e-09	-4.002018e+01	-6.280463e+02
1.550000e-06	-5.293772e-06	-9.569140e-09	-3.980871e+01	-6.268367e+02
1.560000e-06	-5.265423e-06	-9.557658e-09	-3.959552e+01	-6.256162e+02
1.570000e-06	-5.236932e-06	-9.542174e-09	-3.938128e+01	-6.243838e+02
1.580000e-06	-5.208476e-06	-9.513713e-09	-3.916729e+01	-6.231384e+02
1.590000e-06	-5.179991e-06	-9.486452e-09	-3.895309e+01	-6.218787e+02
1.600000e-06	-5.151463e-06	-9.456862e-09	-3.873856e+01	-6.206030e+02
1.610000e-06	-5.122912e-06	-9.431164e-09	-3.852385e+01	-6.193097e+02
1.620000e-06	-5.094267e-06	-9.414383e-09	-3.830845e+01	-6.179972e+02
1.630000e-06	-5.065423e-06	-9.402062e-09	-3.809154e+01	-6.166639e+02
1.640000e-06	-5.036480e-06	-9.395583e-09	-3.787389e+01	-6.153083e+02
1.650000e-06	-5.007415e-06	-9.379228e-09	-3.765532e+01	-6.139292e+02
1.660000e-06	-4.978187e-06	-9.355253e-09	-3.743553e+01	-6.125256e+02
1.670000e-06	-4.948898e-06	-9.324106e-09	-3.721529e+01	-6.110969e+02
1.680000e-06	-4.919453e-06	-9.292708e-09	-3.699386e+01	-6.096425e+02
1.690000e-06	-4.889830e-06	-9.263929e-09	-3.677110e+01	-6.081625e+02
1.700000e-06	-4.860167e-06	-9.234781e-09	-3.654804e+01	-6.066570e+02
1.710000e-06	-4.830390e-06	-9.211742e-09	-3.632411e+01	-6.051265e+02
1.720000e-06	-4.800450e-06	-9.188349e-09	-3.609897e+01	-6.035717e+02
1.730000e-06	-4.770483e-06	-9.168013e-09	-3.587362e+01	-6.019934e+02
1.740000e-06	-4.740298e-06	-9.145227e-09	-3.564663e+01	-6.003926e+02
1.750000e-06	-4.709913e-06	-9.121194e-09	-3.541814e+01	-5.987701e+02
1.760000e-06	-4.679490e-06	-9.098433e-09	-3.518936e+01	-5.971269e+02
1.770000e-06	-4.648980e-06	-9.071814e-09	-3.495993e+01	-5.954640e+02
1.780000e-06	-4.618364e-06	-9.045218e-09	-3.472969e+01	-5.937822e+02
1.790000e-06	-4.587598e-06	-9.015314e-09	-3.449834e+01	-5.920821e+02
1.800000e-06	-4.556778e-06	-8.987707e-09	-3.426657e+01	-5.903642e+02
1.810000e-06	-4.525905e-06	-8.957190e-09	-3.403441e+01	-5.886291e+02
1.820000e-06	-4.494988e-06	-8.926948e-09	-3.380192e+01	-5.868769e+02
1.830000e-06	-4.463928e-06	-8.903808e-09	-3.356835e+01	-5.851079e+02
1.840000e-06	-4.432700e-06	-8.881941e-09	-3.333352e+01	-5.833221e+02
1.850000e-06	-4.401460e-06	-8.858296e-09	-3.309860e+01	-5.815199e+02
1.860000e-06	-4.370005e-06	-8.827983e-09	-3.286206e+01	-5.797012e+02
1.870000e-06	-4.338350e-06	-8.800735e-09	-3.262401e+01	-5.778663e+02
1.880000e-06	-4.306599e-06	-8.773607e-09	-3.238525e+01	-5.760156e+02
1.890000e-06	-4.274708e-06	-8.742821e-09	-3.214544e+01	-5.741494e+02
1.900000e-06	-4.242725e-06	-8.711194e-09	-3.190493e+01	-5.722685e+02
1.910000e-06	-4.210626e-06	-8.678551e-09	-3.166354e+01	-5.703735e+02
1.920000e-06	-4.178489e-06	-8.650620e-09	-3.142187e+01	-5.684654e+02
1.930000e-06	-4.146340e-06	-8.623862e-09	-3.118012e+01	-5.665453e+02
1.940000e-06	-4.114090e-06	-8.600459e-09	-3.093760e+01	-5.646141e+02
1.950000e-06	-4.081717e-06	-8.576784e-09	-3.069416e+01	-5.626732e+02
1.960000e-06	-4.049248e-06	-8.548490e-09	-3.045000e+01	-5.607236e+02
1.970000e-06	-4.016748e-06	-8.512530e-09	-3.020559e+01	-5.587666e+02
1.980000e-06	-3.984222e-06	-8.475007e-09	-2.996100e+01	-5.568030e+02
1.990000e-06	-3.951626e-06	-8.440209e-09	-2.971588e+01	-5.548337e+02
2.000000e-06	-3.918877e-06	-8.405806e-09	-2.946961e+01	-5.528592e+02
2.010000e-06	-3.886105e-06	-8.377722e-09	-2.922317e+01	-5.508800e+02
2.020000e-06	-3.853320e-06	-8.351773e-09	-2.897663e+01	-5.488959e+02
2.030000e-06	-3.820439e-06	-8.329050e-09	-2.872937e+01	-5.469067e+02
2.040000e-06	-3.787454e-06	-8.299715e-09	-2.848132e+01	-5.449118e+02
2.050000e-06	-3.754326e-06	-8.261056e-09	-2.823221e+01	-5.429103e+02
2.060000e-06	-3.721091e-06	-8.221795e-09	-2.798228e+01	-5.409010e+02
2.070000e-06	-3.687755e-06	-8.186003e-09	-2.773160e+01	-5.388824e+02
2.080000e-06	-3.654304e-06	-8.157548e-09	-2.748005e+01	-5.368529e+02
2.090000e-06	-3.620833e-06	-8.129166e-09	-2.722835e+01	-5.348108e+02
2.100000e-06	-3.587227e-06	-8.101139e-09	-2.697563e+01	-5.327543e+02
2.110000e-06	-3.553537e-06	-8.071511e-09	-2.672229e+01	-5.306815e+02
2.120000e-06	-3.519809e-06	-8.041907e-09	-2.646865e+01	-5.285907e+02
2.130000e-06	-3.485840e-06	-8.013404e-09	-2.621322e+01	-5.264800e+02
2.140000e-06	-3.451713e-06	-7.975659e-09	-2.595658e+01	-5.243480e+02
2.150000e-06	-3.417432e-06	-7.933577e-09	-2.569879e+01	-5.221932e+02
2.160000e-06	-3.382831e-06	-7.890885e-09	-2.543860e+01	-5.200143e+02
2.170000e-06	-3.347970e-06	-7.855005e-09	-2.517644e+01	-5.178101e+02
2.180000e-06	-3.313159e-06	-7.824102e-09	-2.491467e+01	-5.155797e+02
2.190000e-06	-3.278226e-06	-7.792137e-09	-2.465198e+01	-5.133222e+02
2.200000e-06	-3.243080e-06	-7.763793e-09	-2.438768e+01	-5.110369e+02
2.210000e-06	-3.207843e-06	-7.732729e-09	-2.412270e+01	-5.087230e+02
2.220000e-06	-3.172568e-06	-7.698663e-09	-2.385744e+01	-5.063797e+02
2.230000e-06	-3.137269e-06	-7.657132e-09	-2.359199e+01	-5.040064e+02
2.240000e-06	-3.101758e-06	-7.611672e-09	-2.332495e+01	-5.016022e+02
2.250000e-06	-3.066001e-06	-7.570886e-09	-2.305606e+01	-4.991664e+02
2.260000e-06	-3.030091e-06	-7.531055e-09	-2.278602e+01	-4.966978e+02
2.270000e-06	-2.994152e-06	-7.494996e-09	-2.251577e+01	-4.941954e+02
2.280000e-06	-2.958226e-06	-7.460648e-09	-2.224560e+01	-4.916582e+02
2.290000e-06	-2.922216e-06	-7.426589e-09	-2.197481e+01	-4.890849e+02
2.300000e-06	-2.886070e-06	-7.392036e-09	-2.170300e+01	-4.864744e+02
2.310000e-06	-2.849836e-06	-7.352930e-09	-2.143052e+01	-4.838255e+02
2.320000e-06	-2.813564e-06	-7.303379e-09	-2.115776e+01	-4.811372e+02
2.330000e-06	-2.777204e-06	-7.247880e-09	-2.088433e+01	-4.784085e+02
2.340000e-06	-2.740727e-06	-7.192283e-09	-2.061003e+01	-4.756388e+02
2.350000e-06	-2.704215e-06	-7.139704e-09	-2.033546e+01	-4.728278e+02
2.360000e-06	-2.667752e-06	-7.095618e-09	-2.006127e+01	-4.699752e+02
2.370000e-06	-2.631278e-06	-7.055015e-09	-1.978698e+01	-4.670813e+02
2.380000e-06	-2.594745e-06	-7.020562e-09	-1.951226e+01	-4.641468e+02
2.390000e-06	-2.558213e-06	-6.982478e-09	-1.923754e+01	-4.611726e+02
2.400000e-06	-2.521664e-06	-6.939475e-09	-1.896270e+01	-4.581599e+02
2.410000e-06	-2.485048e-06	-6.890843e-09	-1.868735e+01	-4.551103e+02
2.420000e-06	-2.448423e-06	-6.831288e-09	-1.841193e+01	-4.520255e+02
2.430000e-06	-2.411855e-06	-6.771705e-09	-1.813694e+01	-4.489075e+02
2.440000e-06	-2.375203e-06	-6.712829e-09	-1.786132e+01	-4.457583e+02
2.450000e-06	-2.338460e-06	-6.661720e-09	-1.758502e+01	-4.425798e+02
2.460000e-06	-2.301637e-06	-6.615783e-09	-1.730811e+01	-4.393737e+02
2.470000e-06	-2.264740e-06	-6.572907e-09	-1.703065e+01	-4.361418e+02
2.480000e-06	-2.227874e-06	-6.531747e-09	-1.675342e+01	-4.328852e+02
2.490000e-06	-2.191040e-06	-6.484237e-09	-1.647643e+01	-4.296049e+02
2.500000e-06	-2.154161e-06	-6.430176e-09	-1.619911e+01	-4.263013e+02
2.510000e-06	-2.117172e-06	-6.363725e-09	-1.592095e+01	-4.229745e+02
2.520000e-06	-2.080129e-06	-6.298312e-09	-1.564239e+01	-4.196241e+02
2.530000e-06	-2.043019e-06	-6.241286e-09	-1.536332e+01	-4.162491e+02
2.540000e-06	-2.005852e-06	-6.189671e-09	-1.508383e+01	-4.128484e+02
2.550000e-06	-1.968700e-06	-6.143565e-09	-1.480445e+01	-4.094204e+02
2.560000e-06	-1.931536e-06	-6.099441e-09	-1.452498e+01	-4.059632e+02
2.570000e-06	-1.894372e-06	-6.058195e-09	-1.424551e+01	-4.024750e+02
2.580000e-06	-1.857085e-06	-6.008004e-09	-1.396512e+01	-3.989538e+02
2.590000e-06	-1.819683e-06	-5.946216e-09	-1.368386e+01	-3.953978e+02
2.600000e-06	-1.782289e-06	-5.877957e-09	-1.340266e+01	-3.918053e+02
2.610000e-06	-1.744733e-06	-5.811983e-09	-1.312024e+01	-3.881749e+02
2.620000e-06	-1.707031e-06	-5.752953e-09	-1.283673e+01	-3.845057e+02
2.630000e-06	-1.669310e-06	-5.693272e-09	-1.255306e+01	-3.807971e+02
2.640000e-06	-1.631562e-06	-5.637433e-09	-1.226920e+01	-3.770490e+02
2.650000e-06	-1.593893e-06	-5.584468e-09	-1.198594e+01	-3.732619e+02
2.660000e-06	-1.556219e-06	-5.531630e-09	-1.170263e+01	-3.694366e+02
2.670000e-06	-1.518455e-06	-5.474530e-09	-1.141865e+01	-3.655742e+02
2.680000e-06	-1.480702e-06	-5.410571e-09	-1.113475e+01	-3.616762e+02
2.690000e-06	-1.442740e-06	-5.345212e-09	-1.084928e+01	-3.577443e+02
2.700000e-06	-1.404664e-06	-5.276996e-09	-1.056295e+01	-3.537802e+02
2.710000e-06	-1.366727e-06	-5.212893e-09	-1.027766e+01	-3.497856e+02
2.720000e-06	-1.328845e-06	-5.151833e-09	-9.992802e+00	-3.457618e+02
2.730000e-06	-1.290862e-06	-5.091744e-09	-9.707169e+00	-3.417099e+02
2.740000e-06	-1.252838e-06	-5.037113e-09	-9.421232e+00	-3.376306e+02
2.750000e-06	-1.214826e-06	-4.978524e-09	-9.135385e+00	-3.335238e+02
2.760000e-06	-1.176732e-06	-4.915653e-09	-8.848919e+00	-3.293888e+02
2.770000e-06	-1.138549e-06	-4.845035e-09	-8.561786e+00	-3.252245e+02
2.780000e-06	-1.100356e-06	-4.765908e-09	-8.274578e+00	-3.210287e+02
2.790000e-06	-1.062217e-06	-4.690702e-09	-7.987776e+00	-3.167986e+02
2.800000e-06	-1.024047e-06	-4.616998e-09	-7.700746e+00	-3.125310e+02
2.810000e-06	-9.858697e-07	-4.553906e-09	-7.413655e+00	-3.082218e+02
2.820000e-06	-9.477231e-07	-4.501198e-09	-7.126796e+00	-3.038669e+02
2.830000e-06	-9.095340e-07	-4.447146e-09	-6.839617e+00	-2.994616e+02
2.840000e-06	-8.712281e-07	-4.386232e-09	-6.551560e+00	-2.950012e+02
