# Temperatura_=_20.0
# Concentracion g/m^3_=_10000.0
# C_Vs_to_Am_M_A/Vsm_=_65563218390.804596
# pendiente_HvsI_1/m_=_3716.3
# ordenada_HvsI_A/m_=_1297.0
# frecuencia_Hz_=_81231.53452842314

Tiempo_(s)	Campo_(V.s)	Magnetizacion_(V.s)	Campo_(kA/m)	Magnetizacion_(A/m)
0.000000e+00	-7.493119e-06	-1.081595e-08	-5.695162e+01	-7.048271e+02
1.000000e-08	-7.493253e-06	-1.081570e-08	-5.695264e+01	-7.049612e+02
2.000000e-08	-7.493088e-06	-1.081841e-08	-5.695138e+01	-7.051073e+02
3.000000e-08	-7.492830e-06	-1.082052e-08	-5.694942e+01	-7.052623e+02
4.000000e-08	-7.492444e-06	-1.080572e-08	-5.694649e+01	-7.054229e+02
5.000000e-08	-7.491943e-06	-1.074342e-08	-5.694268e+01	-7.055856e+02
6.000000e-08	-7.491370e-06	-1.067639e-08	-5.693832e+01	-7.057471e+02
7.000000e-08	-7.490561e-06	-1.076247e-08	-5.693218e+01	-7.059041e+02
8.000000e-08	-7.489473e-06	-1.091575e-08	-5.692391e+01	-7.060535e+02
9.000000e-08	-7.488286e-06	-1.099496e-08	-5.691488e+01	-7.061928e+02
1.000000e-07	-7.487076e-06	-1.101646e-08	-5.690569e+01	-7.063201e+02
1.100000e-07	-7.485685e-06	-1.095791e-08	-5.689511e+01	-7.064337e+02
1.200000e-07	-7.483826e-06	-1.097989e-08	-5.688099e+01	-7.065328e+02
1.300000e-07	-7.481621e-06	-1.107140e-08	-5.686423e+01	-7.066173e+02
1.400000e-07	-7.479203e-06	-1.092839e-08	-5.684585e+01	-7.066874e+02
1.500000e-07	-7.476393e-06	-1.074958e-08	-5.682450e+01	-7.067440e+02
1.600000e-07	-7.473217e-06	-1.069470e-08	-5.680036e+01	-7.067883e+02
1.700000e-07	-7.469877e-06	-1.074252e-08	-5.677497e+01	-7.068219e+02
1.800000e-07	-7.466293e-06	-1.070053e-08	-5.674773e+01	-7.068464e+02
1.900000e-07	-7.462465e-06	-1.067585e-08	-5.671864e+01	-7.068638e+02
2.000000e-07	-7.458414e-06	-1.075545e-08	-5.668784e+01	-7.068755e+02
2.100000e-07	-7.454161e-06	-1.080200e-08	-5.665552e+01	-7.068830e+02
2.200000e-07	-7.449936e-06	-1.088092e-08	-5.662340e+01	-7.068872e+02
2.300000e-07	-7.445544e-06	-1.087306e-08	-5.659003e+01	-7.068888e+02
2.400000e-07	-7.441000e-06	-1.088584e-08	-5.655549e+01	-7.068876e+02
2.500000e-07	-7.436370e-06	-1.087241e-08	-5.652030e+01	-7.068831e+02
2.600000e-07	-7.431596e-06	-1.091982e-08	-5.648401e+01	-7.068741e+02
2.700000e-07	-7.426582e-06	-1.097689e-08	-5.644590e+01	-7.068590e+02
2.800000e-07	-7.421327e-06	-1.080445e-08	-5.640596e+01	-7.068355e+02
2.900000e-07	-7.415957e-06	-1.068140e-08	-5.636515e+01	-7.068011e+02
3.000000e-07	-7.410319e-06	-1.080916e-08	-5.632229e+01	-7.067528e+02
3.100000e-07	-7.404485e-06	-1.091879e-08	-5.627795e+01	-7.066876e+02
3.200000e-07	-7.398536e-06	-1.079549e-08	-5.623274e+01	-7.066026e+02
3.300000e-07	-7.392375e-06	-1.077928e-08	-5.618591e+01	-7.064949e+02
3.400000e-07	-7.386027e-06	-1.084446e-08	-5.613767e+01	-7.063619e+02
3.500000e-07	-7.379586e-06	-1.077550e-08	-5.608871e+01	-7.062016e+02
3.600000e-07	-7.373021e-06	-1.083716e-08	-5.603881e+01	-7.060123e+02
3.700000e-07	-7.366149e-06	-1.086273e-08	-5.598658e+01	-7.057932e+02
3.800000e-07	-7.359038e-06	-1.073742e-08	-5.593254e+01	-7.055439e+02
3.900000e-07	-7.351818e-06	-1.070554e-08	-5.587766e+01	-7.052651e+02
4.000000e-07	-7.344416e-06	-1.084333e-08	-5.582140e+01	-7.049580e+02
4.100000e-07	-7.336733e-06	-1.085304e-08	-5.576300e+01	-7.046243e+02
4.200000e-07	-7.328858e-06	-1.070633e-08	-5.570315e+01	-7.042666e+02
4.300000e-07	-7.320741e-06	-1.074039e-08	-5.564145e+01	-7.038879e+02
4.400000e-07	-7.312451e-06	-1.081930e-08	-5.557845e+01	-7.034915e+02
4.500000e-07	-7.304131e-06	-1.079788e-08	-5.551521e+01	-7.030810e+02
4.600000e-07	-7.295689e-06	-1.074403e-08	-5.545105e+01	-7.026600e+02
4.700000e-07	-7.287122e-06	-1.069982e-08	-5.538593e+01	-7.022323e+02
4.800000e-07	-7.278435e-06	-1.069549e-08	-5.531991e+01	-7.018011e+02
4.900000e-07	-7.269639e-06	-1.073856e-08	-5.525306e+01	-7.013697e+02
5.000000e-07	-7.260673e-06	-1.075511e-08	-5.518491e+01	-7.009406e+02
5.100000e-07	-7.251355e-06	-1.067924e-08	-5.511409e+01	-7.005161e+02
5.200000e-07	-7.241805e-06	-1.067156e-08	-5.504150e+01	-7.000977e+02
5.300000e-07	-7.232032e-06	-1.071820e-08	-5.496722e+01	-6.996864e+02
5.400000e-07	-7.222002e-06	-1.072097e-08	-5.489099e+01	-6.992827e+02
5.500000e-07	-7.211614e-06	-1.070429e-08	-5.481203e+01	-6.988863e+02
5.600000e-07	-7.200735e-06	-1.066454e-08	-5.472934e+01	-6.984967e+02
5.700000e-07	-7.189690e-06	-1.067168e-08	-5.464540e+01	-6.981128e+02
5.800000e-07	-7.178485e-06	-1.070230e-08	-5.456023e+01	-6.977332e+02
5.900000e-07	-7.166996e-06	-1.069240e-08	-5.447292e+01	-6.973564e+02
6.000000e-07	-7.155238e-06	-1.063843e-08	-5.438354e+01	-6.969807e+02
6.100000e-07	-7.143257e-06	-1.062798e-08	-5.429248e+01	-6.966044e+02
6.200000e-07	-7.131083e-06	-1.066347e-08	-5.419995e+01	-6.962259e+02
6.300000e-07	-7.118721e-06	-1.066204e-08	-5.410600e+01	-6.958438e+02
6.400000e-07	-7.106211e-06	-1.064966e-08	-5.401092e+01	-6.954572e+02
6.500000e-07	-7.093498e-06	-1.061602e-08	-5.391429e+01	-6.950650e+02
6.600000e-07	-7.080623e-06	-1.061543e-08	-5.381643e+01	-6.946670e+02
6.700000e-07	-7.067566e-06	-1.064274e-08	-5.371719e+01	-6.942628e+02
6.800000e-07	-7.054240e-06	-1.063047e-08	-5.361591e+01	-6.938526e+02
6.900000e-07	-7.040676e-06	-1.059838e-08	-5.351282e+01	-6.934369e+02
7.000000e-07	-7.026959e-06	-1.058735e-08	-5.340856e+01	-6.930163e+02
7.100000e-07	-7.013012e-06	-1.061851e-08	-5.330255e+01	-6.925916e+02
7.200000e-07	-6.998886e-06	-1.062134e-08	-5.319519e+01	-6.921635e+02
7.300000e-07	-6.984689e-06	-1.059296e-08	-5.308728e+01	-6.917330e+02
7.400000e-07	-6.970301e-06	-1.056785e-08	-5.297793e+01	-6.913006e+02
7.500000e-07	-6.955653e-06	-1.056680e-08	-5.286660e+01	-6.908670e+02
7.600000e-07	-6.940852e-06	-1.058441e-08	-5.275410e+01	-6.904326e+02
7.700000e-07	-6.925966e-06	-1.056900e-08	-5.264096e+01	-6.899973e+02
7.800000e-07	-6.910804e-06	-1.054718e-08	-5.252572e+01	-6.895611e+02
7.900000e-07	-6.895154e-06	-1.053900e-08	-5.240677e+01	-6.891233e+02
8.000000e-07	-6.879313e-06	-1.055113e-08	-5.228637e+01	-6.886832e+02
8.100000e-07	-6.863458e-06	-1.055575e-08	-5.216586e+01	-6.882399e+02
8.200000e-07	-6.847196e-06	-1.053295e-08	-5.204227e+01	-6.877919e+02
8.300000e-07	-6.830559e-06	-1.051814e-08	-5.191582e+01	-6.873380e+02
8.400000e-07	-6.813742e-06	-1.051869e-08	-5.178800e+01	-6.868765e+02
8.500000e-07	-6.796673e-06	-1.052714e-08	-5.165826e+01	-6.864059e+02
8.600000e-07	-6.779504e-06	-1.050900e-08	-5.152777e+01	-6.859246e+02
8.700000e-07	-6.762208e-06	-1.048505e-08	-5.139631e+01	-6.854311e+02
8.800000e-07	-6.744679e-06	-1.048582e-08	-5.126308e+01	-6.849242e+02
8.900000e-07	-6.727114e-06	-1.049526e-08	-5.112958e+01	-6.844025e+02
9.000000e-07	-6.709276e-06	-1.049260e-08	-5.099400e+01	-6.838651e+02
9.100000e-07	-6.691283e-06	-1.046468e-08	-5.085725e+01	-6.833112e+02
9.200000e-07	-6.673288e-06	-1.044329e-08	-5.072048e+01	-6.827402e+02
9.300000e-07	-6.655082e-06	-1.043189e-08	-5.058210e+01	-6.821516e+02
9.400000e-07	-6.636785e-06	-1.041971e-08	-5.044303e+01	-6.815453e+02
9.500000e-07	-6.618348e-06	-1.040438e-08	-5.030290e+01	-6.809212e+02
9.600000e-07	-6.599693e-06	-1.039137e-08	-5.016112e+01	-6.802792e+02
9.700000e-07	-6.580801e-06	-1.039429e-08	-5.001753e+01	-6.796195e+02
9.800000e-07	-6.561672e-06	-1.039721e-08	-4.987213e+01	-6.789422e+02
9.900000e-07	-6.542436e-06	-1.038881e-08	-4.972593e+01	-6.782473e+02
1.000000e-06	-6.523096e-06	-1.036301e-08	-4.957894e+01	-6.775349e+02
1.010000e-06	-6.503493e-06	-1.033696e-08	-4.942994e+01	-6.768050e+02
1.020000e-06	-6.483604e-06	-1.032338e-08	-4.927878e+01	-6.760575e+02
1.030000e-06	-6.463571e-06	-1.031135e-08	-4.912652e+01	-6.752924e+02
1.040000e-06	-6.443449e-06	-1.029398e-08	-4.897358e+01	-6.745095e+02
1.050000e-06	-6.423247e-06	-1.027209e-08	-4.882003e+01	-6.737086e+02
1.060000e-06	-6.402881e-06	-1.026533e-08	-4.866524e+01	-6.728896e+02
1.070000e-06	-6.382401e-06	-1.026543e-08	-4.850958e+01	-6.720525e+02
1.080000e-06	-6.361920e-06	-1.025499e-08	-4.835391e+01	-6.711972e+02
1.090000e-06	-6.341394e-06	-1.023117e-08	-4.819791e+01	-6.703241e+02
1.100000e-06	-6.320790e-06	-1.020307e-08	-4.804131e+01	-6.694334e+02
1.110000e-06	-6.300101e-06	-1.018694e-08	-4.788406e+01	-6.685258e+02
1.120000e-06	-6.279306e-06	-1.017392e-08	-4.772601e+01	-6.676020e+02
1.130000e-06	-6.258399e-06	-1.015879e-08	-4.756710e+01	-6.666632e+02
1.140000e-06	-6.237245e-06	-1.014139e-08	-4.740632e+01	-6.657107e+02
1.150000e-06	-6.215794e-06	-1.012873e-08	-4.724328e+01	-6.647460e+02
1.160000e-06	-6.194175e-06	-1.012264e-08	-4.707896e+01	-6.637708e+02
1.170000e-06	-6.172368e-06	-1.011158e-08	-4.691322e+01	-6.627870e+02
1.180000e-06	-6.150373e-06	-1.009385e-08	-4.674605e+01	-6.617964e+02
1.190000e-06	-6.128290e-06	-1.007047e-08	-4.657821e+01	-6.608009e+02
1.200000e-06	-6.106063e-06	-1.005320e-08	-4.640927e+01	-6.598024e+02
1.210000e-06	-6.083720e-06	-1.003568e-08	-4.623945e+01	-6.588027e+02
1.220000e-06	-6.061320e-06	-1.001628e-08	-4.606920e+01	-6.578031e+02
1.230000e-06	-6.038758e-06	-9.997441e-09	-4.589771e+01	-6.568049e+02
1.240000e-06	-6.015973e-06	-9.981194e-09	-4.572454e+01	-6.558091e+02
1.250000e-06	-5.993055e-06	-9.971928e-09	-4.555035e+01	-6.548163e+02
1.260000e-06	-5.969973e-06	-9.956545e-09	-4.537492e+01	-6.538266e+02
1.270000e-06	-5.946677e-06	-9.939369e-09	-4.519785e+01	-6.528401e+02
1.280000e-06	-5.923310e-06	-9.921233e-09	-4.502025e+01	-6.518562e+02
1.290000e-06	-5.899858e-06	-9.906383e-09	-4.484200e+01	-6.508741e+02
1.300000e-06	-5.876228e-06	-9.896342e-09	-4.466240e+01	-6.498930e+02
1.310000e-06	-5.852359e-06	-9.885327e-09	-4.448098e+01	-6.489115e+02
1.320000e-06	-5.828364e-06	-9.874935e-09	-4.429861e+01	-6.479285e+02
1.330000e-06	-5.804214e-06	-9.858091e-09	-4.411506e+01	-6.469425e+02
1.340000e-06	-5.779893e-06	-9.837457e-09	-4.393020e+01	-6.459522e+02
1.350000e-06	-5.755469e-06	-9.810399e-09	-4.374457e+01	-6.449565e+02
1.360000e-06	-5.730967e-06	-9.789389e-09	-4.355834e+01	-6.439542e+02
1.370000e-06	-5.706410e-06	-9.778725e-09	-4.337169e+01	-6.429445e+02
1.380000e-06	-5.681736e-06	-9.769690e-09	-4.318416e+01	-6.419267e+02
1.390000e-06	-5.657009e-06	-9.761046e-09	-4.299623e+01	-6.409005e+02
1.400000e-06	-5.632089e-06	-9.743284e-09	-4.280682e+01	-6.398657e+02
1.410000e-06	-5.607007e-06	-9.722564e-09	-4.261618e+01	-6.388223e+02
1.420000e-06	-5.581864e-06	-9.696805e-09	-4.242508e+01	-6.377706e+02
1.430000e-06	-5.556551e-06	-9.667872e-09	-4.223269e+01	-6.367110e+02
1.440000e-06	-5.530936e-06	-9.642582e-09	-4.203801e+01	-6.356438e+02
1.450000e-06	-5.505057e-06	-9.627450e-09	-4.184131e+01	-6.345695e+02
1.460000e-06	-5.479105e-06	-9.625726e-09	-4.164406e+01	-6.334882e+02
1.470000e-06	-5.452962e-06	-9.622066e-09	-4.144536e+01	-6.324003e+02
1.480000e-06	-5.426435e-06	-9.609818e-09	-4.124374e+01	-6.313056e+02
1.490000e-06	-5.399694e-06	-9.588032e-09	-4.104050e+01	-6.302037e+02
1.500000e-06	-5.372720e-06	-9.563348e-09	-4.083547e+01	-6.290941e+02
1.510000e-06	-5.345381e-06	-9.537308e-09	-4.062769e+01	-6.279758e+02
1.520000e-06	-5.317823e-06	-9.508101e-09	-4.041823e+01	-6.268475e+02
1.530000e-06	-5.290148e-06	-9.487384e-09	-4.020789e+01	-6.257076e+02
1.540000e-06	-5.262311e-06	-9.470109e-09	-3.999631e+01	-6.245545e+02
1.550000e-06	-5.234268e-06	-9.453338e-09	-3.978317e+01	-6.233861e+02
1.560000e-06	-5.206125e-06	-9.435213e-09	-3.956927e+01	-6.222004e+02
1.570000e-06	-5.177975e-06	-9.416648e-09	-3.935532e+01	-6.209953e+02
1.580000e-06	-5.149745e-06	-9.403896e-09	-3.914075e+01	-6.197688e+02
1.590000e-06	-5.121411e-06	-9.389487e-09	-3.892540e+01	-6.185190e+02
1.600000e-06	-5.093020e-06	-9.375116e-09	-3.870961e+01	-6.172444e+02
1.610000e-06	-5.064541e-06	-9.353620e-09	-3.849316e+01	-6.159438e+02
1.620000e-06	-5.035980e-06	-9.323966e-09	-3.827608e+01	-6.146161e+02
1.630000e-06	-5.007370e-06	-9.293148e-09	-3.805863e+01	-6.132611e+02
1.640000e-06	-4.978739e-06	-9.264207e-09	-3.784102e+01	-6.118787e+02
1.650000e-06	-4.950069e-06	-9.241199e-09	-3.762311e+01	-6.104693e+02
1.660000e-06	-4.921278e-06	-9.221361e-09	-3.740429e+01	-6.090339e+02
1.670000e-06	-4.892269e-06	-9.206201e-09	-3.718380e+01	-6.075738e+02
1.680000e-06	-4.863155e-06	-9.187997e-09	-3.696252e+01	-6.060904e+02
1.690000e-06	-4.833988e-06	-9.165438e-09	-3.674083e+01	-6.045857e+02
1.700000e-06	-4.804648e-06	-9.139800e-09	-3.651783e+01	-6.030616e+02
1.710000e-06	-4.775004e-06	-9.108471e-09	-3.629253e+01	-6.015200e+02
1.720000e-06	-4.745155e-06	-9.075719e-09	-3.606566e+01	-5.999629e+02
1.730000e-06	-4.715290e-06	-9.042503e-09	-3.583866e+01	-5.983921e+02
1.740000e-06	-4.685250e-06	-9.014440e-09	-3.561035e+01	-5.968091e+02
1.750000e-06	-4.655066e-06	-8.994405e-09	-3.538093e+01	-5.952151e+02
1.760000e-06	-4.624829e-06	-8.980701e-09	-3.515111e+01	-5.936110e+02
1.770000e-06	-4.594542e-06	-8.966421e-09	-3.492092e+01	-5.919973e+02
1.780000e-06	-4.564269e-06	-8.945864e-09	-3.469083e+01	-5.903740e+02
1.790000e-06	-4.533848e-06	-8.921523e-09	-3.445961e+01	-5.887408e+02
1.800000e-06	-4.503318e-06	-8.888005e-09	-3.422757e+01	-5.870971e+02
1.810000e-06	-4.472715e-06	-8.850056e-09	-3.399497e+01	-5.854420e+02
1.820000e-06	-4.442001e-06	-8.813282e-09	-3.376153e+01	-5.837742e+02
1.830000e-06	-4.411205e-06	-8.782313e-09	-3.352746e+01	-5.820927e+02
1.840000e-06	-4.380365e-06	-8.761792e-09	-3.329306e+01	-5.803961e+02
1.850000e-06	-4.349502e-06	-8.744457e-09	-3.305849e+01	-5.786833e+02
1.860000e-06	-4.318465e-06	-8.726613e-09	-3.282259e+01	-5.769531e+02
1.870000e-06	-4.287158e-06	-8.706227e-09	-3.258464e+01	-5.752049e+02
1.880000e-06	-4.255676e-06	-8.683520e-09	-3.234536e+01	-5.734383e+02
1.890000e-06	-4.224137e-06	-8.655731e-09	-3.210565e+01	-5.716529e+02
1.900000e-06	-4.192578e-06	-8.624170e-09	-3.186579e+01	-5.698492e+02
1.910000e-06	-4.160925e-06	-8.589325e-09	-3.162520e+01	-5.680278e+02
1.920000e-06	-4.129185e-06	-8.552220e-09	-3.138396e+01	-5.661897e+02
1.930000e-06	-4.097395e-06	-8.521035e-09	-3.114234e+01	-5.643361e+02
1.940000e-06	-4.065474e-06	-8.496457e-09	-3.089973e+01	-5.624686e+02
1.950000e-06	-4.033393e-06	-8.479084e-09	-3.065590e+01	-5.605889e+02
1.960000e-06	-4.001283e-06	-8.461261e-09	-3.041184e+01	-5.586988e+02
1.970000e-06	-3.969159e-06	-8.436891e-09	-3.016768e+01	-5.567998e+02
1.980000e-06	-3.936932e-06	-8.409372e-09	-2.992274e+01	-5.548936e+02
1.990000e-06	-3.904605e-06	-8.375239e-09	-2.967704e+01	-5.529816e+02
2.000000e-06	-3.872192e-06	-8.337318e-09	-2.943068e+01	-5.510646e+02
2.010000e-06	-3.839745e-06	-8.301737e-09	-2.918407e+01	-5.491433e+02
2.020000e-06	-3.807238e-06	-8.273319e-09	-2.893700e+01	-5.472178e+02
2.030000e-06	-3.774615e-06	-8.252445e-09	-2.868904e+01	-5.452877e+02
2.040000e-06	-3.741841e-06	-8.228851e-09	-2.843994e+01	-5.433523e+02
2.050000e-06	-3.708983e-06	-8.195631e-09	-2.819021e+01	-5.414101e+02
2.060000e-06	-3.676115e-06	-8.162553e-09	-2.794039e+01	-5.394595e+02
2.070000e-06	-3.643291e-06	-8.132960e-09	-2.769092e+01	-5.374982e+02
2.080000e-06	-3.610401e-06	-8.105871e-09	-2.744093e+01	-5.355240e+02
2.090000e-06	-3.577369e-06	-8.075946e-09	-2.718987e+01	-5.335340e+02
2.100000e-06	-3.544197e-06	-8.038960e-09	-2.693775e+01	-5.315257e+02
2.110000e-06	-3.510925e-06	-8.004958e-09	-2.668486e+01	-5.294963e+02
2.120000e-06	-3.477539e-06	-7.974254e-09	-2.643111e+01	-5.274430e+02
2.130000e-06	-3.444055e-06	-7.945233e-09	-2.617662e+01	-5.253635e+02
2.140000e-06	-3.410544e-06	-7.912386e-09	-2.592191e+01	-5.232554e+02
2.150000e-06	-3.376810e-06	-7.877923e-09	-2.566552e+01	-5.211168e+02
2.160000e-06	-3.342830e-06	-7.847109e-09	-2.540726e+01	-5.189460e+02
2.170000e-06	-3.308633e-06	-7.816744e-09	-2.514734e+01	-5.167420e+02
2.180000e-06	-3.274319e-06	-7.785911e-09	-2.488653e+01	-5.145038e+02
2.190000e-06	-3.239935e-06	-7.751253e-09	-2.462520e+01	-5.122309e+02
2.200000e-06	-3.205475e-06	-7.714773e-09	-2.436328e+01	-5.099230e+02
2.210000e-06	-3.170956e-06	-7.679998e-09	-2.410092e+01	-5.075802e+02
2.220000e-06	-3.136299e-06	-7.645685e-09	-2.383751e+01	-5.052028e+02
2.230000e-06	-3.101406e-06	-7.607716e-09	-2.357230e+01	-5.027910e+02
2.240000e-06	-3.066366e-06	-7.565075e-09	-2.330598e+01	-5.003452e+02
2.250000e-06	-3.031097e-06	-7.523779e-09	-2.303792e+01	-4.978658e+02
2.260000e-06	-2.995608e-06	-7.482251e-09	-2.276819e+01	-4.953531e+02
2.270000e-06	-2.960077e-06	-7.440675e-09	-2.249813e+01	-4.928072e+02
2.280000e-06	-2.924533e-06	-7.398986e-09	-2.222798e+01	-4.902282e+02
2.290000e-06	-2.889009e-06	-7.357921e-09	-2.195797e+01	-4.876158e+02
2.300000e-06	-2.853332e-06	-7.322863e-09	-2.168682e+01	-4.849698e+02
2.310000e-06	-2.817419e-06	-7.286943e-09	-2.141385e+01	-4.822896e+02
2.320000e-06	-2.781395e-06	-7.244830e-09	-2.114006e+01	-4.795746e+02
2.330000e-06	-2.745286e-06	-7.194134e-09	-2.086561e+01	-4.768240e+02
2.340000e-06	-2.709211e-06	-7.142592e-09	-2.059142e+01	-4.740373e+02
2.350000e-06	-2.673183e-06	-7.093555e-09	-2.031759e+01	-4.712136e+02
2.360000e-06	-2.636996e-06	-7.043499e-09	-2.004255e+01	-4.683524e+02
2.370000e-06	-2.600666e-06	-6.995212e-09	-1.976642e+01	-4.654532e+02
2.380000e-06	-2.564275e-06	-6.951289e-09	-1.948983e+01	-4.625159e+02
2.390000e-06	-2.527921e-06	-6.911277e-09	-1.921352e+01	-4.595403e+02
2.400000e-06	-2.491544e-06	-6.869169e-09	-1.893703e+01	-4.565269e+02
2.410000e-06	-2.455105e-06	-6.822444e-09	-1.866008e+01	-4.534762e+02
2.420000e-06	-2.418650e-06	-6.769741e-09	-1.838300e+01	-4.503892e+02
2.430000e-06	-2.382147e-06	-6.714605e-09	-1.810556e+01	-4.472668e+02
2.440000e-06	-2.345657e-06	-6.659889e-09	-1.782822e+01	-4.441105e+02
2.450000e-06	-2.309208e-06	-6.604603e-09	-1.755118e+01	-4.409218e+02
2.460000e-06	-2.272739e-06	-6.553138e-09	-1.727400e+01	-4.377024e+02
2.470000e-06	-2.236215e-06	-6.506151e-09	-1.699640e+01	-4.344538e+02
2.480000e-06	-2.199668e-06	-6.462293e-09	-1.671862e+01	-4.311778e+02
2.490000e-06	-2.163085e-06	-6.419890e-09	-1.644057e+01	-4.278758e+02
2.500000e-06	-2.126441e-06	-6.372781e-09	-1.616206e+01	-4.245491e+02
2.510000e-06	-2.089754e-06	-6.318646e-09	-1.588322e+01	-4.211989e+02
2.520000e-06	-2.053021e-06	-6.259612e-09	-1.560403e+01	-4.178259e+02
2.530000e-06	-2.016302e-06	-6.205060e-09	-1.532495e+01	-4.144306e+02
2.540000e-06	-1.979551e-06	-6.153327e-09	-1.504562e+01	-4.110132e+02
2.550000e-06	-1.942801e-06	-6.097766e-09	-1.476630e+01	-4.075735e+02
2.560000e-06	-1.905946e-06	-6.042983e-09	-1.448619e+01	-4.041111e+02
2.570000e-06	-1.868938e-06	-5.992389e-09	-1.420491e+01	-4.006251e+02
2.580000e-06	-1.832036e-06	-5.944125e-09	-1.392443e+01	-3.971146e+02
2.590000e-06	-1.795118e-06	-5.889762e-09	-1.364384e+01	-3.935786e+02
2.600000e-06	-1.758109e-06	-5.830200e-09	-1.336255e+01	-3.900158e+02
2.610000e-06	-1.721154e-06	-5.773418e-09	-1.308167e+01	-3.864250e+02
2.620000e-06	-1.684030e-06	-5.718455e-09	-1.279951e+01	-3.828051e+02
2.630000e-06	-1.646803e-06	-5.659862e-09	-1.251657e+01	-3.791548e+02
2.640000e-06	-1.609730e-06	-5.598122e-09	-1.223479e+01	-3.754732e+02
2.650000e-06	-1.572455e-06	-5.536639e-09	-1.195148e+01	-3.717596e+02
2.660000e-06	-1.535086e-06	-5.476210e-09	-1.166746e+01	-3.680133e+02
2.670000e-06	-1.497912e-06	-5.419029e-09	-1.138491e+01	-3.642340e+02
2.680000e-06	-1.460646e-06	-5.362091e-09	-1.110167e+01	-3.604213e+02
2.690000e-06	-1.423194e-06	-5.303344e-09	-1.081702e+01	-3.565751e+02
2.700000e-06	-1.385703e-06	-5.243117e-09	-1.053207e+01	-3.526953e+02
2.710000e-06	-1.348184e-06	-5.181075e-09	-1.024690e+01	-3.487819e+02
2.720000e-06	-1.310581e-06	-5.117983e-09	-9.961103e+00	-3.448347e+02
2.730000e-06	-1.272942e-06	-5.054294e-09	-9.675025e+00	-3.408535e+02
2.740000e-06	-1.235302e-06	-4.991672e-09	-9.388937e+00	-3.368379e+02
2.750000e-06	-1.197618e-06	-4.926030e-09	-9.102521e+00	-3.327871e+02
2.760000e-06	-1.159981e-06	-4.859891e-09	-8.816465e+00	-3.287001e+02
2.770000e-06	-1.122320e-06	-4.792441e-09	-8.530220e+00	-3.245755e+02
2.780000e-06	-1.084528e-06	-4.720918e-09	-8.242981e+00	-3.204117e+02
2.790000e-06	-1.046793e-06	-4.653346e-09	-7.956173e+00	-3.162064e+02
2.800000e-06	-1.009038e-06	-4.587300e-09	-7.669213e+00	-3.119572e+02
2.810000e-06	-9.712300e-07	-4.528108e-09	-7.381856e+00	-3.076614e+02
2.820000e-06	-9.334259e-07	-4.470563e-09	-7.094525e+00	-3.033159e+02
2.830000e-06	-8.955404e-07	-4.406029e-09	-6.806575e+00	-2.989175e+02
2.840000e-06	-8.576262e-07	-4.337401e-09	-6.518407e+00	-2.944630e+02
