# Temperatura_=_20.0
# Concentracion g/m^3_=_10000.0
# C_Vs_to_Am_M_A/Vsm_=_65563218390.804596
# pendiente_HvsI_1/m_=_3716.3
# ordenada_HvsI_A/m_=_1297.0
# frecuencia_Hz_=_81228.8374640739

Tiempo_(s)	Campo_(V.s)	Magnetizacion_(V.s)	Campo_(kA/m)	Magnetizacion_(A/m)
0.000000e+00	-7.551935e-06	-1.087490e-08	-5.698628e+01	-7.099388e+02
1.000000e-08	-7.552038e-06	-1.087719e-08	-5.698706e+01	-7.098372e+02
2.000000e-08	-7.551966e-06	-1.088049e-08	-5.698652e+01	-7.097110e+02
3.000000e-08	-7.551691e-06	-1.088220e-08	-5.698444e+01	-7.095585e+02
4.000000e-08	-7.551327e-06	-1.087955e-08	-5.698169e+01	-7.093792e+02
5.000000e-08	-7.550896e-06	-1.085876e-08	-5.697844e+01	-7.091734e+02
6.000000e-08	-7.550295e-06	-1.079211e-08	-5.697391e+01	-7.089425e+02
7.000000e-08	-7.549532e-06	-1.074387e-08	-5.696815e+01	-7.086891e+02
8.000000e-08	-7.548646e-06	-1.065634e-08	-5.696146e+01	-7.084165e+02
9.000000e-08	-7.547572e-06	-1.068819e-08	-5.695336e+01	-7.081292e+02
1.000000e-07	-7.546287e-06	-1.091597e-08	-5.694366e+01	-7.078323e+02
1.100000e-07	-7.544666e-06	-1.115075e-08	-5.693143e+01	-7.075315e+02
1.200000e-07	-7.542729e-06	-1.121022e-08	-5.691682e+01	-7.072328e+02
1.300000e-07	-7.540729e-06	-1.110845e-08	-5.690172e+01	-7.069424e+02
1.400000e-07	-7.538447e-06	-1.103427e-08	-5.688450e+01	-7.066663e+02
1.500000e-07	-7.535746e-06	-1.084148e-08	-5.686412e+01	-7.064100e+02
1.600000e-07	-7.532724e-06	-1.078201e-08	-5.684131e+01	-7.061784e+02
1.700000e-07	-7.529456e-06	-1.071974e-08	-5.681666e+01	-7.059753e+02
1.800000e-07	-7.525852e-06	-1.057104e-08	-5.678946e+01	-7.058036e+02
1.900000e-07	-7.521955e-06	-1.065374e-08	-5.676005e+01	-7.056647e+02
2.000000e-07	-7.517866e-06	-1.068509e-08	-5.672920e+01	-7.055587e+02
2.100000e-07	-7.513620e-06	-1.084112e-08	-5.669716e+01	-7.054844e+02
2.200000e-07	-7.509357e-06	-1.085883e-08	-5.666499e+01	-7.054390e+02
2.300000e-07	-7.504980e-06	-1.083119e-08	-5.663196e+01	-7.054186e+02
2.400000e-07	-7.500483e-06	-1.100964e-08	-5.659803e+01	-7.054178e+02
2.500000e-07	-7.495904e-06	-1.094202e-08	-5.656347e+01	-7.054306e+02
2.600000e-07	-7.491133e-06	-1.089041e-08	-5.652747e+01	-7.054498e+02
2.700000e-07	-7.486165e-06	-1.086721e-08	-5.648998e+01	-7.054682e+02
2.800000e-07	-7.480966e-06	-1.088215e-08	-5.645076e+01	-7.054781e+02
2.900000e-07	-7.475482e-06	-1.082547e-08	-5.640937e+01	-7.054719e+02
3.000000e-07	-7.469786e-06	-1.080713e-08	-5.636639e+01	-7.054425e+02
3.100000e-07	-7.463970e-06	-1.082201e-08	-5.632250e+01	-7.053836e+02
3.200000e-07	-7.458011e-06	-1.068650e-08	-5.627754e+01	-7.052895e+02
3.300000e-07	-7.451917e-06	-1.081927e-08	-5.623155e+01	-7.051559e+02
3.400000e-07	-7.445665e-06	-1.090872e-08	-5.618438e+01	-7.049796e+02
3.500000e-07	-7.439235e-06	-1.086097e-08	-5.613586e+01	-7.047588e+02
3.600000e-07	-7.432660e-06	-1.076951e-08	-5.608624e+01	-7.044932e+02
3.700000e-07	-7.425844e-06	-1.075282e-08	-5.603481e+01	-7.041837e+02
3.800000e-07	-7.418884e-06	-1.081196e-08	-5.598229e+01	-7.038324e+02
3.900000e-07	-7.411690e-06	-1.073759e-08	-5.592800e+01	-7.034427e+02
4.000000e-07	-7.404281e-06	-1.074521e-08	-5.587210e+01	-7.030189e+02
4.100000e-07	-7.396658e-06	-1.071314e-08	-5.581457e+01	-7.025659e+02
4.200000e-07	-7.388750e-06	-1.076060e-08	-5.575490e+01	-7.020891e+02
4.300000e-07	-7.380679e-06	-1.081950e-08	-5.569399e+01	-7.015940e+02
4.400000e-07	-7.372418e-06	-1.076991e-08	-5.563166e+01	-7.010864e+02
4.500000e-07	-7.364015e-06	-1.072047e-08	-5.556825e+01	-7.005714e+02
4.600000e-07	-7.355555e-06	-1.067022e-08	-5.550441e+01	-7.000539e+02
4.700000e-07	-7.347057e-06	-1.072121e-08	-5.544029e+01	-6.995379e+02
4.800000e-07	-7.338468e-06	-1.067777e-08	-5.537548e+01	-6.990268e+02
4.900000e-07	-7.329786e-06	-1.064253e-08	-5.530997e+01	-6.985229e+02
5.000000e-07	-7.320825e-06	-1.063264e-08	-5.524235e+01	-6.980278e+02
5.100000e-07	-7.311617e-06	-1.063895e-08	-5.517286e+01	-6.975420e+02
5.200000e-07	-7.302207e-06	-1.071840e-08	-5.510185e+01	-6.970654e+02
5.300000e-07	-7.292477e-06	-1.067401e-08	-5.502843e+01	-6.965971e+02
5.400000e-07	-7.282352e-06	-1.064238e-08	-5.495203e+01	-6.961355e+02
5.500000e-07	-7.271953e-06	-1.062305e-08	-5.487356e+01	-6.956787e+02
5.600000e-07	-7.261232e-06	-1.064121e-08	-5.479266e+01	-6.952247e+02
5.700000e-07	-7.250160e-06	-1.063285e-08	-5.470911e+01	-6.947713e+02
5.800000e-07	-7.238899e-06	-1.057353e-08	-5.462414e+01	-6.943166e+02
5.900000e-07	-7.227408e-06	-1.058188e-08	-5.453743e+01	-6.938588e+02
6.000000e-07	-7.215585e-06	-1.058458e-08	-5.444821e+01	-6.933969e+02
6.100000e-07	-7.203438e-06	-1.063461e-08	-5.435655e+01	-6.929302e+02
6.200000e-07	-7.191163e-06	-1.060420e-08	-5.426392e+01	-6.924587e+02
6.300000e-07	-7.178728e-06	-1.056444e-08	-5.417009e+01	-6.919829e+02
6.400000e-07	-7.166109e-06	-1.057681e-08	-5.407487e+01	-6.915042e+02
6.500000e-07	-7.153411e-06	-1.057402e-08	-5.397905e+01	-6.910244e+02
6.600000e-07	-7.140427e-06	-1.057713e-08	-5.388107e+01	-6.905456e+02
6.700000e-07	-7.127128e-06	-1.051975e-08	-5.378072e+01	-6.900703e+02
6.800000e-07	-7.113734e-06	-1.052234e-08	-5.367965e+01	-6.896014e+02
6.900000e-07	-7.100135e-06	-1.053359e-08	-5.357704e+01	-6.891415e+02
7.000000e-07	-7.086358e-06	-1.054039e-08	-5.347308e+01	-6.886930e+02
7.100000e-07	-7.072464e-06	-1.053564e-08	-5.336823e+01	-6.882583e+02
7.200000e-07	-7.058403e-06	-1.050842e-08	-5.326213e+01	-6.878389e+02
7.300000e-07	-7.044172e-06	-1.053604e-08	-5.315474e+01	-6.874360e+02
7.400000e-07	-7.029736e-06	-1.053012e-08	-5.304581e+01	-6.870499e+02
7.500000e-07	-7.015221e-06	-1.052783e-08	-5.293628e+01	-6.866803e+02
7.600000e-07	-7.000584e-06	-1.048963e-08	-5.282583e+01	-6.863261e+02
7.700000e-07	-6.985560e-06	-1.046483e-08	-5.271246e+01	-6.859854e+02
7.800000e-07	-6.970287e-06	-1.047942e-08	-5.259721e+01	-6.856556e+02
7.900000e-07	-6.954706e-06	-1.047018e-08	-5.247964e+01	-6.853337e+02
8.000000e-07	-6.938670e-06	-1.047528e-08	-5.235864e+01	-6.850160e+02
8.100000e-07	-6.922490e-06	-1.045791e-08	-5.223654e+01	-6.846986e+02
8.200000e-07	-6.906180e-06	-1.048242e-08	-5.211347e+01	-6.843775e+02
8.300000e-07	-6.889454e-06	-1.049225e-08	-5.198726e+01	-6.840487e+02
8.400000e-07	-6.872542e-06	-1.047621e-08	-5.185964e+01	-6.837083e+02
8.500000e-07	-6.855487e-06	-1.045824e-08	-5.173094e+01	-6.833528e+02
8.600000e-07	-6.838249e-06	-1.042469e-08	-5.160086e+01	-6.829791e+02
8.700000e-07	-6.820920e-06	-1.043251e-08	-5.147010e+01	-6.825848e+02
8.800000e-07	-6.803381e-06	-1.041955e-08	-5.133775e+01	-6.821678e+02
8.900000e-07	-6.785672e-06	-1.042193e-08	-5.120412e+01	-6.817271e+02
9.000000e-07	-6.767777e-06	-1.041944e-08	-5.106909e+01	-6.812618e+02
9.100000e-07	-6.749906e-06	-1.041588e-08	-5.093424e+01	-6.807722e+02
9.200000e-07	-6.732013e-06	-1.042275e-08	-5.079922e+01	-6.802587e+02
9.300000e-07	-6.713896e-06	-1.039361e-08	-5.066251e+01	-6.797224e+02
9.400000e-07	-6.695649e-06	-1.037403e-08	-5.052482e+01	-6.791647e+02
9.500000e-07	-6.677175e-06	-1.034604e-08	-5.038542e+01	-6.785870e+02
9.600000e-07	-6.658445e-06	-1.034945e-08	-5.024408e+01	-6.779912e+02
9.700000e-07	-6.639629e-06	-1.034975e-08	-5.010209e+01	-6.773788e+02
9.800000e-07	-6.620685e-06	-1.033604e-08	-4.995914e+01	-6.767514e+02
9.900000e-07	-6.601391e-06	-1.033342e-08	-4.981355e+01	-6.761102e+02
1.000000e-06	-6.581839e-06	-1.031759e-08	-4.966602e+01	-6.754561e+02
1.010000e-06	-6.562147e-06	-1.032043e-08	-4.951742e+01	-6.747896e+02
1.020000e-06	-6.542306e-06	-1.029693e-08	-4.936770e+01	-6.741110e+02
1.030000e-06	-6.522343e-06	-1.027845e-08	-4.921706e+01	-6.734199e+02
1.040000e-06	-6.502197e-06	-1.026720e-08	-4.906505e+01	-6.727157e+02
1.050000e-06	-6.481909e-06	-1.025412e-08	-4.891196e+01	-6.719975e+02
1.060000e-06	-6.461603e-06	-1.024774e-08	-4.875873e+01	-6.712643e+02
1.070000e-06	-6.441267e-06	-1.022260e-08	-4.860527e+01	-6.705148e+02
1.080000e-06	-6.420811e-06	-1.021343e-08	-4.845091e+01	-6.697478e+02
1.090000e-06	-6.400271e-06	-1.019622e-08	-4.829592e+01	-6.689622e+02
1.100000e-06	-6.379692e-06	-1.018631e-08	-4.814063e+01	-6.681571e+02
1.110000e-06	-6.358909e-06	-1.017067e-08	-4.798381e+01	-6.673318e+02
1.120000e-06	-6.337823e-06	-1.014921e-08	-4.782470e+01	-6.664861e+02
1.130000e-06	-6.316535e-06	-1.014532e-08	-4.766405e+01	-6.656202e+02
1.140000e-06	-6.295221e-06	-1.013336e-08	-4.750322e+01	-6.647347e+02
1.150000e-06	-6.273835e-06	-1.012756e-08	-4.734185e+01	-6.638308e+02
1.160000e-06	-6.252157e-06	-1.010391e-08	-4.717826e+01	-6.629099e+02
1.170000e-06	-6.230298e-06	-1.008538e-08	-4.701332e+01	-6.619740e+02
1.180000e-06	-6.208321e-06	-1.007175e-08	-4.684748e+01	-6.610253e+02
1.190000e-06	-6.186153e-06	-1.005399e-08	-4.668020e+01	-6.600663e+02
1.200000e-06	-6.163859e-06	-1.004245e-08	-4.651197e+01	-6.590994e+02
1.210000e-06	-6.141469e-06	-1.001697e-08	-4.634302e+01	-6.581273e+02
1.220000e-06	-6.118929e-06	-1.000856e-08	-4.617294e+01	-6.571524e+02
1.230000e-06	-6.096215e-06	-9.997950e-09	-4.600154e+01	-6.561770e+02
1.240000e-06	-6.073354e-06	-9.986216e-09	-4.582903e+01	-6.552030e+02
1.250000e-06	-6.050386e-06	-9.968163e-09	-4.565572e+01	-6.542319e+02
1.260000e-06	-6.027214e-06	-9.939491e-09	-4.548086e+01	-6.532650e+02
1.270000e-06	-6.003903e-06	-9.925336e-09	-4.530496e+01	-6.523028e+02
1.280000e-06	-5.980516e-06	-9.908707e-09	-4.512849e+01	-6.513456e+02
1.290000e-06	-5.956836e-06	-9.900647e-09	-4.494980e+01	-6.503931e+02
1.300000e-06	-5.932995e-06	-9.887037e-09	-4.476989e+01	-6.494446e+02
1.310000e-06	-5.909036e-06	-9.880440e-09	-4.458910e+01	-6.484992e+02
1.320000e-06	-5.884865e-06	-9.879280e-09	-4.440670e+01	-6.475555e+02
1.330000e-06	-5.860684e-06	-9.867359e-09	-4.422424e+01	-6.466120e+02
1.340000e-06	-5.836464e-06	-9.852813e-09	-4.404148e+01	-6.456672e+02
1.350000e-06	-5.812115e-06	-9.819379e-09	-4.385774e+01	-6.447196e+02
1.360000e-06	-5.787644e-06	-9.794330e-09	-4.367309e+01	-6.437676e+02
1.370000e-06	-5.763092e-06	-9.775220e-09	-4.348782e+01	-6.428099e+02
1.380000e-06	-5.738435e-06	-9.765095e-09	-4.330176e+01	-6.418453e+02
1.390000e-06	-5.713541e-06	-9.759816e-09	-4.311391e+01	-6.408732e+02
1.400000e-06	-5.688418e-06	-9.745860e-09	-4.292434e+01	-6.398928e+02
1.410000e-06	-5.663129e-06	-9.738168e-09	-4.273351e+01	-6.389039e+02
1.420000e-06	-5.637672e-06	-9.720660e-09	-4.254141e+01	-6.379065e+02
1.430000e-06	-5.612019e-06	-9.702287e-09	-4.234783e+01	-6.369007e+02
1.440000e-06	-5.586300e-06	-9.675168e-09	-4.215376e+01	-6.358868e+02
1.450000e-06	-5.560483e-06	-9.653261e-09	-4.195895e+01	-6.348651e+02
1.460000e-06	-5.534293e-06	-9.641622e-09	-4.176132e+01	-6.338361e+02
1.470000e-06	-5.507846e-06	-9.629507e-09	-4.156175e+01	-6.328000e+02
1.480000e-06	-5.481266e-06	-9.620678e-09	-4.136118e+01	-6.317568e+02
1.490000e-06	-5.454228e-06	-9.601207e-09	-4.115716e+01	-6.307063e+02
1.500000e-06	-5.426804e-06	-9.585190e-09	-4.095022e+01	-6.296482e+02
1.510000e-06	-5.399227e-06	-9.565267e-09	-4.074213e+01	-6.285816e+02
1.520000e-06	-5.371563e-06	-9.545831e-09	-4.053338e+01	-6.275052e+02
1.530000e-06	-5.343825e-06	-9.527526e-09	-4.032407e+01	-6.264176e+02
1.540000e-06	-5.315925e-06	-9.506703e-09	-4.011354e+01	-6.253167e+02
1.550000e-06	-5.287879e-06	-9.492842e-09	-3.990190e+01	-6.242005e+02
1.560000e-06	-5.259708e-06	-9.473390e-09	-3.968933e+01	-6.230664e+02
1.570000e-06	-5.231436e-06	-9.454620e-09	-3.947598e+01	-6.219119e+02
1.580000e-06	-5.203068e-06	-9.429887e-09	-3.926193e+01	-6.207344e+02
1.590000e-06	-5.174640e-06	-9.407538e-09	-3.904741e+01	-6.195312e+02
1.600000e-06	-5.146139e-06	-9.394519e-09	-3.883234e+01	-6.182999e+02
1.610000e-06	-5.117612e-06	-9.380060e-09	-3.861708e+01	-6.170382e+02
1.620000e-06	-5.089008e-06	-9.366609e-09	-3.840124e+01	-6.157444e+02
1.630000e-06	-5.060355e-06	-9.343362e-09	-3.818502e+01	-6.144169e+02
1.640000e-06	-5.031619e-06	-9.320784e-09	-3.796819e+01	-6.130547e+02
1.650000e-06	-5.002745e-06	-9.292929e-09	-3.775031e+01	-6.116574e+02
1.660000e-06	-4.973837e-06	-9.262726e-09	-3.753216e+01	-6.102250e+02
1.670000e-06	-4.944729e-06	-9.239002e-09	-3.731252e+01	-6.087581e+02
1.680000e-06	-4.915452e-06	-9.214257e-09	-3.709160e+01	-6.072576e+02
1.690000e-06	-4.886174e-06	-9.194005e-09	-3.687067e+01	-6.057251e+02
1.700000e-06	-4.856787e-06	-9.170262e-09	-3.664892e+01	-6.041624e+02
1.710000e-06	-4.827076e-06	-9.150478e-09	-3.642472e+01	-6.025718e+02
1.720000e-06	-4.797127e-06	-9.126128e-09	-3.619873e+01	-6.009555e+02
1.730000e-06	-4.767129e-06	-9.093782e-09	-3.597236e+01	-5.993160e+02
1.740000e-06	-4.737051e-06	-9.059548e-09	-3.574540e+01	-5.976559e+02
1.750000e-06	-4.706812e-06	-9.025806e-09	-3.551722e+01	-5.959775e+02
1.760000e-06	-4.676429e-06	-9.002982e-09	-3.528795e+01	-5.942831e+02
1.770000e-06	-4.646060e-06	-8.978735e-09	-3.505879e+01	-5.925748e+02
1.780000e-06	-4.615694e-06	-8.955654e-09	-3.482965e+01	-5.908542e+02
1.790000e-06	-4.585140e-06	-8.931712e-09	-3.459909e+01	-5.891230e+02
1.800000e-06	-4.554435e-06	-8.906216e-09	-3.436739e+01	-5.873821e+02
1.810000e-06	-4.523679e-06	-8.878103e-09	-3.413531e+01	-5.856324e+02
1.820000e-06	-4.492869e-06	-8.841759e-09	-3.390282e+01	-5.838744e+02
1.830000e-06	-4.461962e-06	-8.809028e-09	-3.366960e+01	-5.821084e+02
1.840000e-06	-4.430904e-06	-8.782200e-09	-3.343524e+01	-5.803343e+02
1.850000e-06	-4.399804e-06	-8.761601e-09	-3.320056e+01	-5.785519e+02
1.860000e-06	-4.368517e-06	-8.737744e-09	-3.296447e+01	-5.767610e+02
1.870000e-06	-4.337080e-06	-8.712559e-09	-3.272725e+01	-5.749612e+02
1.880000e-06	-4.305589e-06	-8.688029e-09	-3.248962e+01	-5.731522e+02
1.890000e-06	-4.273979e-06	-8.661654e-09	-3.225110e+01	-5.713336e+02
1.900000e-06	-4.242306e-06	-8.639237e-09	-3.201209e+01	-5.695052e+02
1.910000e-06	-4.210504e-06	-8.610542e-09	-3.177212e+01	-5.676668e+02
1.920000e-06	-4.178641e-06	-8.577711e-09	-3.153168e+01	-5.658186e+02
1.930000e-06	-4.146724e-06	-8.544595e-09	-3.129084e+01	-5.639605e+02
1.940000e-06	-4.114652e-06	-8.516899e-09	-3.104882e+01	-5.620929e+02
1.950000e-06	-4.082458e-06	-8.494420e-09	-3.080590e+01	-5.602161e+02
1.960000e-06	-4.050137e-06	-8.469780e-09	-3.056200e+01	-5.583305e+02
1.970000e-06	-4.017674e-06	-8.446876e-09	-3.031703e+01	-5.564366e+02
1.980000e-06	-3.985198e-06	-8.421929e-09	-3.007198e+01	-5.545348e+02
1.990000e-06	-3.952687e-06	-8.393177e-09	-2.982665e+01	-5.526254e+02
2.000000e-06	-3.920114e-06	-8.357750e-09	-2.958086e+01	-5.507088e+02
2.010000e-06	-3.887426e-06	-8.320683e-09	-2.933419e+01	-5.487850e+02
2.020000e-06	-3.854656e-06	-8.290230e-09	-2.908692e+01	-5.468541e+02
2.030000e-06	-3.821857e-06	-8.266569e-09	-2.883942e+01	-5.449157e+02
2.040000e-06	-3.788964e-06	-8.244334e-09	-2.859121e+01	-5.429693e+02
2.050000e-06	-3.756038e-06	-8.214024e-09	-2.834276e+01	-5.410143e+02
2.060000e-06	-3.722931e-06	-8.181284e-09	-2.809293e+01	-5.390498e+02
2.070000e-06	-3.689635e-06	-8.145693e-09	-2.784168e+01	-5.370745e+02
2.080000e-06	-3.656442e-06	-8.115063e-09	-2.759121e+01	-5.350873e+02
2.090000e-06	-3.623096e-06	-8.091838e-09	-2.733958e+01	-5.330866e+02
2.100000e-06	-3.589476e-06	-8.064819e-09	-2.708589e+01	-5.310708e+02
2.110000e-06	-3.555750e-06	-8.033749e-09	-2.683140e+01	-5.290383e+02
2.120000e-06	-3.521934e-06	-7.998422e-09	-2.657622e+01	-5.269874e+02
2.130000e-06	-3.488077e-06	-7.967827e-09	-2.632074e+01	-5.249162e+02
2.140000e-06	-3.454025e-06	-7.936755e-09	-2.606379e+01	-5.228231e+02
2.150000e-06	-3.419642e-06	-7.903584e-09	-2.580433e+01	-5.207065e+02
2.160000e-06	-3.385174e-06	-7.869636e-09	-2.554424e+01	-5.185647e+02
2.170000e-06	-3.350693e-06	-7.835556e-09	-2.528405e+01	-5.163961e+02
2.180000e-06	-3.316076e-06	-7.805258e-09	-2.502284e+01	-5.141993e+02
2.190000e-06	-3.281480e-06	-7.772268e-09	-2.476178e+01	-5.119730e+02
2.200000e-06	-3.246853e-06	-7.737051e-09	-2.450049e+01	-5.097158e+02
2.210000e-06	-3.211978e-06	-7.699029e-09	-2.423733e+01	-5.074265e+02
2.220000e-06	-3.176888e-06	-7.663732e-09	-2.397253e+01	-5.051039e+02
2.230000e-06	-3.141782e-06	-7.628137e-09	-2.370763e+01	-5.027470e+02
2.240000e-06	-3.106498e-06	-7.587467e-09	-2.344138e+01	-5.003546e+02
2.250000e-06	-3.070957e-06	-7.548265e-09	-2.317319e+01	-4.979257e+02
2.260000e-06	-3.035413e-06	-7.509885e-09	-2.290498e+01	-4.954592e+02
2.270000e-06	-2.999782e-06	-7.472591e-09	-2.263611e+01	-4.929543e+02
2.280000e-06	-2.963956e-06	-7.431880e-09	-2.236577e+01	-4.904098e+02
2.290000e-06	-2.928044e-06	-7.388405e-09	-2.209478e+01	-4.878249e+02
2.300000e-06	-2.892088e-06	-7.347233e-09	-2.182346e+01	-4.851989e+02
2.310000e-06	-2.856055e-06	-7.306637e-09	-2.155156e+01	-4.825310e+02
2.320000e-06	-2.819944e-06	-7.263433e-09	-2.127906e+01	-4.798205e+02
2.330000e-06	-2.783828e-06	-7.214399e-09	-2.100654e+01	-4.770672e+02
2.340000e-06	-2.747640e-06	-7.165479e-09	-2.073347e+01	-4.742708e+02
2.350000e-06	-2.711346e-06	-7.119372e-09	-2.045960e+01	-4.714312e+02
2.360000e-06	-2.675078e-06	-7.074362e-09	-2.018592e+01	-4.685487e+02
2.370000e-06	-2.638757e-06	-7.027804e-09	-1.991185e+01	-4.656238e+02
2.380000e-06	-2.602340e-06	-6.977931e-09	-1.963704e+01	-4.626572e+02
2.390000e-06	-2.565940e-06	-6.929135e-09	-1.936238e+01	-4.596499e+02
2.400000e-06	-2.529493e-06	-6.882105e-09	-1.908734e+01	-4.566030e+02
2.410000e-06	-2.492950e-06	-6.834358e-09	-1.881160e+01	-4.535181e+02
2.420000e-06	-2.456378e-06	-6.783570e-09	-1.853563e+01	-4.503968e+02
2.430000e-06	-2.419784e-06	-6.731369e-09	-1.825949e+01	-4.472409e+02
2.440000e-06	-2.383198e-06	-6.680587e-09	-1.798342e+01	-4.440521e+02
2.450000e-06	-2.346540e-06	-6.627984e-09	-1.770680e+01	-4.408325e+02
2.460000e-06	-2.309811e-06	-6.572323e-09	-1.742964e+01	-4.375839e+02
2.470000e-06	-2.273039e-06	-6.518153e-09	-1.715216e+01	-4.343081e+02
2.480000e-06	-2.236213e-06	-6.468285e-09	-1.687428e+01	-4.310070e+02
2.490000e-06	-2.199380e-06	-6.420033e-09	-1.659634e+01	-4.276820e+02
2.500000e-06	-2.162500e-06	-6.369232e-09	-1.631805e+01	-4.243345e+02
2.510000e-06	-2.125583e-06	-6.316232e-09	-1.603947e+01	-4.209658e+02
2.520000e-06	-2.088639e-06	-6.263017e-09	-1.576070e+01	-4.175765e+02
2.530000e-06	-2.051629e-06	-6.210548e-09	-1.548142e+01	-4.141676e+02
2.540000e-06	-2.014567e-06	-6.157123e-09	-1.520175e+01	-4.107392e+02
2.550000e-06	-1.977505e-06	-6.101322e-09	-1.492209e+01	-4.072916e+02
2.560000e-06	-1.940421e-06	-6.047946e-09	-1.464226e+01	-4.038247e+02
2.570000e-06	-1.903202e-06	-5.998833e-09	-1.436141e+01	-4.003384e+02
2.580000e-06	-1.865902e-06	-5.947223e-09	-1.407994e+01	-3.968321e+02
2.590000e-06	-1.828613e-06	-5.889660e-09	-1.379856e+01	-3.933054e+02
2.600000e-06	-1.791344e-06	-5.830785e-09	-1.351733e+01	-3.897577e+02
2.610000e-06	-1.754007e-06	-5.773947e-09	-1.323559e+01	-3.861883e+02
2.620000e-06	-1.716584e-06	-5.717495e-09	-1.295320e+01	-3.825966e+02
2.630000e-06	-1.679199e-06	-5.658901e-09	-1.267110e+01	-3.789819e+02
2.640000e-06	-1.641810e-06	-5.600106e-09	-1.238896e+01	-3.753436e+02
2.650000e-06	-1.604404e-06	-5.544817e-09	-1.210670e+01	-3.716810e+02
2.660000e-06	-1.566979e-06	-5.490822e-09	-1.182429e+01	-3.679935e+02
2.670000e-06	-1.529409e-06	-5.433543e-09	-1.154080e+01	-3.642805e+02
2.680000e-06	-1.491814e-06	-5.373649e-09	-1.125710e+01	-3.605413e+02
2.690000e-06	-1.454245e-06	-5.316876e-09	-1.097361e+01	-3.567751e+02
2.700000e-06	-1.416551e-06	-5.259216e-09	-1.068918e+01	-3.529812e+02
2.710000e-06	-1.378685e-06	-5.196400e-09	-1.040344e+01	-3.491586e+02
2.720000e-06	-1.340796e-06	-5.132393e-09	-1.011754e+01	-3.453062e+02
2.730000e-06	-1.302901e-06	-5.069573e-09	-9.831588e+00	-3.414225e+02
2.740000e-06	-1.264969e-06	-5.013237e-09	-9.545354e+00	-3.375061e+02
2.750000e-06	-1.227103e-06	-4.956259e-09	-9.259616e+00	-3.335551e+02
2.760000e-06	-1.189069e-06	-4.893479e-09	-8.972614e+00	-3.295674e+02
2.770000e-06	-1.150882e-06	-4.827364e-09	-8.684462e+00	-3.255406e+02
2.780000e-06	-1.112829e-06	-4.755918e-09	-8.397319e+00	-3.214721e+02
2.790000e-06	-1.074866e-06	-4.685497e-09	-8.110853e+00	-3.173591e+02
2.800000e-06	-1.036798e-06	-4.614465e-09	-7.823591e+00	-3.131985e+02
2.810000e-06	-9.985841e-07	-4.549649e-09	-7.535233e+00	-3.089872e+02
2.820000e-06	-9.604358e-07	-4.494515e-09	-7.247370e+00	-3.047219e+02
2.830000e-06	-9.222751e-07	-4.437422e-09	-6.959412e+00	-3.003994e+02
2.840000e-06	-8.839194e-07	-4.377710e-09	-6.669983e+00	-2.960164e+02
2.850000e-06	-8.455487e-07	-4.309343e-09	-6.380441e+00	-2.915699e+02
