# Temperatura_=_20.0
# Concentracion g/m^3_=_10000.0
# C_Vs_to_Am_M_A/Vsm_=_65563218390.804596
# pendiente_HvsI_1/m_=_3716.3
# ordenada_HvsI_A/m_=_1297.0
# frecuencia_Hz_=_81232.03654062649

Tiempo_(s)	Campo_(V.s)	Magnetizacion_(V.s)	Campo_(kA/m)	Magnetizacion_(A/m)
0.000000e+00	-7.602296e-06	-1.096419e-08	-5.698171e+01	-7.120770e+02
1.000000e-08	-7.602530e-06	-1.096301e-08	-5.698346e+01	-7.120783e+02
2.000000e-08	-7.602458e-06	-1.096204e-08	-5.698292e+01	-7.121030e+02
3.000000e-08	-7.602212e-06	-1.096217e-08	-5.698108e+01	-7.121519e+02
4.000000e-08	-7.601906e-06	-1.095993e-08	-5.697879e+01	-7.122249e+02
5.000000e-08	-7.601507e-06	-1.093757e-08	-5.697580e+01	-7.123210e+02
6.000000e-08	-7.600906e-06	-1.085966e-08	-5.697129e+01	-7.124382e+02
7.000000e-08	-7.600222e-06	-1.081758e-08	-5.696616e+01	-7.125739e+02
8.000000e-08	-7.599385e-06	-1.083254e-08	-5.695989e+01	-7.127248e+02
9.000000e-08	-7.598216e-06	-1.106204e-08	-5.695113e+01	-7.128869e+02
1.000000e-07	-7.596784e-06	-1.126923e-08	-5.694040e+01	-7.130560e+02
1.100000e-07	-7.595202e-06	-1.107380e-08	-5.692854e+01	-7.132275e+02
1.200000e-07	-7.593538e-06	-1.096785e-08	-5.691607e+01	-7.133969e+02
1.300000e-07	-7.591795e-06	-1.086700e-08	-5.690300e+01	-7.135598e+02
1.400000e-07	-7.589547e-06	-1.086147e-08	-5.688616e+01	-7.137122e+02
1.500000e-07	-7.586888e-06	-1.090421e-08	-5.686622e+01	-7.138502e+02
1.600000e-07	-7.584069e-06	-1.096384e-08	-5.684509e+01	-7.139710e+02
1.700000e-07	-7.580901e-06	-1.103665e-08	-5.682134e+01	-7.140720e+02
1.800000e-07	-7.577501e-06	-1.085848e-08	-5.679586e+01	-7.141517e+02
1.900000e-07	-7.573880e-06	-1.088511e-08	-5.676873e+01	-7.142090e+02
2.000000e-07	-7.569937e-06	-1.087827e-08	-5.673917e+01	-7.142437e+02
2.100000e-07	-7.565736e-06	-1.083056e-08	-5.670768e+01	-7.142562e+02
2.200000e-07	-7.561336e-06	-1.087053e-08	-5.667470e+01	-7.142477e+02
2.300000e-07	-7.556830e-06	-1.092062e-08	-5.664093e+01	-7.142195e+02
2.400000e-07	-7.552226e-06	-1.103584e-08	-5.660642e+01	-7.141734e+02
2.500000e-07	-7.547452e-06	-1.095637e-08	-5.657063e+01	-7.141115e+02
2.600000e-07	-7.542599e-06	-1.092395e-08	-5.653426e+01	-7.140359e+02
2.700000e-07	-7.537609e-06	-1.101842e-08	-5.649686e+01	-7.139483e+02
2.800000e-07	-7.532427e-06	-1.101794e-08	-5.645802e+01	-7.138507e+02
2.900000e-07	-7.527190e-06	-1.088709e-08	-5.641876e+01	-7.137442e+02
3.000000e-07	-7.521727e-06	-1.084816e-08	-5.637782e+01	-7.136300e+02
3.100000e-07	-7.516041e-06	-1.091420e-08	-5.633520e+01	-7.135085e+02
3.200000e-07	-7.510160e-06	-1.086503e-08	-5.629112e+01	-7.133796e+02
3.300000e-07	-7.504097e-06	-1.099941e-08	-5.624568e+01	-7.132429e+02
3.400000e-07	-7.497872e-06	-1.099001e-08	-5.619902e+01	-7.130974e+02
3.500000e-07	-7.491391e-06	-1.082258e-08	-5.615044e+01	-7.129416e+02
3.600000e-07	-7.484789e-06	-1.084074e-08	-5.610096e+01	-7.127741e+02
3.700000e-07	-7.477905e-06	-1.092918e-08	-5.604936e+01	-7.125929e+02
3.800000e-07	-7.470745e-06	-1.093748e-08	-5.599569e+01	-7.123960e+02
3.900000e-07	-7.463461e-06	-1.082854e-08	-5.594110e+01	-7.121816e+02
4.000000e-07	-7.456012e-06	-1.086488e-08	-5.588526e+01	-7.119481e+02
4.100000e-07	-7.448300e-06	-1.088467e-08	-5.582746e+01	-7.116937e+02
4.200000e-07	-7.440384e-06	-1.088381e-08	-5.576813e+01	-7.114176e+02
4.300000e-07	-7.432357e-06	-1.089571e-08	-5.570797e+01	-7.111189e+02
4.400000e-07	-7.424135e-06	-1.081011e-08	-5.564634e+01	-7.107975e+02
4.500000e-07	-7.415738e-06	-1.082621e-08	-5.558340e+01	-7.104535e+02
4.600000e-07	-7.407205e-06	-1.088032e-08	-5.551944e+01	-7.100877e+02
4.700000e-07	-7.398625e-06	-1.088553e-08	-5.545513e+01	-7.097011e+02
4.800000e-07	-7.389948e-06	-1.080454e-08	-5.539009e+01	-7.092955e+02
4.900000e-07	-7.381102e-06	-1.077813e-08	-5.532379e+01	-7.088724e+02
5.000000e-07	-7.372079e-06	-1.082779e-08	-5.525616e+01	-7.084341e+02
5.100000e-07	-7.362819e-06	-1.082051e-08	-5.518675e+01	-7.079827e+02
5.200000e-07	-7.353341e-06	-1.083805e-08	-5.511571e+01	-7.075203e+02
5.300000e-07	-7.343666e-06	-1.077204e-08	-5.504320e+01	-7.070490e+02
5.400000e-07	-7.333781e-06	-1.075509e-08	-5.496910e+01	-7.065709e+02
5.500000e-07	-7.323590e-06	-1.080371e-08	-5.489272e+01	-7.060876e+02
5.600000e-07	-7.313054e-06	-1.079175e-08	-5.481375e+01	-7.056007e+02
5.700000e-07	-7.302169e-06	-1.075523e-08	-5.473216e+01	-7.051113e+02
5.800000e-07	-7.290914e-06	-1.071960e-08	-5.464780e+01	-7.046202e+02
5.900000e-07	-7.279369e-06	-1.075528e-08	-5.456127e+01	-7.041280e+02
6.000000e-07	-7.267590e-06	-1.075988e-08	-5.447298e+01	-7.036350e+02
6.100000e-07	-7.255627e-06	-1.075805e-08	-5.438331e+01	-7.031414e+02
6.200000e-07	-7.243474e-06	-1.071781e-08	-5.429222e+01	-7.026470e+02
6.300000e-07	-7.231112e-06	-1.068949e-08	-5.419957e+01	-7.021518e+02
6.400000e-07	-7.218522e-06	-1.073628e-08	-5.410520e+01	-7.016555e+02
6.500000e-07	-7.205788e-06	-1.071357e-08	-5.400976e+01	-7.011581e+02
6.600000e-07	-7.192875e-06	-1.068080e-08	-5.391296e+01	-7.006595e+02
6.700000e-07	-7.179723e-06	-1.065400e-08	-5.381439e+01	-7.001601e+02
6.800000e-07	-7.166466e-06	-1.067548e-08	-5.371502e+01	-6.996600e+02
6.900000e-07	-7.152990e-06	-1.069871e-08	-5.361402e+01	-6.991600e+02
7.000000e-07	-7.139318e-06	-1.067518e-08	-5.351154e+01	-6.986607e+02
7.100000e-07	-7.125437e-06	-1.066159e-08	-5.340749e+01	-6.981631e+02
7.200000e-07	-7.111233e-06	-1.064853e-08	-5.330103e+01	-6.976683e+02
7.300000e-07	-7.096910e-06	-1.067615e-08	-5.319368e+01	-6.971773e+02
7.400000e-07	-7.082458e-06	-1.065506e-08	-5.308535e+01	-6.966914e+02
7.500000e-07	-7.067772e-06	-1.061867e-08	-5.297527e+01	-6.962114e+02
7.600000e-07	-7.052941e-06	-1.060814e-08	-5.286411e+01	-6.957383e+02
7.700000e-07	-7.037943e-06	-1.061304e-08	-5.275170e+01	-6.952727e+02
7.800000e-07	-7.022706e-06	-1.063586e-08	-5.263749e+01	-6.948150e+02
7.900000e-07	-7.007081e-06	-1.061054e-08	-5.252038e+01	-6.943650e+02
8.000000e-07	-6.991198e-06	-1.059616e-08	-5.240133e+01	-6.939225e+02
8.100000e-07	-6.974950e-06	-1.058856e-08	-5.227955e+01	-6.934865e+02
8.200000e-07	-6.958465e-06	-1.060148e-08	-5.215599e+01	-6.930559e+02
8.300000e-07	-6.941879e-06	-1.059969e-08	-5.203167e+01	-6.926290e+02
8.400000e-07	-6.925201e-06	-1.056835e-08	-5.190666e+01	-6.922039e+02
8.500000e-07	-6.908234e-06	-1.056835e-08	-5.177949e+01	-6.917784e+02
8.600000e-07	-6.890919e-06	-1.056412e-08	-5.164971e+01	-6.913501e+02
8.700000e-07	-6.873447e-06	-1.057325e-08	-5.151875e+01	-6.909167e+02
8.800000e-07	-6.855807e-06	-1.055400e-08	-5.138653e+01	-6.904756e+02
8.900000e-07	-6.838115e-06	-1.053624e-08	-5.125392e+01	-6.900244e+02
9.000000e-07	-6.820260e-06	-1.054042e-08	-5.112009e+01	-6.895609e+02
9.100000e-07	-6.802302e-06	-1.053380e-08	-5.098549e+01	-6.890834e+02
9.200000e-07	-6.784137e-06	-1.052967e-08	-5.084934e+01	-6.885900e+02
9.300000e-07	-6.765873e-06	-1.050308e-08	-5.071244e+01	-6.880797e+02
9.400000e-07	-6.747517e-06	-1.049581e-08	-5.057486e+01	-6.875515e+02
9.500000e-07	-6.728942e-06	-1.048949e-08	-5.043564e+01	-6.870050e+02
9.600000e-07	-6.710121e-06	-1.048355e-08	-5.029457e+01	-6.864400e+02
9.700000e-07	-6.691042e-06	-1.047260e-08	-5.015156e+01	-6.858569e+02
9.800000e-07	-6.671695e-06	-1.045064e-08	-5.000655e+01	-6.852561e+02
9.900000e-07	-6.652124e-06	-1.045186e-08	-4.985986e+01	-6.846383e+02
1.000000e-06	-6.632367e-06	-1.044209e-08	-4.971178e+01	-6.840042e+02
1.010000e-06	-6.612533e-06	-1.043448e-08	-4.956311e+01	-6.833547e+02
1.020000e-06	-6.592636e-06	-1.041412e-08	-4.941398e+01	-6.826906e+02
1.030000e-06	-6.572562e-06	-1.040099e-08	-4.926352e+01	-6.820124e+02
1.040000e-06	-6.552260e-06	-1.039953e-08	-4.911134e+01	-6.813206e+02
1.050000e-06	-6.531800e-06	-1.038072e-08	-4.895799e+01	-6.806154e+02
1.060000e-06	-6.511311e-06	-1.036600e-08	-4.880442e+01	-6.798968e+02
1.070000e-06	-6.490754e-06	-1.034429e-08	-4.865033e+01	-6.791642e+02
1.080000e-06	-6.470141e-06	-1.034055e-08	-4.849584e+01	-6.784172e+02
1.090000e-06	-6.449417e-06	-1.032985e-08	-4.834050e+01	-6.776549e+02
1.100000e-06	-6.428494e-06	-1.030702e-08	-4.818368e+01	-6.768762e+02
1.110000e-06	-6.407494e-06	-1.028979e-08	-4.802627e+01	-6.760801e+02
1.120000e-06	-6.386372e-06	-1.027566e-08	-4.786796e+01	-6.752653e+02
1.130000e-06	-6.365099e-06	-1.027634e-08	-4.770851e+01	-6.744308e+02
1.140000e-06	-6.343706e-06	-1.026064e-08	-4.754816e+01	-6.735756e+02
1.150000e-06	-6.322169e-06	-1.024612e-08	-4.738674e+01	-6.726991e+02
1.160000e-06	-6.300419e-06	-1.023162e-08	-4.722372e+01	-6.718007e+02
1.170000e-06	-6.278434e-06	-1.021738e-08	-4.705893e+01	-6.708805e+02
1.180000e-06	-6.256303e-06	-1.020404e-08	-4.689305e+01	-6.699387e+02
1.190000e-06	-6.234050e-06	-1.018006e-08	-4.672626e+01	-6.689760e+02
1.200000e-06	-6.211676e-06	-1.016591e-08	-4.655855e+01	-6.679936e+02
1.210000e-06	-6.189168e-06	-1.014643e-08	-4.638985e+01	-6.669930e+02
1.220000e-06	-6.166464e-06	-1.013622e-08	-4.621968e+01	-6.659760e+02
1.230000e-06	-6.143446e-06	-1.012125e-08	-4.604715e+01	-6.649447e+02
1.240000e-06	-6.120354e-06	-1.010026e-08	-4.587406e+01	-6.639015e+02
1.250000e-06	-6.097130e-06	-1.008685e-08	-4.569999e+01	-6.628487e+02
1.260000e-06	-6.073752e-06	-1.006330e-08	-4.552477e+01	-6.617887e+02
1.270000e-06	-6.050242e-06	-1.004628e-08	-4.534855e+01	-6.607236e+02
1.280000e-06	-6.026511e-06	-1.002434e-08	-4.517068e+01	-6.596558e+02
1.290000e-06	-6.002767e-06	-1.000981e-08	-4.499271e+01	-6.585868e+02
1.300000e-06	-5.978739e-06	-9.999999e-09	-4.481262e+01	-6.575183e+02
1.310000e-06	-5.954615e-06	-9.990569e-09	-4.463180e+01	-6.564513e+02
1.320000e-06	-5.930527e-06	-9.985514e-09	-4.445125e+01	-6.553865e+02
1.330000e-06	-5.906167e-06	-9.971402e-09	-4.426866e+01	-6.543241e+02
1.340000e-06	-5.881690e-06	-9.957858e-09	-4.408520e+01	-6.532639e+02
1.350000e-06	-5.857097e-06	-9.928305e-09	-4.390087e+01	-6.522056e+02
1.360000e-06	-5.832371e-06	-9.898422e-09	-4.371554e+01	-6.511481e+02
1.370000e-06	-5.807524e-06	-9.875165e-09	-4.352931e+01	-6.500906e+02
1.380000e-06	-5.782621e-06	-9.860614e-09	-4.334265e+01	-6.490316e+02
1.390000e-06	-5.757687e-06	-9.856835e-09	-4.315576e+01	-6.479699e+02
1.400000e-06	-5.732554e-06	-9.845488e-09	-4.296738e+01	-6.469041e+02
1.410000e-06	-5.707228e-06	-9.839315e-09	-4.277755e+01	-6.458329e+02
1.420000e-06	-5.681720e-06	-9.821788e-09	-4.258636e+01	-6.447552e+02
1.430000e-06	-5.655993e-06	-9.794206e-09	-4.239353e+01	-6.436700e+02
1.440000e-06	-5.629993e-06	-9.762868e-09	-4.219865e+01	-6.425764e+02
1.450000e-06	-5.603743e-06	-9.737446e-09	-4.200190e+01	-6.414739e+02
1.460000e-06	-5.577299e-06	-9.726822e-09	-4.180369e+01	-6.403624e+02
1.470000e-06	-5.550595e-06	-9.717511e-09	-4.160353e+01	-6.392415e+02
1.480000e-06	-5.523649e-06	-9.716297e-09	-4.140157e+01	-6.381115e+02
1.490000e-06	-5.496480e-06	-9.707442e-09	-4.119793e+01	-6.369725e+02
1.500000e-06	-5.469068e-06	-9.690919e-09	-4.099246e+01	-6.358248e+02
1.510000e-06	-5.441336e-06	-9.665890e-09	-4.078461e+01	-6.346687e+02
1.520000e-06	-5.413475e-06	-9.634718e-09	-4.057578e+01	-6.335044e+02
1.530000e-06	-5.385701e-06	-9.608096e-09	-4.036760e+01	-6.323319e+02
1.540000e-06	-5.357794e-06	-9.582143e-09	-4.015843e+01	-6.311513e+02
1.550000e-06	-5.329622e-06	-9.566465e-09	-3.994727e+01	-6.299621e+02
1.560000e-06	-5.301304e-06	-9.551036e-09	-3.973502e+01	-6.287638e+02
1.570000e-06	-5.272887e-06	-9.538226e-09	-3.952202e+01	-6.275555e+02
1.580000e-06	-5.244354e-06	-9.524626e-09	-3.930816e+01	-6.263361e+02
1.590000e-06	-5.215776e-06	-9.505506e-09	-3.909396e+01	-6.251043e+02
1.600000e-06	-5.187058e-06	-9.490566e-09	-3.887870e+01	-6.238585e+02
1.610000e-06	-5.158221e-06	-9.472453e-09	-3.866256e+01	-6.225970e+02
1.620000e-06	-5.129300e-06	-9.456037e-09	-3.844579e+01	-6.213178e+02
1.630000e-06	-5.100354e-06	-9.432306e-09	-3.822884e+01	-6.200192e+02
1.640000e-06	-5.071419e-06	-9.406704e-09	-3.801195e+01	-6.186994e+02
1.650000e-06	-5.042350e-06	-9.383590e-09	-3.779407e+01	-6.173566e+02
1.660000e-06	-5.013132e-06	-9.361651e-09	-3.757507e+01	-6.159892e+02
1.670000e-06	-4.983785e-06	-9.344443e-09	-3.735511e+01	-6.145961e+02
1.680000e-06	-4.954438e-06	-9.321153e-09	-3.713514e+01	-6.131761e+02
1.690000e-06	-4.924949e-06	-9.298121e-09	-3.691411e+01	-6.117286e+02
1.700000e-06	-4.895197e-06	-9.272784e-09	-3.669112e+01	-6.102531e+02
1.710000e-06	-4.865346e-06	-9.247118e-09	-3.646737e+01	-6.087495e+02
1.720000e-06	-4.835370e-06	-9.220429e-09	-3.624269e+01	-6.072182e+02
1.730000e-06	-4.805178e-06	-9.190072e-09	-3.601639e+01	-6.056595e+02
1.740000e-06	-4.774847e-06	-9.162084e-09	-3.578905e+01	-6.040742e+02
1.750000e-06	-4.744520e-06	-9.136686e-09	-3.556174e+01	-6.024632e+02
1.760000e-06	-4.714086e-06	-9.117424e-09	-3.533363e+01	-6.008275e+02
1.770000e-06	-4.683502e-06	-9.095025e-09	-3.510439e+01	-5.991680e+02
1.780000e-06	-4.652793e-06	-9.073813e-09	-3.487421e+01	-5.974859e+02
1.790000e-06	-4.622054e-06	-9.053067e-09	-3.464382e+01	-5.957823e+02
1.800000e-06	-4.591318e-06	-9.023814e-09	-3.441344e+01	-5.940579e+02
1.810000e-06	-4.560364e-06	-8.994171e-09	-3.418143e+01	-5.923137e+02
1.820000e-06	-4.529285e-06	-8.953072e-09	-3.394848e+01	-5.905502e+02
1.830000e-06	-4.498176e-06	-8.913004e-09	-3.371531e+01	-5.887681e+02
1.840000e-06	-4.466881e-06	-8.885208e-09	-3.348074e+01	-5.869678e+02
1.850000e-06	-4.435494e-06	-8.866482e-09	-3.324549e+01	-5.851497e+02
1.860000e-06	-4.404130e-06	-8.853483e-09	-3.301041e+01	-5.833139e+02
1.870000e-06	-4.372592e-06	-8.829821e-09	-3.277402e+01	-5.814609e+02
1.880000e-06	-4.340800e-06	-8.806519e-09	-3.253572e+01	-5.795907e+02
1.890000e-06	-4.308900e-06	-8.777160e-09	-3.229662e+01	-5.777039e+02
1.900000e-06	-4.277040e-06	-8.741079e-09	-3.205782e+01	-5.758007e+02
1.910000e-06	-4.245072e-06	-8.703155e-09	-3.181821e+01	-5.738818e+02
1.920000e-06	-4.212917e-06	-8.660200e-09	-3.157720e+01	-5.719480e+02
1.930000e-06	-4.180714e-06	-8.627003e-09	-3.133583e+01	-5.700000e+02
1.940000e-06	-4.148437e-06	-8.602693e-09	-3.109390e+01	-5.680389e+02
1.950000e-06	-4.116063e-06	-8.586503e-09	-3.085125e+01	-5.660660e+02
1.960000e-06	-4.083593e-06	-8.566727e-09	-3.060787e+01	-5.640824e+02
1.970000e-06	-4.051065e-06	-8.540338e-09	-3.036406e+01	-5.620894e+02
1.980000e-06	-4.018478e-06	-8.507294e-09	-3.011982e+01	-5.600885e+02
1.990000e-06	-3.985794e-06	-8.464897e-09	-2.987484e+01	-5.580808e+02
2.000000e-06	-3.952990e-06	-8.422659e-09	-2.962896e+01	-5.560675e+02
2.010000e-06	-3.920150e-06	-8.383993e-09	-2.938281e+01	-5.540495e+02
2.020000e-06	-3.887347e-06	-8.358895e-09	-2.913695e+01	-5.520276e+02
2.030000e-06	-3.854369e-06	-8.343088e-09	-2.888977e+01	-5.500021e+02
2.040000e-06	-3.821203e-06	-8.325645e-09	-2.864117e+01	-5.479731e+02
2.050000e-06	-3.788038e-06	-8.298167e-09	-2.839260e+01	-5.459402e+02
2.060000e-06	-3.754791e-06	-8.257752e-09	-2.814339e+01	-5.439028e+02
2.070000e-06	-3.721344e-06	-8.216318e-09	-2.789270e+01	-5.418599e+02
2.080000e-06	-3.687799e-06	-8.178952e-09	-2.764127e+01	-5.398100e+02
2.090000e-06	-3.654167e-06	-8.146695e-09	-2.738919e+01	-5.377514e+02
2.100000e-06	-3.620514e-06	-8.117141e-09	-2.713694e+01	-5.356823e+02
2.110000e-06	-3.586780e-06	-8.089542e-09	-2.688409e+01	-5.336005e+02
2.120000e-06	-3.552806e-06	-8.064308e-09	-2.662945e+01	-5.315038e+02
2.130000e-06	-3.518678e-06	-8.038359e-09	-2.637365e+01	-5.293901e+02
2.140000e-06	-3.484313e-06	-8.007469e-09	-2.611607e+01	-5.272571e+02
2.150000e-06	-3.449777e-06	-7.967914e-09	-2.585721e+01	-5.251027e+02
2.160000e-06	-3.415229e-06	-7.929254e-09	-2.559827e+01	-5.229251e+02
2.170000e-06	-3.380632e-06	-7.891302e-09	-2.533895e+01	-5.207226e+02
2.180000e-06	-3.345851e-06	-7.854804e-09	-2.507825e+01	-5.184937e+02
2.190000e-06	-3.310863e-06	-7.823035e-09	-2.481600e+01	-5.162373e+02
2.200000e-06	-3.275693e-06	-7.791694e-09	-2.455240e+01	-5.139525e+02
2.210000e-06	-3.240299e-06	-7.764725e-09	-2.428711e+01	-5.116386e+02
2.220000e-06	-3.204834e-06	-7.734600e-09	-2.402129e+01	-5.092951e+02
2.230000e-06	-3.169183e-06	-7.698514e-09	-2.375407e+01	-5.069218e+02
2.240000e-06	-3.133354e-06	-7.661498e-09	-2.348552e+01	-5.045185e+02
2.250000e-06	-3.097609e-06	-7.618656e-09	-2.321760e+01	-5.020851e+02
2.260000e-06	-3.061953e-06	-7.573760e-09	-2.295035e+01	-4.996214e+02
2.270000e-06	-3.026231e-06	-7.531799e-09	-2.268260e+01	-4.971273e+02
2.280000e-06	-2.990312e-06	-7.493391e-09	-2.241337e+01	-4.946024e+02
2.290000e-06	-2.954236e-06	-7.459795e-09	-2.214297e+01	-4.920465e+02
2.300000e-06	-2.918072e-06	-7.423981e-09	-2.187191e+01	-4.894587e+02
2.310000e-06	-2.881924e-06	-7.384435e-09	-2.160097e+01	-4.868386e+02
2.320000e-06	-2.845801e-06	-7.343159e-09	-2.133022e+01	-4.841850e+02
2.330000e-06	-2.809558e-06	-7.298188e-09	-2.105856e+01	-4.814970e+02
2.340000e-06	-2.773071e-06	-7.249083e-09	-2.078508e+01	-4.787734e+02
2.350000e-06	-2.736510e-06	-7.197560e-09	-2.051104e+01	-4.760130e+02
2.360000e-06	-2.700006e-06	-7.150871e-09	-2.023743e+01	-4.732146e+02
2.370000e-06	-2.663526e-06	-7.109732e-09	-1.996400e+01	-4.703771e+02
2.380000e-06	-2.627002e-06	-7.068474e-09	-1.969025e+01	-4.674996e+02
2.390000e-06	-2.590381e-06	-7.021550e-09	-1.941576e+01	-4.645813e+02
2.400000e-06	-2.553751e-06	-6.971948e-09	-1.914120e+01	-4.616216e+02
2.410000e-06	-2.517048e-06	-6.924661e-09	-1.886610e+01	-4.586203e+02
2.420000e-06	-2.480322e-06	-6.876875e-09	-1.859083e+01	-4.555775e+02
2.430000e-06	-2.443590e-06	-6.828339e-09	-1.831551e+01	-4.524936e+02
2.440000e-06	-2.406768e-06	-6.776590e-09	-1.803952e+01	-4.493694e+02
2.450000e-06	-2.369936e-06	-6.726428e-09	-1.776345e+01	-4.462057e+02
2.460000e-06	-2.333091e-06	-6.675201e-09	-1.748728e+01	-4.430039e+02
2.470000e-06	-2.296256e-06	-6.620378e-09	-1.721119e+01	-4.397655e+02
2.480000e-06	-2.259349e-06	-6.565445e-09	-1.693456e+01	-4.364919e+02
2.490000e-06	-2.222392e-06	-6.511193e-09	-1.665756e+01	-4.331848e+02
2.500000e-06	-2.185495e-06	-6.464035e-09	-1.638101e+01	-4.298458e+02
2.510000e-06	-2.148560e-06	-6.416137e-09	-1.610416e+01	-4.264763e+02
2.520000e-06	-2.111514e-06	-6.360707e-09	-1.582649e+01	-4.230777e+02
2.530000e-06	-2.074363e-06	-6.303319e-09	-1.554803e+01	-4.196510e+02
2.540000e-06	-2.037118e-06	-6.250304e-09	-1.526887e+01	-4.161970e+02
2.550000e-06	-1.999761e-06	-6.197085e-09	-1.498887e+01	-4.127162e+02
2.560000e-06	-1.962411e-06	-6.140470e-09	-1.470892e+01	-4.092087e+02
2.570000e-06	-1.925083e-06	-6.084005e-09	-1.442913e+01	-4.056744e+02
2.580000e-06	-1.887665e-06	-6.029196e-09	-1.414867e+01	-4.021130e+02
2.590000e-06	-1.850103e-06	-5.978547e-09	-1.386713e+01	-3.985237e+02
2.600000e-06	-1.812584e-06	-5.923390e-09	-1.358592e+01	-3.949058e+02
2.610000e-06	-1.775039e-06	-5.864524e-09	-1.330450e+01	-3.912584e+02
2.620000e-06	-1.737360e-06	-5.808601e-09	-1.302209e+01	-3.875805e+02
2.630000e-06	-1.699688e-06	-5.750731e-09	-1.273972e+01	-3.838711e+02
2.640000e-06	-1.661868e-06	-5.688314e-09	-1.245625e+01	-3.801296e+02
2.650000e-06	-1.623926e-06	-5.622346e-09	-1.217186e+01	-3.763551e+02
2.660000e-06	-1.586077e-06	-5.559256e-09	-1.188817e+01	-3.725473e+02
2.670000e-06	-1.548239e-06	-5.498766e-09	-1.160456e+01	-3.687059e+02
2.680000e-06	-1.510382e-06	-5.440127e-09	-1.132081e+01	-3.648308e+02
2.690000e-06	-1.472447e-06	-5.384426e-09	-1.103647e+01	-3.609222e+02
2.700000e-06	-1.434481e-06	-5.326077e-09	-1.075191e+01	-3.569804e+02
2.710000e-06	-1.396503e-06	-5.263245e-09	-1.046725e+01	-3.530059e+02
2.720000e-06	-1.358463e-06	-5.197635e-09	-1.018213e+01	-3.489990e+02
2.730000e-06	-1.320408e-06	-5.132748e-09	-9.896891e+00	-3.449602e+02
2.740000e-06	-1.282203e-06	-5.072141e-09	-9.610537e+00	-3.408897e+02
2.750000e-06	-1.243973e-06	-5.010385e-09	-9.323991e+00	-3.367877e+02
2.760000e-06	-1.205793e-06	-4.943652e-09	-9.037814e+00	-3.326537e+02
2.770000e-06	-1.167649e-06	-4.878087e-09	-8.751913e+00	-3.284873e+02
2.780000e-06	-1.129475e-06	-4.810067e-09	-8.465786e+00	-3.242872e+02
2.790000e-06	-1.091179e-06	-4.738796e-09	-8.178747e+00	-3.200519e+02
2.800000e-06	-1.052789e-06	-4.666460e-09	-7.891001e+00	-3.157794e+02
2.810000e-06	-1.014392e-06	-4.596392e-09	-7.603199e+00	-3.114671e+02
2.820000e-06	-9.760298e-07	-4.538260e-09	-7.315664e+00	-3.071120e+02
2.830000e-06	-9.376575e-07	-4.482151e-09	-7.028052e+00	-3.027108e+02
2.840000e-06	-8.992491e-07	-4.417911e-09	-6.740168e+00	-2.982599e+02
