# Temperatura_=_20.0
# Concentracion g/m^3_=_10000.0
# C_Vs_to_Am_M_A/Vsm_=_65563218390.804596
# pendiente_HvsI_1/m_=_3716.3
# ordenada_HvsI_A/m_=_1297.0
# frecuencia_Hz_=_81233.42525003581

Tiempo_(s)	Campo_(V.s)	Magnetizacion_(V.s)	Campo_(kA/m)	Magnetizacion_(A/m)
0.000000e+00	-7.543858e-06	-1.082572e-08	-5.694652e+01	-7.088632e+02
1.000000e-08	-7.543782e-06	-1.083032e-08	-5.694595e+01	-7.088570e+02
2.000000e-08	-7.543834e-06	-1.083363e-08	-5.694634e+01	-7.088530e+02
3.000000e-08	-7.543712e-06	-1.083596e-08	-5.694542e+01	-7.088491e+02
4.000000e-08	-7.543276e-06	-1.083024e-08	-5.694213e+01	-7.088433e+02
5.000000e-08	-7.542778e-06	-1.079583e-08	-5.693837e+01	-7.088341e+02
6.000000e-08	-7.542089e-06	-1.077895e-08	-5.693317e+01	-7.088201e+02
7.000000e-08	-7.541239e-06	-1.078591e-08	-5.692675e+01	-7.088005e+02
8.000000e-08	-7.540406e-06	-1.070263e-08	-5.692047e+01	-7.087751e+02
9.000000e-08	-7.539348e-06	-1.074868e-08	-5.691248e+01	-7.087441e+02
1.000000e-07	-7.538050e-06	-1.097837e-08	-5.690268e+01	-7.087084e+02
1.100000e-07	-7.536434e-06	-1.114417e-08	-5.689048e+01	-7.086691e+02
1.200000e-07	-7.534581e-06	-1.113766e-08	-5.687649e+01	-7.086281e+02
1.300000e-07	-7.532513e-06	-1.111937e-08	-5.686088e+01	-7.085872e+02
1.400000e-07	-7.530248e-06	-1.097822e-08	-5.684379e+01	-7.085486e+02
1.500000e-07	-7.527911e-06	-1.075768e-08	-5.682614e+01	-7.085144e+02
1.600000e-07	-7.525108e-06	-1.078784e-08	-5.680498e+01	-7.084868e+02
1.700000e-07	-7.521731e-06	-1.074753e-08	-5.677949e+01	-7.084673e+02
1.800000e-07	-7.517993e-06	-1.066431e-08	-5.675127e+01	-7.084572e+02
1.900000e-07	-7.514069e-06	-1.072220e-08	-5.672165e+01	-7.084573e+02
2.000000e-07	-7.509912e-06	-1.078896e-08	-5.669027e+01	-7.084674e+02
2.100000e-07	-7.505474e-06	-1.089829e-08	-5.665677e+01	-7.084869e+02
2.200000e-07	-7.500919e-06	-1.084200e-08	-5.662239e+01	-7.085141e+02
2.300000e-07	-7.496366e-06	-1.091553e-08	-5.658802e+01	-7.085466e+02
2.400000e-07	-7.491682e-06	-1.106870e-08	-5.655266e+01	-7.085812e+02
2.500000e-07	-7.486850e-06	-1.092879e-08	-5.651618e+01	-7.086140e+02
2.600000e-07	-7.482019e-06	-1.086278e-08	-5.647972e+01	-7.086406e+02
2.700000e-07	-7.477077e-06	-1.092684e-08	-5.644241e+01	-7.086562e+02
2.800000e-07	-7.471900e-06	-1.090906e-08	-5.640333e+01	-7.086555e+02
2.900000e-07	-7.466509e-06	-1.078639e-08	-5.636264e+01	-7.086334e+02
3.000000e-07	-7.460782e-06	-1.090152e-08	-5.631941e+01	-7.085850e+02
3.100000e-07	-7.454761e-06	-1.089204e-08	-5.627395e+01	-7.085055e+02
3.200000e-07	-7.448607e-06	-1.073353e-08	-5.622750e+01	-7.083910e+02
3.300000e-07	-7.442421e-06	-1.088771e-08	-5.618080e+01	-7.082379e+02
3.400000e-07	-7.436104e-06	-1.094174e-08	-5.613312e+01	-7.080440e+02
3.500000e-07	-7.429590e-06	-1.082252e-08	-5.608394e+01	-7.078076e+02
3.600000e-07	-7.422897e-06	-1.078342e-08	-5.603342e+01	-7.075284e+02
3.700000e-07	-7.415925e-06	-1.086960e-08	-5.598079e+01	-7.072070e+02
3.800000e-07	-7.408784e-06	-1.082481e-08	-5.592688e+01	-7.068453e+02
3.900000e-07	-7.401401e-06	-1.075871e-08	-5.587115e+01	-7.064460e+02
4.000000e-07	-7.393809e-06	-1.083212e-08	-5.581384e+01	-7.060126e+02
4.100000e-07	-7.385990e-06	-1.079161e-08	-5.575482e+01	-7.055497e+02
4.200000e-07	-7.377795e-06	-1.080391e-08	-5.569296e+01	-7.050622e+02
4.300000e-07	-7.369512e-06	-1.084284e-08	-5.563043e+01	-7.045556e+02
4.400000e-07	-7.361202e-06	-1.080137e-08	-5.556770e+01	-7.040352e+02
4.500000e-07	-7.352761e-06	-1.072861e-08	-5.550398e+01	-7.035068e+02
4.600000e-07	-7.344224e-06	-1.074189e-08	-5.543954e+01	-7.029756e+02
4.700000e-07	-7.335591e-06	-1.077028e-08	-5.537437e+01	-7.024464e+02
4.800000e-07	-7.326808e-06	-1.070064e-08	-5.530807e+01	-7.019236e+02
4.900000e-07	-7.317942e-06	-1.071774e-08	-5.524114e+01	-7.014108e+02
5.000000e-07	-7.308965e-06	-1.070638e-08	-5.517338e+01	-7.009107e+02
5.100000e-07	-7.299792e-06	-1.070743e-08	-5.510413e+01	-7.004254e+02
5.200000e-07	-7.290463e-06	-1.074752e-08	-5.503371e+01	-6.999559e+02
5.300000e-07	-7.280794e-06	-1.070473e-08	-5.496072e+01	-6.995026e+02
5.400000e-07	-7.270630e-06	-1.067768e-08	-5.488400e+01	-6.990649e+02
5.500000e-07	-7.260136e-06	-1.068065e-08	-5.480478e+01	-6.986417e+02
5.600000e-07	-7.249403e-06	-1.070432e-08	-5.472376e+01	-6.982315e+02
5.700000e-07	-7.238275e-06	-1.067388e-08	-5.463976e+01	-6.978322e+02
5.800000e-07	-7.226864e-06	-1.066144e-08	-5.455362e+01	-6.974416e+02
5.900000e-07	-7.215299e-06	-1.066342e-08	-5.446632e+01	-6.970574e+02
6.000000e-07	-7.203514e-06	-1.066010e-08	-5.437735e+01	-6.966775e+02
6.100000e-07	-7.191408e-06	-1.069217e-08	-5.428597e+01	-6.962999e+02
6.200000e-07	-7.179035e-06	-1.064941e-08	-5.419257e+01	-6.959230e+02
6.300000e-07	-7.166486e-06	-1.063060e-08	-5.409784e+01	-6.955455e+02
6.400000e-07	-7.153845e-06	-1.063789e-08	-5.400242e+01	-6.951668e+02
6.500000e-07	-7.141099e-06	-1.064234e-08	-5.390620e+01	-6.947865e+02
6.600000e-07	-7.128199e-06	-1.063247e-08	-5.380883e+01	-6.944048e+02
6.700000e-07	-7.115091e-06	-1.060123e-08	-5.370987e+01	-6.940224e+02
6.800000e-07	-7.101640e-06	-1.061854e-08	-5.360834e+01	-6.936403e+02
6.900000e-07	-7.087989e-06	-1.062478e-08	-5.350529e+01	-6.932596e+02
7.000000e-07	-7.074169e-06	-1.063150e-08	-5.340097e+01	-6.928816e+02
7.100000e-07	-7.060204e-06	-1.060744e-08	-5.329555e+01	-6.925076e+02
7.200000e-07	-7.046153e-06	-1.059210e-08	-5.318948e+01	-6.921388e+02
7.300000e-07	-7.031903e-06	-1.060246e-08	-5.308191e+01	-6.917761e+02
7.400000e-07	-7.017463e-06	-1.059148e-08	-5.297291e+01	-6.914201e+02
7.500000e-07	-7.002823e-06	-1.058986e-08	-5.286240e+01	-6.910709e+02
7.600000e-07	-6.987990e-06	-1.056493e-08	-5.275042e+01	-6.907281e+02
7.700000e-07	-6.972870e-06	-1.056838e-08	-5.263629e+01	-6.903906e+02
7.800000e-07	-6.957320e-06	-1.057411e-08	-5.251891e+01	-6.900571e+02
7.900000e-07	-6.941516e-06	-1.056809e-08	-5.239961e+01	-6.897254e+02
8.000000e-07	-6.925470e-06	-1.055677e-08	-5.227848e+01	-6.893930e+02
8.100000e-07	-6.909096e-06	-1.053748e-08	-5.215488e+01	-6.890571e+02
8.200000e-07	-6.892624e-06	-1.055421e-08	-5.203053e+01	-6.887144e+02
8.300000e-07	-6.875989e-06	-1.054860e-08	-5.190496e+01	-6.883615e+02
8.400000e-07	-6.859087e-06	-1.053913e-08	-5.177737e+01	-6.879950e+02
8.500000e-07	-6.841877e-06	-1.051868e-08	-5.164746e+01	-6.876115e+02
8.600000e-07	-6.824364e-06	-1.050481e-08	-5.151526e+01	-6.872079e+02
8.700000e-07	-6.806781e-06	-1.051151e-08	-5.138253e+01	-6.867813e+02
8.800000e-07	-6.789058e-06	-1.049964e-08	-5.124874e+01	-6.863291e+02
8.900000e-07	-6.771213e-06	-1.050031e-08	-5.111403e+01	-6.858495e+02
9.000000e-07	-6.753330e-06	-1.048764e-08	-5.097904e+01	-6.853411e+02
9.100000e-07	-6.735344e-06	-1.048690e-08	-5.084327e+01	-6.848028e+02
9.200000e-07	-6.717224e-06	-1.047974e-08	-5.070649e+01	-6.842344e+02
9.300000e-07	-6.699016e-06	-1.045550e-08	-5.056904e+01	-6.836360e+02
9.400000e-07	-6.680709e-06	-1.043666e-08	-5.043084e+01	-6.830083e+02
9.500000e-07	-6.662208e-06	-1.041570e-08	-5.029119e+01	-6.823524e+02
9.600000e-07	-6.643504e-06	-1.041965e-08	-5.015000e+01	-6.816697e+02
9.700000e-07	-6.624604e-06	-1.040742e-08	-5.000732e+01	-6.809616e+02
9.800000e-07	-6.605469e-06	-1.039393e-08	-4.986288e+01	-6.802300e+02
9.900000e-07	-6.586129e-06	-1.038040e-08	-4.971688e+01	-6.794766e+02
1.000000e-06	-6.566576e-06	-1.036747e-08	-4.956929e+01	-6.787030e+02
1.010000e-06	-6.546792e-06	-1.036309e-08	-4.941995e+01	-6.779108e+02
1.020000e-06	-6.526851e-06	-1.033766e-08	-4.926941e+01	-6.771014e+02
1.030000e-06	-6.506794e-06	-1.032358e-08	-4.911801e+01	-6.762758e+02
1.040000e-06	-6.486550e-06	-1.030609e-08	-4.896519e+01	-6.754350e+02
1.050000e-06	-6.466185e-06	-1.029552e-08	-4.881146e+01	-6.745794e+02
1.060000e-06	-6.445773e-06	-1.028271e-08	-4.865738e+01	-6.737096e+02
1.070000e-06	-6.425261e-06	-1.026267e-08	-4.850254e+01	-6.728256e+02
1.080000e-06	-6.404672e-06	-1.025080e-08	-4.834711e+01	-6.719276e+02
1.090000e-06	-6.384005e-06	-1.022663e-08	-4.819111e+01	-6.710155e+02
1.100000e-06	-6.363219e-06	-1.021351e-08	-4.803420e+01	-6.700893e+02
1.110000e-06	-6.342393e-06	-1.019082e-08	-4.787699e+01	-6.691490e+02
1.120000e-06	-6.321449e-06	-1.017159e-08	-4.771889e+01	-6.681948e+02
1.130000e-06	-6.300402e-06	-1.015662e-08	-4.756001e+01	-6.672271e+02
1.140000e-06	-6.279198e-06	-1.013979e-08	-4.739995e+01	-6.662465e+02
1.150000e-06	-6.257717e-06	-1.013541e-08	-4.723780e+01	-6.652539e+02
1.160000e-06	-6.236025e-06	-1.011723e-08	-4.707405e+01	-6.642504e+02
1.170000e-06	-6.214073e-06	-1.010502e-08	-4.690834e+01	-6.632374e+02
1.180000e-06	-6.192019e-06	-1.008712e-08	-4.674186e+01	-6.622167e+02
1.190000e-06	-6.169887e-06	-1.007250e-08	-4.657479e+01	-6.611901e+02
1.200000e-06	-6.147521e-06	-1.005675e-08	-4.640595e+01	-6.601596e+02
1.210000e-06	-6.124999e-06	-1.002773e-08	-4.623594e+01	-6.591272e+02
1.220000e-06	-6.102365e-06	-1.001285e-08	-4.606508e+01	-6.580951e+02
1.230000e-06	-6.079640e-06	-9.995278e-09	-4.589354e+01	-6.570653e+02
1.240000e-06	-6.056775e-06	-9.987694e-09	-4.572094e+01	-6.560396e+02
1.250000e-06	-6.033801e-06	-9.970036e-09	-4.554751e+01	-6.550197e+02
1.260000e-06	-6.010824e-06	-9.948149e-09	-4.537407e+01	-6.540068e+02
1.270000e-06	-5.987516e-06	-9.935375e-09	-4.519812e+01	-6.530020e+02
1.280000e-06	-5.963978e-06	-9.915403e-09	-4.502044e+01	-6.520059e+02
1.290000e-06	-5.940340e-06	-9.903921e-09	-4.484200e+01	-6.510187e+02
1.300000e-06	-5.916461e-06	-9.888404e-09	-4.466175e+01	-6.500404e+02
1.310000e-06	-5.892456e-06	-9.883803e-09	-4.448054e+01	-6.490702e+02
1.320000e-06	-5.868290e-06	-9.880485e-09	-4.429812e+01	-6.481075e+02
1.330000e-06	-5.843969e-06	-9.871127e-09	-4.411453e+01	-6.471510e+02
1.340000e-06	-5.819615e-06	-9.855131e-09	-4.393068e+01	-6.461994e+02
1.350000e-06	-5.795207e-06	-9.823970e-09	-4.374643e+01	-6.452511e+02
1.360000e-06	-5.770620e-06	-9.805186e-09	-4.356084e+01	-6.443046e+02
1.370000e-06	-5.745923e-06	-9.790424e-09	-4.337440e+01	-6.433579e+02
1.380000e-06	-5.721077e-06	-9.781523e-09	-4.318685e+01	-6.424096e+02
1.390000e-06	-5.696100e-06	-9.768442e-09	-4.299830e+01	-6.414579e+02
1.400000e-06	-5.671047e-06	-9.755529e-09	-4.280919e+01	-6.405013e+02
1.410000e-06	-5.645827e-06	-9.749581e-09	-4.261880e+01	-6.395384e+02
1.420000e-06	-5.620457e-06	-9.728645e-09	-4.242729e+01	-6.385680e+02
1.430000e-06	-5.594790e-06	-9.703744e-09	-4.223354e+01	-6.375890e+02
1.440000e-06	-5.568889e-06	-9.678210e-09	-4.203802e+01	-6.366002e+02
1.450000e-06	-5.543098e-06	-9.666199e-09	-4.184333e+01	-6.356008e+02
1.460000e-06	-5.517233e-06	-9.656780e-09	-4.164808e+01	-6.345900e+02
1.470000e-06	-5.490978e-06	-9.646536e-09	-4.144989e+01	-6.335669e+02
1.480000e-06	-5.464347e-06	-9.637336e-09	-4.124886e+01	-6.325307e+02
1.490000e-06	-5.437484e-06	-9.618863e-09	-4.104608e+01	-6.314805e+02
1.500000e-06	-5.410390e-06	-9.602214e-09	-4.084155e+01	-6.304153e+02
1.510000e-06	-5.382928e-06	-9.575616e-09	-4.063425e+01	-6.293339e+02
1.520000e-06	-5.355268e-06	-9.551425e-09	-4.042546e+01	-6.282352e+02
1.530000e-06	-5.327528e-06	-9.529859e-09	-4.021605e+01	-6.271178e+02
1.540000e-06	-5.299650e-06	-9.510032e-09	-4.000561e+01	-6.259802e+02
1.550000e-06	-5.271607e-06	-9.494466e-09	-3.979392e+01	-6.248207e+02
1.560000e-06	-5.243403e-06	-9.472377e-09	-3.958101e+01	-6.236378e+02
1.570000e-06	-5.215106e-06	-9.453734e-09	-3.936741e+01	-6.224297e+02
1.580000e-06	-5.186738e-06	-9.433884e-09	-3.915326e+01	-6.211947e+02
1.590000e-06	-5.158278e-06	-9.418835e-09	-3.893843e+01	-6.199314e+02
1.600000e-06	-5.129741e-06	-9.402350e-09	-3.872301e+01	-6.186382e+02
1.610000e-06	-5.101175e-06	-9.381997e-09	-3.850738e+01	-6.173139e+02
1.620000e-06	-5.072522e-06	-9.360816e-09	-3.829108e+01	-6.159576e+02
1.630000e-06	-5.043790e-06	-9.334194e-09	-3.807419e+01	-6.145686e+02
1.640000e-06	-5.014926e-06	-9.313752e-09	-3.785630e+01	-6.131466e+02
1.650000e-06	-4.985884e-06	-9.287662e-09	-3.763708e+01	-6.116915e+02
1.660000e-06	-4.956828e-06	-9.260768e-09	-3.741774e+01	-6.102038e+02
1.670000e-06	-4.927719e-06	-9.235375e-09	-3.719801e+01	-6.086843e+02
1.680000e-06	-4.898466e-06	-9.210126e-09	-3.697718e+01	-6.071340e+02
1.690000e-06	-4.869052e-06	-9.187091e-09	-3.675514e+01	-6.055544e+02
1.700000e-06	-4.839502e-06	-9.156237e-09	-3.653208e+01	-6.039470e+02
1.710000e-06	-4.809884e-06	-9.127609e-09	-3.630850e+01	-6.023136e+02
1.720000e-06	-4.780075e-06	-9.096695e-09	-3.608348e+01	-6.006563e+02
1.730000e-06	-4.750054e-06	-9.068392e-09	-3.585686e+01	-5.989771e+02
1.740000e-06	-4.719982e-06	-9.041983e-09	-3.562985e+01	-5.972779e+02
1.750000e-06	-4.689806e-06	-9.015882e-09	-3.540207e+01	-5.955608e+02
1.760000e-06	-4.659475e-06	-8.994070e-09	-3.517310e+01	-5.938276e+02
1.770000e-06	-4.629043e-06	-8.971812e-09	-3.494338e+01	-5.920801e+02
1.780000e-06	-4.598519e-06	-8.950751e-09	-3.471297e+01	-5.903197e+02
1.790000e-06	-4.567905e-06	-8.923099e-09	-3.448187e+01	-5.885478e+02
1.800000e-06	-4.537210e-06	-8.892764e-09	-3.425016e+01	-5.867655e+02
1.810000e-06	-4.506465e-06	-8.861509e-09	-3.401808e+01	-5.849738e+02
1.820000e-06	-4.475730e-06	-8.830821e-09	-3.378606e+01	-5.831735e+02
1.830000e-06	-4.444844e-06	-8.799263e-09	-3.355291e+01	-5.813652e+02
1.840000e-06	-4.413787e-06	-8.768839e-09	-3.331847e+01	-5.795495e+02
1.850000e-06	-4.382639e-06	-8.742887e-09	-3.308335e+01	-5.777267e+02
1.860000e-06	-4.351367e-06	-8.715037e-09	-3.284728e+01	-5.758975e+02
1.870000e-06	-4.320028e-06	-8.687662e-09	-3.261071e+01	-5.740622e+02
1.880000e-06	-4.288607e-06	-8.661598e-09	-3.237352e+01	-5.722213e+02
1.890000e-06	-4.257028e-06	-8.638736e-09	-3.213514e+01	-5.703754e+02
1.900000e-06	-4.225158e-06	-8.618853e-09	-3.189456e+01	-5.685251e+02
1.910000e-06	-4.193127e-06	-8.599065e-09	-3.165277e+01	-5.666713e+02
1.920000e-06	-4.161124e-06	-8.573215e-09	-3.141119e+01	-5.648146e+02
1.930000e-06	-4.129071e-06	-8.543805e-09	-3.116923e+01	-5.629558e+02
1.940000e-06	-4.096947e-06	-8.515174e-09	-3.092673e+01	-5.610959e+02
1.950000e-06	-4.064650e-06	-8.484150e-09	-3.068293e+01	-5.592357e+02
1.960000e-06	-4.032283e-06	-8.454343e-09	-3.043860e+01	-5.573757e+02
1.970000e-06	-3.999866e-06	-8.423296e-09	-3.019389e+01	-5.555166e+02
1.980000e-06	-3.967336e-06	-8.401799e-09	-2.994833e+01	-5.536588e+02
1.990000e-06	-3.934826e-06	-8.383693e-09	-2.970293e+01	-5.518023e+02
2.000000e-06	-3.902252e-06	-8.358579e-09	-2.945704e+01	-5.499471e+02
2.010000e-06	-3.869578e-06	-8.330170e-09	-2.921038e+01	-5.480926e+02
2.020000e-06	-3.836821e-06	-8.295649e-09	-2.896311e+01	-5.462379e+02
2.030000e-06	-3.803965e-06	-8.265281e-09	-2.871509e+01	-5.443819e+02
2.040000e-06	-3.771070e-06	-8.235301e-09	-2.846677e+01	-5.425231e+02
2.050000e-06	-3.738088e-06	-8.201626e-09	-2.821781e+01	-5.406595e+02
2.060000e-06	-3.704969e-06	-8.171603e-09	-2.796780e+01	-5.387889e+02
2.070000e-06	-3.671897e-06	-8.149884e-09	-2.771814e+01	-5.369090e+02
2.080000e-06	-3.638728e-06	-8.136690e-09	-2.746776e+01	-5.350170e+02
2.090000e-06	-3.605311e-06	-8.117495e-09	-2.721551e+01	-5.331101e+02
2.100000e-06	-3.571860e-06	-8.090285e-09	-2.696299e+01	-5.311857e+02
2.110000e-06	-3.538341e-06	-8.054840e-09	-2.670997e+01	-5.292406e+02
2.120000e-06	-3.504648e-06	-8.017777e-09	-2.645563e+01	-5.272723e+02
2.130000e-06	-3.470835e-06	-7.984320e-09	-2.620038e+01	-5.252779e+02
2.140000e-06	-3.436889e-06	-7.946984e-09	-2.594414e+01	-5.232551e+02
2.150000e-06	-3.402800e-06	-7.913180e-09	-2.568680e+01	-5.212015e+02
2.160000e-06	-3.368596e-06	-7.879523e-09	-2.542861e+01	-5.191152e+02
2.170000e-06	-3.334119e-06	-7.851863e-09	-2.516835e+01	-5.169943e+02
2.180000e-06	-3.299438e-06	-7.824170e-09	-2.490655e+01	-5.148374e+02
2.190000e-06	-3.264672e-06	-7.791048e-09	-2.464412e+01	-5.126432e+02
2.200000e-06	-3.229738e-06	-7.759499e-09	-2.438041e+01	-5.104108e+02
2.210000e-06	-3.194680e-06	-7.724037e-09	-2.411577e+01	-5.081394e+02
2.220000e-06	-3.159406e-06	-7.688135e-09	-2.384949e+01	-5.058283e+02
2.230000e-06	-3.124105e-06	-7.649629e-09	-2.358301e+01	-5.034771e+02
2.240000e-06	-3.088796e-06	-7.609456e-09	-2.331647e+01	-5.010854e+02
2.250000e-06	-3.053290e-06	-7.570111e-09	-2.304845e+01	-4.986527e+02
2.260000e-06	-3.017766e-06	-7.532878e-09	-2.278029e+01	-4.961789e+02
2.270000e-06	-2.982150e-06	-7.496856e-09	-2.251144e+01	-4.936636e+02
2.280000e-06	-2.946450e-06	-7.457973e-09	-2.224195e+01	-4.911064e+02
2.290000e-06	-2.910701e-06	-7.419207e-09	-2.197209e+01	-4.885069e+02
2.300000e-06	-2.874591e-06	-7.378588e-09	-2.169950e+01	-4.858648e+02
2.310000e-06	-2.838329e-06	-7.334526e-09	-2.142577e+01	-4.831796e+02
2.320000e-06	-2.802172e-06	-7.285547e-09	-2.115283e+01	-4.804509e+02
2.330000e-06	-2.765913e-06	-7.233458e-09	-2.087912e+01	-4.776784e+02
2.340000e-06	-2.729670e-06	-7.183048e-09	-2.060553e+01	-4.748619e+02
2.350000e-06	-2.693362e-06	-7.134391e-09	-2.033145e+01	-4.720013e+02
2.360000e-06	-2.656910e-06	-7.089857e-09	-2.005628e+01	-4.690965e+02
2.370000e-06	-2.620454e-06	-7.046453e-09	-1.978109e+01	-4.661478e+02
2.380000e-06	-2.583910e-06	-7.001421e-09	-1.950523e+01	-4.631558e+02
2.390000e-06	-2.547365e-06	-6.954411e-09	-1.922936e+01	-4.601213e+02
2.400000e-06	-2.510841e-06	-6.905706e-09	-1.895365e+01	-4.570451e+02
2.410000e-06	-2.474277e-06	-6.855205e-09	-1.867764e+01	-4.539288e+02
2.420000e-06	-2.437701e-06	-6.801982e-09	-1.840153e+01	-4.507737e+02
2.430000e-06	-2.401103e-06	-6.747124e-09	-1.812527e+01	-4.475818e+02
2.440000e-06	-2.364358e-06	-6.692272e-09	-1.784789e+01	-4.443551e+02
2.450000e-06	-2.327570e-06	-6.639830e-09	-1.757019e+01	-4.410957e+02
2.460000e-06	-2.290918e-06	-6.586525e-09	-1.729351e+01	-4.378060e+02
2.470000e-06	-2.254295e-06	-6.533563e-09	-1.701705e+01	-4.344882e+02
2.480000e-06	-2.217557e-06	-6.483515e-09	-1.673973e+01	-4.311446e+02
2.490000e-06	-2.180781e-06	-6.435280e-09	-1.646212e+01	-4.277775e+02
2.500000e-06	-2.144046e-06	-6.386274e-09	-1.618482e+01	-4.243889e+02
2.510000e-06	-2.107291e-06	-6.328560e-09	-1.590736e+01	-4.209808e+02
2.520000e-06	-2.070460e-06	-6.270860e-09	-1.562934e+01	-4.175547e+02
2.530000e-06	-2.033532e-06	-6.218197e-09	-1.535058e+01	-4.141121e+02
2.540000e-06	-1.996516e-06	-6.164743e-09	-1.507115e+01	-4.106540e+02
2.550000e-06	-1.959469e-06	-6.111258e-09	-1.479149e+01	-4.071811e+02
2.560000e-06	-1.922454e-06	-6.057772e-09	-1.451208e+01	-4.036938e+02
2.570000e-06	-1.885434e-06	-6.005411e-09	-1.423262e+01	-4.001924e+02
2.580000e-06	-1.848345e-06	-5.953595e-09	-1.395265e+01	-3.966767e+02
2.590000e-06	-1.811127e-06	-5.899966e-09	-1.367170e+01	-3.931462e+02
2.600000e-06	-1.773722e-06	-5.842009e-09	-1.338934e+01	-3.896004e+02
2.610000e-06	-1.736380e-06	-5.784527e-09	-1.310746e+01	-3.860383e+02
2.620000e-06	-1.699069e-06	-5.727378e-09	-1.282580e+01	-3.824589e+02
2.630000e-06	-1.661583e-06	-5.668296e-09	-1.254284e+01	-3.788612e+02
2.640000e-06	-1.624126e-06	-5.610652e-09	-1.226008e+01	-3.752439e+02
2.650000e-06	-1.586686e-06	-5.553205e-09	-1.197745e+01	-3.716057e+02
2.660000e-06	-1.549123e-06	-5.495589e-09	-1.169390e+01	-3.679451e+02
2.670000e-06	-1.511531e-06	-5.440028e-09	-1.141014e+01	-3.642607e+02
2.680000e-06	-1.473859e-06	-5.386661e-09	-1.112576e+01	-3.605508e+02
2.690000e-06	-1.436127e-06	-5.331281e-09	-1.084093e+01	-3.568140e+02
2.700000e-06	-1.398443e-06	-5.271118e-09	-1.055646e+01	-3.530482e+02
2.710000e-06	-1.360670e-06	-5.211289e-09	-1.027133e+01	-3.492518e+02
2.720000e-06	-1.322945e-06	-5.151220e-09	-9.986547e+00	-3.454226e+02
2.730000e-06	-1.285249e-06	-5.090407e-09	-9.701989e+00	-3.415585e+02
2.740000e-06	-1.247449e-06	-5.031336e-09	-9.416649e+00	-3.376570e+02
2.750000e-06	-1.209531e-06	-4.968998e-09	-9.130422e+00	-3.337156e+02
2.760000e-06	-1.171421e-06	-4.905504e-09	-8.842734e+00	-3.297315e+02
2.770000e-06	-1.133373e-06	-4.838553e-09	-8.555525e+00	-3.257018e+02
2.780000e-06	-1.095452e-06	-4.764510e-09	-8.269270e+00	-3.216233e+02
2.790000e-06	-1.057407e-06	-4.694379e-09	-7.982074e+00	-3.174929e+02
2.800000e-06	-1.019288e-06	-4.626477e-09	-7.694330e+00	-3.133071e+02
2.810000e-06	-9.811382e-07	-4.565554e-09	-7.406344e+00	-3.090627e+02
2.820000e-06	-9.429388e-07	-4.511522e-09	-7.117987e+00	-3.047564e+02
2.830000e-06	-9.047819e-07	-4.452824e-09	-6.829951e+00	-3.003849e+02
2.840000e-06	-8.666290e-07	-4.388105e-09	-6.541945e+00	-2.959451e+02
