# Temperatura_=_20.0
# Concentracion g/m^3_=_10000.0
# C_Vs_to_Am_M_A/Vsm_=_65563218390.804596
# pendiente_HvsI_1/m_=_3716.3
# ordenada_HvsI_A/m_=_1297.0
# frecuencia_Hz_=_81230.69093145599

Tiempo_(s)	Campo_(V.s)	Magnetizacion_(V.s)	Campo_(kA/m)	Magnetizacion_(A/m)
0.000000e+00	-7.582612e-06	-1.090526e-08	-5.696482e+01	-7.152336e+02
1.000000e-08	-7.582846e-06	-1.090798e-08	-5.696658e+01	-7.153235e+02
2.000000e-08	-7.582963e-06	-1.091436e-08	-5.696746e+01	-7.154099e+02
3.000000e-08	-7.582781e-06	-1.092216e-08	-5.696609e+01	-7.154893e+02
4.000000e-08	-7.582392e-06	-1.092632e-08	-5.696317e+01	-7.155586e+02
5.000000e-08	-7.581928e-06	-1.091164e-08	-5.695968e+01	-7.156145e+02
6.000000e-08	-7.581299e-06	-1.085649e-08	-5.695496e+01	-7.156543e+02
7.000000e-08	-7.580493e-06	-1.088522e-08	-5.694890e+01	-7.156757e+02
8.000000e-08	-7.579497e-06	-1.083894e-08	-5.694142e+01	-7.156769e+02
9.000000e-08	-7.578213e-06	-1.090255e-08	-5.693177e+01	-7.156568e+02
1.000000e-07	-7.576653e-06	-1.105416e-08	-5.692005e+01	-7.156153e+02
1.100000e-07	-7.574834e-06	-1.117358e-08	-5.690638e+01	-7.155528e+02
1.200000e-07	-7.572869e-06	-1.117380e-08	-5.689162e+01	-7.154706e+02
1.300000e-07	-7.570674e-06	-1.101203e-08	-5.687514e+01	-7.153708e+02
1.400000e-07	-7.568197e-06	-1.107354e-08	-5.685652e+01	-7.152558e+02
1.500000e-07	-7.565333e-06	-1.112310e-08	-5.683501e+01	-7.151289e+02
1.600000e-07	-7.562079e-06	-1.099248e-08	-5.681056e+01	-7.149934e+02
1.700000e-07	-7.558639e-06	-1.085498e-08	-5.678472e+01	-7.148528e+02
1.800000e-07	-7.554923e-06	-1.082408e-08	-5.675680e+01	-7.147106e+02
1.900000e-07	-7.550926e-06	-1.077702e-08	-5.672678e+01	-7.145700e+02
2.000000e-07	-7.546766e-06	-1.086001e-08	-5.669552e+01	-7.144340e+02
2.100000e-07	-7.542535e-06	-1.101067e-08	-5.666374e+01	-7.143045e+02
2.200000e-07	-7.538211e-06	-1.091994e-08	-5.663125e+01	-7.141833e+02
2.300000e-07	-7.533722e-06	-1.093456e-08	-5.659753e+01	-7.140709e+02
2.400000e-07	-7.529105e-06	-1.107011e-08	-5.656285e+01	-7.139671e+02
2.500000e-07	-7.524384e-06	-1.113446e-08	-5.652738e+01	-7.138708e+02
2.600000e-07	-7.519406e-06	-1.097264e-08	-5.648998e+01	-7.137801e+02
2.700000e-07	-7.514301e-06	-1.091341e-08	-5.645163e+01	-7.136924e+02
2.800000e-07	-7.509090e-06	-1.109904e-08	-5.641248e+01	-7.136042e+02
2.900000e-07	-7.503764e-06	-1.098652e-08	-5.637247e+01	-7.135116e+02
3.000000e-07	-7.498252e-06	-1.090931e-08	-5.633106e+01	-7.134106e+02
3.100000e-07	-7.492380e-06	-1.089268e-08	-5.628695e+01	-7.132970e+02
3.200000e-07	-7.486385e-06	-1.088446e-08	-5.624191e+01	-7.131665e+02
3.300000e-07	-7.480291e-06	-1.094364e-08	-5.619613e+01	-7.130153e+02
3.400000e-07	-7.473959e-06	-1.102388e-08	-5.614856e+01	-7.128402e+02
3.500000e-07	-7.467340e-06	-1.102329e-08	-5.609883e+01	-7.126384e+02
3.600000e-07	-7.460556e-06	-1.082074e-08	-5.604786e+01	-7.124080e+02
3.700000e-07	-7.453634e-06	-1.090438e-08	-5.599586e+01	-7.121482e+02
3.800000e-07	-7.446441e-06	-1.103376e-08	-5.594182e+01	-7.118589e+02
3.900000e-07	-7.439176e-06	-1.092398e-08	-5.588725e+01	-7.115409e+02
4.000000e-07	-7.431625e-06	-1.079835e-08	-5.583052e+01	-7.111961e+02
4.100000e-07	-7.423750e-06	-1.083749e-08	-5.577136e+01	-7.108270e+02
4.200000e-07	-7.415863e-06	-1.095456e-08	-5.571211e+01	-7.104369e+02
4.300000e-07	-7.407706e-06	-1.093552e-08	-5.565083e+01	-7.100295e+02
4.400000e-07	-7.399317e-06	-1.091927e-08	-5.558781e+01	-7.096090e+02
4.500000e-07	-7.390938e-06	-1.083071e-08	-5.552485e+01	-7.091796e+02
4.600000e-07	-7.382590e-06	-1.084972e-08	-5.546215e+01	-7.087453e+02
4.700000e-07	-7.374091e-06	-1.093363e-08	-5.539829e+01	-7.083100e+02
4.800000e-07	-7.365390e-06	-1.086150e-08	-5.533292e+01	-7.078773e+02
4.900000e-07	-7.356538e-06	-1.078632e-08	-5.526642e+01	-7.074499e+02
5.000000e-07	-7.347406e-06	-1.077274e-08	-5.519782e+01	-7.070299e+02
5.100000e-07	-7.338047e-06	-1.086492e-08	-5.512751e+01	-7.066189e+02
5.200000e-07	-7.328415e-06	-1.087462e-08	-5.505515e+01	-7.062173e+02
5.300000e-07	-7.318531e-06	-1.081842e-08	-5.498090e+01	-7.058251e+02
5.400000e-07	-7.308450e-06	-1.078236e-08	-5.490516e+01	-7.054413e+02
5.500000e-07	-7.297998e-06	-1.079436e-08	-5.482664e+01	-7.050643e+02
5.600000e-07	-7.287046e-06	-1.087858e-08	-5.474436e+01	-7.046923e+02
5.700000e-07	-7.275803e-06	-1.082702e-08	-5.465990e+01	-7.043227e+02
5.800000e-07	-7.264494e-06	-1.075410e-08	-5.457494e+01	-7.039531e+02
5.900000e-07	-7.252899e-06	-1.075141e-08	-5.448783e+01	-7.035808e+02
6.000000e-07	-7.240983e-06	-1.080421e-08	-5.439831e+01	-7.032034e+02
6.100000e-07	-7.228857e-06	-1.081549e-08	-5.430722e+01	-7.028188e+02
6.200000e-07	-7.216506e-06	-1.074406e-08	-5.421442e+01	-7.024251e+02
6.300000e-07	-7.204039e-06	-1.073628e-08	-5.412077e+01	-7.020212e+02
6.400000e-07	-7.191495e-06	-1.074627e-08	-5.402653e+01	-7.016062e+02
6.500000e-07	-7.178675e-06	-1.078485e-08	-5.393022e+01	-7.011802e+02
6.600000e-07	-7.165632e-06	-1.075478e-08	-5.383223e+01	-7.007436e+02
6.700000e-07	-7.152356e-06	-1.069030e-08	-5.373250e+01	-7.002974e+02
6.800000e-07	-7.138845e-06	-1.069725e-08	-5.363100e+01	-6.998430e+02
6.900000e-07	-7.125294e-06	-1.072725e-08	-5.352919e+01	-6.993822e+02
7.000000e-07	-7.111686e-06	-1.075180e-08	-5.342696e+01	-6.989169e+02
7.100000e-07	-7.097767e-06	-1.069996e-08	-5.332239e+01	-6.984490e+02
7.200000e-07	-7.083523e-06	-1.069320e-08	-5.321538e+01	-6.979805e+02
7.300000e-07	-7.069188e-06	-1.071435e-08	-5.310769e+01	-6.975130e+02
7.400000e-07	-7.054641e-06	-1.071665e-08	-5.299841e+01	-6.970478e+02
7.500000e-07	-7.039796e-06	-1.069007e-08	-5.288689e+01	-6.965858e+02
7.600000e-07	-7.024765e-06	-1.063068e-08	-5.277396e+01	-6.961270e+02
7.700000e-07	-7.009615e-06	-1.065235e-08	-5.266014e+01	-6.956714e+02
7.800000e-07	-6.994302e-06	-1.066829e-08	-5.254510e+01	-6.952179e+02
7.900000e-07	-6.978659e-06	-1.066583e-08	-5.242758e+01	-6.947650e+02
8.000000e-07	-6.962492e-06	-1.063416e-08	-5.230613e+01	-6.943109e+02
8.100000e-07	-6.946097e-06	-1.060858e-08	-5.218296e+01	-6.938530e+02
8.200000e-07	-6.929593e-06	-1.063251e-08	-5.205897e+01	-6.933888e+02
8.300000e-07	-6.912842e-06	-1.062936e-08	-5.193314e+01	-6.929153e+02
8.400000e-07	-6.895986e-06	-1.062411e-08	-5.180650e+01	-6.924298e+02
8.500000e-07	-6.878867e-06	-1.059028e-08	-5.167790e+01	-6.919293e+02
8.600000e-07	-6.861532e-06	-1.058445e-08	-5.154766e+01	-6.914115e+02
8.700000e-07	-6.844045e-06	-1.059703e-08	-5.141629e+01	-6.908743e+02
8.800000e-07	-6.826447e-06	-1.057800e-08	-5.128409e+01	-6.903159e+02
8.900000e-07	-6.808677e-06	-1.056086e-08	-5.115058e+01	-6.897354e+02
9.000000e-07	-6.790662e-06	-1.053521e-08	-5.101525e+01	-6.891322e+02
9.100000e-07	-6.772618e-06	-1.054671e-08	-5.087969e+01	-6.885065e+02
9.200000e-07	-6.754521e-06	-1.054449e-08	-5.074374e+01	-6.878589e+02
9.300000e-07	-6.736315e-06	-1.052168e-08	-5.060696e+01	-6.871906e+02
9.400000e-07	-6.717947e-06	-1.049402e-08	-5.046897e+01	-6.865033e+02
9.500000e-07	-6.699383e-06	-1.047266e-08	-5.032951e+01	-6.857990e+02
9.600000e-07	-6.680602e-06	-1.047990e-08	-5.018842e+01	-6.850797e+02
9.700000e-07	-6.661575e-06	-1.045922e-08	-5.004548e+01	-6.843478e+02
9.800000e-07	-6.642343e-06	-1.044459e-08	-4.990099e+01	-6.836053e+02
9.900000e-07	-6.622959e-06	-1.043018e-08	-4.975537e+01	-6.828544e+02
1.000000e-06	-6.603375e-06	-1.043212e-08	-4.960825e+01	-6.820966e+02
1.010000e-06	-6.583586e-06	-1.043780e-08	-4.945958e+01	-6.813332e+02
1.020000e-06	-6.563669e-06	-1.041168e-08	-4.930995e+01	-6.805653e+02
1.030000e-06	-6.543574e-06	-1.039245e-08	-4.915898e+01	-6.797930e+02
1.040000e-06	-6.523325e-06	-1.036965e-08	-4.900686e+01	-6.790163e+02
1.050000e-06	-6.503013e-06	-1.036043e-08	-4.885427e+01	-6.782346e+02
1.060000e-06	-6.482548e-06	-1.033953e-08	-4.870052e+01	-6.774470e+02
1.070000e-06	-6.461985e-06	-1.031865e-08	-4.854605e+01	-6.766522e+02
1.080000e-06	-6.441427e-06	-1.030952e-08	-4.839160e+01	-6.758486e+02
1.090000e-06	-6.420753e-06	-1.029663e-08	-4.823629e+01	-6.750346e+02
1.100000e-06	-6.399954e-06	-1.029261e-08	-4.808004e+01	-6.742086e+02
1.110000e-06	-6.379000e-06	-1.027057e-08	-4.792261e+01	-6.733690e+02
1.120000e-06	-6.357848e-06	-1.025925e-08	-4.776371e+01	-6.725146e+02
1.130000e-06	-6.336628e-06	-1.024856e-08	-4.760429e+01	-6.716446e+02
1.140000e-06	-6.315342e-06	-1.023592e-08	-4.744438e+01	-6.707582e+02
1.150000e-06	-6.293750e-06	-1.022346e-08	-4.728217e+01	-6.698555e+02
1.160000e-06	-6.271899e-06	-1.019965e-08	-4.711801e+01	-6.689368e+02
1.170000e-06	-6.249985e-06	-1.019123e-08	-4.695338e+01	-6.680030e+02
1.180000e-06	-6.227858e-06	-1.017632e-08	-4.678715e+01	-6.670554e+02
1.190000e-06	-6.205583e-06	-1.016611e-08	-4.661981e+01	-6.660956e+02
1.200000e-06	-6.183230e-06	-1.014863e-08	-4.645188e+01	-6.651257e+02
1.210000e-06	-6.160717e-06	-1.012379e-08	-4.628275e+01	-6.641478e+02
1.220000e-06	-6.138105e-06	-1.011413e-08	-4.611287e+01	-6.631641e+02
1.230000e-06	-6.115298e-06	-1.009467e-08	-4.594154e+01	-6.621768e+02
1.240000e-06	-6.092319e-06	-1.008195e-08	-4.576891e+01	-6.611881e+02
1.250000e-06	-6.069198e-06	-1.006205e-08	-4.559520e+01	-6.601997e+02
1.260000e-06	-6.045857e-06	-1.004104e-08	-4.541986e+01	-6.592132e+02
1.270000e-06	-6.022347e-06	-1.002951e-08	-4.524324e+01	-6.582296e+02
1.280000e-06	-5.998597e-06	-1.001608e-08	-4.506481e+01	-6.572496e+02
1.290000e-06	-5.974772e-06	-1.000718e-08	-4.488583e+01	-6.562733e+02
1.300000e-06	-5.950881e-06	-9.991489e-09	-4.470634e+01	-6.553004e+02
1.310000e-06	-5.926751e-06	-9.985083e-09	-4.452507e+01	-6.543302e+02
1.320000e-06	-5.902497e-06	-9.975132e-09	-4.434286e+01	-6.533614e+02
1.330000e-06	-5.878099e-06	-9.960826e-09	-4.415957e+01	-6.523926e+02
1.340000e-06	-5.853571e-06	-9.941795e-09	-4.397530e+01	-6.514221e+02
1.350000e-06	-5.828944e-06	-9.909782e-09	-4.379029e+01	-6.504479e+02
1.360000e-06	-5.804284e-06	-9.888409e-09	-4.360503e+01	-6.494682e+02
1.370000e-06	-5.779552e-06	-9.870749e-09	-4.341923e+01	-6.484810e+02
1.380000e-06	-5.754750e-06	-9.862822e-09	-4.323290e+01	-6.474846e+02
1.390000e-06	-5.729684e-06	-9.854249e-09	-4.304459e+01	-6.464774e+02
1.400000e-06	-5.704377e-06	-9.841434e-09	-4.285447e+01	-6.454581e+02
1.410000e-06	-5.678935e-06	-9.827551e-09	-4.266334e+01	-6.444256e+02
1.420000e-06	-5.653273e-06	-9.804584e-09	-4.247055e+01	-6.433792e+02
1.430000e-06	-5.627551e-06	-9.780192e-09	-4.227731e+01	-6.423185e+02
1.440000e-06	-5.601530e-06	-9.748700e-09	-4.208183e+01	-6.412433e+02
1.450000e-06	-5.575222e-06	-9.734120e-09	-4.188419e+01	-6.401536e+02
1.460000e-06	-5.548850e-06	-9.727217e-09	-4.168606e+01	-6.390497e+02
1.470000e-06	-5.522222e-06	-9.724312e-09	-4.148602e+01	-6.379319e+02
1.480000e-06	-5.495254e-06	-9.722663e-09	-4.128342e+01	-6.368004e+02
1.490000e-06	-5.468045e-06	-9.704802e-09	-4.107901e+01	-6.356556e+02
1.500000e-06	-5.440698e-06	-9.681713e-09	-4.087356e+01	-6.344976e+02
1.510000e-06	-5.413200e-06	-9.648357e-09	-4.066698e+01	-6.333264e+02
1.520000e-06	-5.385604e-06	-9.620896e-09	-4.045966e+01	-6.321417e+02
1.530000e-06	-5.357931e-06	-9.595132e-09	-4.025178e+01	-6.309431e+02
1.540000e-06	-5.329965e-06	-9.576351e-09	-4.004168e+01	-6.297299e+02
1.550000e-06	-5.301715e-06	-9.565067e-09	-3.982945e+01	-6.285010e+02
1.560000e-06	-5.273374e-06	-9.549793e-09	-3.961653e+01	-6.272554e+02
1.570000e-06	-5.245070e-06	-9.536750e-09	-3.940390e+01	-6.259917e+02
1.580000e-06	-5.216715e-06	-9.514482e-09	-3.919088e+01	-6.247086e+02
1.590000e-06	-5.188217e-06	-9.494124e-09	-3.897678e+01	-6.234045e+02
1.600000e-06	-5.159638e-06	-9.472802e-09	-3.876209e+01	-6.220782e+02
1.610000e-06	-5.131018e-06	-9.450842e-09	-3.854707e+01	-6.207285e+02
1.620000e-06	-5.102313e-06	-9.429576e-09	-3.833143e+01	-6.193543e+02
1.630000e-06	-5.073550e-06	-9.405457e-09	-3.811535e+01	-6.179550e+02
1.640000e-06	-5.044685e-06	-9.385404e-09	-3.789850e+01	-6.165300e+02
1.650000e-06	-5.015675e-06	-9.361571e-09	-3.768055e+01	-6.150795e+02
1.660000e-06	-4.986420e-06	-9.342102e-09	-3.746078e+01	-6.136038e+02
1.670000e-06	-4.957012e-06	-9.320495e-09	-3.723984e+01	-6.121034e+02
1.680000e-06	-4.927508e-06	-9.296529e-09	-3.701819e+01	-6.105796e+02
1.690000e-06	-4.897837e-06	-9.270196e-09	-3.679529e+01	-6.090336e+02
1.700000e-06	-4.868105e-06	-9.239316e-09	-3.657193e+01	-6.074671e+02
1.710000e-06	-4.838307e-06	-9.214447e-09	-3.634807e+01	-6.058817e+02
1.720000e-06	-4.808324e-06	-9.184673e-09	-3.612282e+01	-6.042793e+02
1.730000e-06	-4.778193e-06	-9.156221e-09	-3.589646e+01	-6.026618e+02
1.740000e-06	-4.747998e-06	-9.129365e-09	-3.566962e+01	-6.010309e+02
1.750000e-06	-4.717746e-06	-9.107804e-09	-3.544234e+01	-5.993882e+02
1.760000e-06	-4.687369e-06	-9.093100e-09	-3.521414e+01	-5.977350e+02
1.770000e-06	-4.656888e-06	-9.073561e-09	-3.498515e+01	-5.960725e+02
1.780000e-06	-4.626347e-06	-9.054504e-09	-3.475570e+01	-5.944014e+02
1.790000e-06	-4.595673e-06	-9.029232e-09	-3.452527e+01	-5.927222e+02
1.800000e-06	-4.564961e-06	-9.000326e-09	-3.429454e+01	-5.910350e+02
1.810000e-06	-4.534144e-06	-8.965434e-09	-3.406303e+01	-5.893397e+02
1.820000e-06	-4.503073e-06	-8.927757e-09	-3.382960e+01	-5.876357e+02
1.830000e-06	-4.471834e-06	-8.897903e-09	-3.359491e+01	-5.859224e+02
1.840000e-06	-4.440515e-06	-8.871993e-09	-3.335963e+01	-5.841990e+02
1.850000e-06	-4.409216e-06	-8.851917e-09	-3.312449e+01	-5.824646e+02
1.860000e-06	-4.377857e-06	-8.829610e-09	-3.288891e+01	-5.807183e+02
1.870000e-06	-4.346401e-06	-8.808996e-09	-3.265259e+01	-5.789592e+02
1.880000e-06	-4.314790e-06	-8.788351e-09	-3.241511e+01	-5.771866e+02
1.890000e-06	-4.282957e-06	-8.759721e-09	-3.217597e+01	-5.753998e+02
1.900000e-06	-4.250987e-06	-8.730522e-09	-3.193579e+01	-5.735986e+02
1.910000e-06	-4.218946e-06	-8.697377e-09	-3.169508e+01	-5.717827e+02
1.920000e-06	-4.186833e-06	-8.664567e-09	-3.145383e+01	-5.699523e+02
1.930000e-06	-4.154632e-06	-8.632766e-09	-3.121192e+01	-5.681076e+02
1.940000e-06	-4.122357e-06	-8.605464e-09	-3.096945e+01	-5.662490e+02
1.950000e-06	-4.089853e-06	-8.586322e-09	-3.072526e+01	-5.643772e+02
1.960000e-06	-4.057312e-06	-8.566987e-09	-3.048080e+01	-5.624928e+02
1.970000e-06	-4.024855e-06	-8.544111e-09	-3.023696e+01	-5.605966e+02
1.980000e-06	-3.992328e-06	-8.511213e-09	-2.999260e+01	-5.586891e+02
1.990000e-06	-3.959709e-06	-8.469545e-09	-2.974755e+01	-5.567708e+02
2.000000e-06	-3.926957e-06	-8.430764e-09	-2.950150e+01	-5.548422e+02
2.010000e-06	-3.894064e-06	-8.399759e-09	-2.925439e+01	-5.529032e+02
2.020000e-06	-3.861121e-06	-8.371519e-09	-2.900690e+01	-5.509536e+02
2.030000e-06	-3.828080e-06	-8.346737e-09	-2.875868e+01	-5.489931e+02
2.040000e-06	-3.794913e-06	-8.322250e-09	-2.850951e+01	-5.470207e+02
2.050000e-06	-3.761701e-06	-8.292647e-09	-2.826000e+01	-5.450354e+02
2.060000e-06	-3.728393e-06	-8.260183e-09	-2.800977e+01	-5.430358e+02
2.070000e-06	-3.695038e-06	-8.226230e-09	-2.775919e+01	-5.410203e+02
2.080000e-06	-3.661652e-06	-8.198190e-09	-2.750837e+01	-5.389870e+02
2.090000e-06	-3.628135e-06	-8.171751e-09	-2.725658e+01	-5.369340e+02
2.100000e-06	-3.594468e-06	-8.139755e-09	-2.700366e+01	-5.348594e+02
2.110000e-06	-3.560742e-06	-8.100313e-09	-2.675028e+01	-5.327612e+02
2.120000e-06	-3.526941e-06	-8.058362e-09	-2.649635e+01	-5.306374e+02
2.130000e-06	-3.492888e-06	-8.024942e-09	-2.624053e+01	-5.284863e+02
2.140000e-06	-3.458566e-06	-7.991903e-09	-2.598268e+01	-5.263065e+02
2.150000e-06	-3.423976e-06	-7.958257e-09	-2.572282e+01	-5.240965e+02
2.160000e-06	-3.389156e-06	-7.926365e-09	-2.546124e+01	-5.218555e+02
2.170000e-06	-3.354375e-06	-7.899496e-09	-2.519994e+01	-5.195826e+02
2.180000e-06	-3.319536e-06	-7.870948e-09	-2.493821e+01	-5.172774e+02
2.190000e-06	-3.284451e-06	-7.833462e-09	-2.467463e+01	-5.149397e+02
2.200000e-06	-3.249247e-06	-7.792897e-09	-2.441016e+01	-5.125696e+02
2.210000e-06	-3.214107e-06	-7.752411e-09	-2.414617e+01	-5.101673e+02
2.220000e-06	-3.178970e-06	-7.716133e-09	-2.388220e+01	-5.077331e+02
2.230000e-06	-3.143499e-06	-7.679263e-09	-2.361572e+01	-5.052676e+02
2.240000e-06	-3.107912e-06	-7.640033e-09	-2.334837e+01	-5.027712e+02
2.250000e-06	-3.072290e-06	-7.602796e-09	-2.308076e+01	-5.002443e+02
2.260000e-06	-3.036458e-06	-7.566702e-09	-2.281157e+01	-4.976875e+02
2.270000e-06	-3.000487e-06	-7.530502e-09	-2.254134e+01	-4.951009e+02
2.280000e-06	-2.964553e-06	-7.488739e-09	-2.227138e+01	-4.924847e+02
2.290000e-06	-2.928605e-06	-7.443673e-09	-2.200132e+01	-4.898390e+02
2.300000e-06	-2.892534e-06	-7.401023e-09	-2.173034e+01	-4.871635e+02
2.310000e-06	-2.856410e-06	-7.356181e-09	-2.145895e+01	-4.844581e+02
2.320000e-06	-2.820191e-06	-7.308576e-09	-2.118685e+01	-4.817223e+02
2.330000e-06	-2.783908e-06	-7.259718e-09	-2.091427e+01	-4.789555e+02
2.340000e-06	-2.747569e-06	-7.213091e-09	-2.064127e+01	-4.761573e+02
2.350000e-06	-2.711198e-06	-7.168759e-09	-2.036804e+01	-4.733272e+02
2.360000e-06	-2.674832e-06	-7.125073e-09	-2.009484e+01	-4.704645e+02
2.370000e-06	-2.638477e-06	-7.083684e-09	-1.982172e+01	-4.675688e+02
2.380000e-06	-2.602032e-06	-7.043150e-09	-1.954792e+01	-4.646398e+02
2.390000e-06	-2.565539e-06	-6.998516e-09	-1.927376e+01	-4.616774e+02
2.400000e-06	-2.529017e-06	-6.952227e-09	-1.899939e+01	-4.586814e+02
2.410000e-06	-2.492344e-06	-6.906941e-09	-1.872388e+01	-4.556520e+02
2.420000e-06	-2.455676e-06	-6.858992e-09	-1.844841e+01	-4.525895e+02
2.430000e-06	-2.419062e-06	-6.806853e-09	-1.817334e+01	-4.494945e+02
2.440000e-06	-2.382406e-06	-6.749933e-09	-1.789797e+01	-4.463673e+02
2.450000e-06	-2.345698e-06	-6.693178e-09	-1.762219e+01	-4.432088e+02
2.460000e-06	-2.308871e-06	-6.637374e-09	-1.734553e+01	-4.400196e+02
2.470000e-06	-2.272085e-06	-6.588903e-09	-1.706917e+01	-4.368006e+02
2.480000e-06	-2.235306e-06	-6.542670e-09	-1.679287e+01	-4.335524e+02
2.490000e-06	-2.198418e-06	-6.496234e-09	-1.651574e+01	-4.302756e+02
2.500000e-06	-2.161483e-06	-6.456936e-09	-1.623827e+01	-4.269709e+02
2.510000e-06	-2.124461e-06	-6.407844e-09	-1.596014e+01	-4.236386e+02
2.520000e-06	-2.087423e-06	-6.346741e-09	-1.568189e+01	-4.202790e+02
2.530000e-06	-2.050254e-06	-6.283304e-09	-1.540266e+01	-4.168922e+02
2.540000e-06	-2.013079e-06	-6.224549e-09	-1.512338e+01	-4.134781e+02
2.550000e-06	-1.976009e-06	-6.170556e-09	-1.484489e+01	-4.100364e+02
2.560000e-06	-1.938810e-06	-6.118052e-09	-1.456542e+01	-4.065668e+02
2.570000e-06	-1.901495e-06	-6.069824e-09	-1.428509e+01	-4.030688e+02
2.580000e-06	-1.864070e-06	-6.021965e-09	-1.400394e+01	-3.995418e+02
2.590000e-06	-1.826673e-06	-5.971686e-09	-1.372299e+01	-3.959853e+02
2.600000e-06	-1.789260e-06	-5.913619e-09	-1.344192e+01	-3.923986e+02
2.610000e-06	-1.751726e-06	-5.850603e-09	-1.315995e+01	-3.887811e+02
2.620000e-06	-1.714248e-06	-5.786867e-09	-1.287839e+01	-3.851323e+02
2.630000e-06	-1.676776e-06	-5.719669e-09	-1.259688e+01	-3.814517e+02
2.640000e-06	-1.639123e-06	-5.654493e-09	-1.231401e+01	-3.777390e+02
2.650000e-06	-1.601331e-06	-5.594871e-09	-1.203009e+01	-3.739937e+02
2.660000e-06	-1.563571e-06	-5.542439e-09	-1.174642e+01	-3.702156e+02
2.670000e-06	-1.525891e-06	-5.491557e-09	-1.146335e+01	-3.664045e+02
2.680000e-06	-1.488189e-06	-5.438999e-09	-1.118011e+01	-3.625601e+02
2.690000e-06	-1.450297e-06	-5.384414e-09	-1.089544e+01	-3.586822e+02
2.700000e-06	-1.412260e-06	-5.319889e-09	-1.060969e+01	-3.547705e+02
2.710000e-06	-1.374290e-06	-5.250762e-09	-1.032443e+01	-3.508243e+02
2.720000e-06	-1.336332e-06	-5.182067e-09	-1.003927e+01	-3.468432e+02
2.730000e-06	-1.298353e-06	-5.115050e-09	-9.753955e+00	-3.428262e+02
2.740000e-06	-1.260344e-06	-5.056628e-09	-9.468407e+00	-3.387722e+02
2.750000e-06	-1.222237e-06	-4.996388e-09	-9.182125e+00	-3.346798e+02
2.760000e-06	-1.184093e-06	-4.931622e-09	-8.895571e+00	-3.305474e+02
2.770000e-06	-1.145912e-06	-4.865378e-09	-8.608733e+00	-3.263731e+02
2.780000e-06	-1.107700e-06	-4.792017e-09	-8.321665e+00	-3.221547e+02
2.790000e-06	-1.069566e-06	-4.720658e-09	-8.035177e+00	-3.178899e+02
2.800000e-06	-1.031426e-06	-4.646018e-09	-7.748650e+00	-3.135762e+02
2.810000e-06	-9.931498e-07	-4.579489e-09	-7.461097e+00	-3.092108e+02
2.820000e-06	-9.547734e-07	-4.524017e-09	-7.172791e+00	-3.047912e+02
2.830000e-06	-9.163832e-07	-4.463796e-09	-6.884383e+00	-3.003147e+02
2.840000e-06	-8.779945e-07	-4.400516e-09	-6.595985e+00	-2.957788e+02
