# Temperatura_=_20.0
# Concentracion g/m^3_=_10000.0
# C_Vs_to_Am_M_A/Vsm_=_65563218390.804596
# pendiente_HvsI_1/m_=_3716.3
# ordenada_HvsI_A/m_=_1297.0
# frecuencia_Hz_=_81232.4148092823

Tiempo_(s)	Campo_(V.s)	Magnetizacion_(V.s)	Campo_(kA/m)	Magnetizacion_(A/m)
0.000000e+00	-7.567004e-06	-1.092576e-08	-5.695104e+01	-7.133414e+02
1.000000e-08	-7.567154e-06	-1.092574e-08	-5.695217e+01	-7.132082e+02
2.000000e-08	-7.567234e-06	-1.092727e-08	-5.695277e+01	-7.130469e+02
3.000000e-08	-7.567201e-06	-1.093100e-08	-5.695252e+01	-7.128565e+02
4.000000e-08	-7.566989e-06	-1.093110e-08	-5.695093e+01	-7.126368e+02
5.000000e-08	-7.566512e-06	-1.089923e-08	-5.694734e+01	-7.123887e+02
6.000000e-08	-7.565915e-06	-1.079526e-08	-5.694284e+01	-7.121144e+02
7.000000e-08	-7.565248e-06	-1.074865e-08	-5.693782e+01	-7.118171e+02
8.000000e-08	-7.564436e-06	-1.077729e-08	-5.693171e+01	-7.115015e+02
9.000000e-08	-7.563371e-06	-1.094915e-08	-5.692370e+01	-7.111728e+02
1.000000e-07	-7.562064e-06	-1.116324e-08	-5.691386e+01	-7.108374e+02
1.100000e-07	-7.560494e-06	-1.129384e-08	-5.690205e+01	-7.105023e+02
1.200000e-07	-7.558790e-06	-1.112964e-08	-5.688921e+01	-7.101746e+02
1.300000e-07	-7.556876e-06	-1.093179e-08	-5.687482e+01	-7.098619e+02
1.400000e-07	-7.554615e-06	-1.100450e-08	-5.685779e+01	-7.095711e+02
1.500000e-07	-7.552178e-06	-1.095054e-08	-5.683946e+01	-7.093091e+02
1.600000e-07	-7.549494e-06	-1.080227e-08	-5.681925e+01	-7.090815e+02
1.700000e-07	-7.546454e-06	-1.067515e-08	-5.679638e+01	-7.088931e+02
1.800000e-07	-7.542975e-06	-1.073320e-08	-5.677019e+01	-7.087473e+02
1.900000e-07	-7.539141e-06	-1.071418e-08	-5.674133e+01	-7.086462e+02
2.000000e-07	-7.535110e-06	-1.070767e-08	-5.671100e+01	-7.085901e+02
2.100000e-07	-7.530944e-06	-1.090302e-08	-5.667964e+01	-7.085779e+02
2.200000e-07	-7.526589e-06	-1.084639e-08	-5.664687e+01	-7.086067e+02
2.300000e-07	-7.522125e-06	-1.086223e-08	-5.661326e+01	-7.086722e+02
2.400000e-07	-7.517667e-06	-1.097668e-08	-5.657972e+01	-7.087688e+02
2.500000e-07	-7.513133e-06	-1.102523e-08	-5.654560e+01	-7.088897e+02
2.600000e-07	-7.508477e-06	-1.093465e-08	-5.651055e+01	-7.090273e+02
2.700000e-07	-7.503570e-06	-1.079606e-08	-5.647362e+01	-7.091734e+02
2.800000e-07	-7.498478e-06	-1.100832e-08	-5.643529e+01	-7.093197e+02
2.900000e-07	-7.493234e-06	-1.096981e-08	-5.639583e+01	-7.094576e+02
3.000000e-07	-7.487665e-06	-1.073809e-08	-5.635392e+01	-7.095792e+02
3.100000e-07	-7.481934e-06	-1.078368e-08	-5.631078e+01	-7.096773e+02
3.200000e-07	-7.476029e-06	-1.093640e-08	-5.626634e+01	-7.097455e+02
3.300000e-07	-7.469880e-06	-1.092588e-08	-5.622006e+01	-7.097785e+02
3.400000e-07	-7.463549e-06	-1.089739e-08	-5.617241e+01	-7.097724e+02
3.500000e-07	-7.457064e-06	-1.098745e-08	-5.612361e+01	-7.097247e+02
3.600000e-07	-7.450294e-06	-1.079003e-08	-5.607265e+01	-7.096342e+02
3.700000e-07	-7.443379e-06	-1.078641e-08	-5.602061e+01	-7.095011e+02
3.800000e-07	-7.436452e-06	-1.099534e-08	-5.596848e+01	-7.093267e+02
3.900000e-07	-7.429278e-06	-1.089839e-08	-5.591448e+01	-7.091138e+02
4.000000e-07	-7.421706e-06	-1.074646e-08	-5.585749e+01	-7.088655e+02
4.100000e-07	-7.413947e-06	-1.082746e-08	-5.579910e+01	-7.085862e+02
4.200000e-07	-7.406162e-06	-1.097627e-08	-5.574050e+01	-7.082801e+02
4.300000e-07	-7.398167e-06	-1.086456e-08	-5.568033e+01	-7.079520e+02
4.400000e-07	-7.389915e-06	-1.082421e-08	-5.561822e+01	-7.076065e+02
4.500000e-07	-7.381469e-06	-1.083602e-08	-5.555466e+01	-7.072476e+02
4.600000e-07	-7.372920e-06	-1.081570e-08	-5.549032e+01	-7.068791e+02
4.700000e-07	-7.364310e-06	-1.089291e-08	-5.542552e+01	-7.065039e+02
4.800000e-07	-7.355498e-06	-1.083724e-08	-5.535919e+01	-7.061243e+02
4.900000e-07	-7.346559e-06	-1.074396e-08	-5.529192e+01	-7.057415e+02
5.000000e-07	-7.337564e-06	-1.074799e-08	-5.522422e+01	-7.053559e+02
5.100000e-07	-7.328507e-06	-1.084661e-08	-5.515605e+01	-7.049673e+02
5.200000e-07	-7.319228e-06	-1.083253e-08	-5.508622e+01	-7.045743e+02
5.300000e-07	-7.309606e-06	-1.075605e-08	-5.501380e+01	-7.041754e+02
5.400000e-07	-7.299751e-06	-1.077919e-08	-5.493963e+01	-7.037684e+02
5.500000e-07	-7.289718e-06	-1.077603e-08	-5.486412e+01	-7.033509e+02
5.600000e-07	-7.279356e-06	-1.082306e-08	-5.478613e+01	-7.029204e+02
5.700000e-07	-7.268509e-06	-1.078047e-08	-5.470450e+01	-7.024744e+02
5.800000e-07	-7.257279e-06	-1.069457e-08	-5.461998e+01	-7.020111e+02
5.900000e-07	-7.245708e-06	-1.070542e-08	-5.453289e+01	-7.015288e+02
6.000000e-07	-7.233948e-06	-1.074892e-08	-5.444438e+01	-7.010265e+02
6.100000e-07	-7.221975e-06	-1.075266e-08	-5.435427e+01	-7.005040e+02
6.200000e-07	-7.209755e-06	-1.068501e-08	-5.426230e+01	-6.999616e+02
6.300000e-07	-7.197307e-06	-1.070370e-08	-5.416861e+01	-6.994005e+02
6.400000e-07	-7.184742e-06	-1.071818e-08	-5.407404e+01	-6.988225e+02
6.500000e-07	-7.172024e-06	-1.072840e-08	-5.397832e+01	-6.982302e+02
6.600000e-07	-7.159027e-06	-1.070578e-08	-5.388051e+01	-6.976266e+02
6.700000e-07	-7.145942e-06	-1.062415e-08	-5.378202e+01	-6.970150e+02
6.800000e-07	-7.132722e-06	-1.063546e-08	-5.368253e+01	-6.963992e+02
6.900000e-07	-7.119316e-06	-1.065556e-08	-5.358163e+01	-6.957828e+02
7.000000e-07	-7.105669e-06	-1.066017e-08	-5.347892e+01	-6.951695e+02
7.100000e-07	-7.091715e-06	-1.062124e-08	-5.337391e+01	-6.945626e+02
7.200000e-07	-7.077615e-06	-1.062023e-08	-5.326778e+01	-6.939654e+02
7.300000e-07	-7.063312e-06	-1.066205e-08	-5.316013e+01	-6.933802e+02
7.400000e-07	-7.048821e-06	-1.065276e-08	-5.305107e+01	-6.928093e+02
7.500000e-07	-7.034223e-06	-1.062949e-08	-5.294120e+01	-6.922539e+02
7.600000e-07	-7.019465e-06	-1.057377e-08	-5.283013e+01	-6.917149e+02
7.700000e-07	-7.004531e-06	-1.058274e-08	-5.271773e+01	-6.911925e+02
7.800000e-07	-6.989205e-06	-1.059138e-08	-5.260239e+01	-6.906863e+02
7.900000e-07	-6.973616e-06	-1.056960e-08	-5.248506e+01	-6.901954e+02
8.000000e-07	-6.957990e-06	-1.055361e-08	-5.236746e+01	-6.897186e+02
8.100000e-07	-6.941997e-06	-1.054437e-08	-5.224709e+01	-6.892541e+02
8.200000e-07	-6.925748e-06	-1.058236e-08	-5.212479e+01	-6.888003e+02
8.300000e-07	-6.909359e-06	-1.057544e-08	-5.200145e+01	-6.883551e+02
8.400000e-07	-6.892573e-06	-1.055860e-08	-5.187511e+01	-6.879167e+02
8.500000e-07	-6.875577e-06	-1.052949e-08	-5.174720e+01	-6.874831e+02
8.600000e-07	-6.858320e-06	-1.051948e-08	-5.161732e+01	-6.870527e+02
8.700000e-07	-6.840784e-06	-1.053179e-08	-5.148533e+01	-6.866238e+02
8.800000e-07	-6.823245e-06	-1.050280e-08	-5.135334e+01	-6.861952e+02
8.900000e-07	-6.805530e-06	-1.049269e-08	-5.122001e+01	-6.857655e+02
9.000000e-07	-6.787584e-06	-1.048123e-08	-5.108494e+01	-6.853339e+02
9.100000e-07	-6.769571e-06	-1.049836e-08	-5.094937e+01	-6.848994e+02
9.200000e-07	-6.751378e-06	-1.050199e-08	-5.081245e+01	-6.844611e+02
9.300000e-07	-6.733072e-06	-1.047914e-08	-5.067467e+01	-6.840183e+02
9.400000e-07	-6.714626e-06	-1.046734e-08	-5.053584e+01	-6.835701e+02
9.500000e-07	-6.695978e-06	-1.045080e-08	-5.039549e+01	-6.831154e+02
9.600000e-07	-6.677203e-06	-1.045644e-08	-5.025419e+01	-6.826530e+02
9.700000e-07	-6.658261e-06	-1.043190e-08	-5.011163e+01	-6.821816e+02
9.800000e-07	-6.639211e-06	-1.041430e-08	-4.996825e+01	-6.816994e+02
9.900000e-07	-6.619898e-06	-1.040792e-08	-4.982290e+01	-6.812045e+02
1.000000e-06	-6.600359e-06	-1.040827e-08	-4.967584e+01	-6.806947e+02
1.010000e-06	-6.580669e-06	-1.042060e-08	-4.952765e+01	-6.801678e+02
1.020000e-06	-6.560777e-06	-1.039960e-08	-4.937794e+01	-6.796212e+02
1.030000e-06	-6.540692e-06	-1.038763e-08	-4.922678e+01	-6.790525e+02
1.040000e-06	-6.520469e-06	-1.037033e-08	-4.907457e+01	-6.784592e+02
1.050000e-06	-6.500169e-06	-1.036279e-08	-4.892179e+01	-6.778388e+02
1.060000e-06	-6.479753e-06	-1.034599e-08	-4.876813e+01	-6.771894e+02
1.070000e-06	-6.459262e-06	-1.031919e-08	-4.861391e+01	-6.765091e+02
1.080000e-06	-6.438702e-06	-1.031452e-08	-4.845917e+01	-6.757965e+02
1.090000e-06	-6.418060e-06	-1.030373e-08	-4.830382e+01	-6.750508e+02
1.100000e-06	-6.397300e-06	-1.030035e-08	-4.814758e+01	-6.742715e+02
1.110000e-06	-6.376429e-06	-1.027727e-08	-4.799049e+01	-6.734589e+02
1.120000e-06	-6.355454e-06	-1.025920e-08	-4.783263e+01	-6.726135e+02
1.130000e-06	-6.334301e-06	-1.025181e-08	-4.767342e+01	-6.717367e+02
1.140000e-06	-6.312926e-06	-1.024021e-08	-4.751255e+01	-6.708300e+02
1.150000e-06	-6.291391e-06	-1.022976e-08	-4.735047e+01	-6.698957e+02
1.160000e-06	-6.269717e-06	-1.020316e-08	-4.718735e+01	-6.689359e+02
1.170000e-06	-6.247826e-06	-1.019096e-08	-4.702260e+01	-6.679535e+02
1.180000e-06	-6.225783e-06	-1.017448e-08	-4.685670e+01	-6.669509e+02
1.190000e-06	-6.203600e-06	-1.015859e-08	-4.668974e+01	-6.659310e+02
1.200000e-06	-6.181326e-06	-1.013902e-08	-4.652210e+01	-6.648961e+02
1.210000e-06	-6.158981e-06	-1.011240e-08	-4.635393e+01	-6.638488e+02
1.220000e-06	-6.136369e-06	-1.010280e-08	-4.618375e+01	-6.627911e+02
1.230000e-06	-6.113529e-06	-1.008516e-08	-4.601185e+01	-6.617247e+02
1.240000e-06	-6.090647e-06	-1.007028e-08	-4.583963e+01	-6.606510e+02
1.250000e-06	-6.067664e-06	-1.004590e-08	-4.566665e+01	-6.595709e+02
1.260000e-06	-6.044484e-06	-1.002268e-08	-4.549220e+01	-6.584852e+02
1.270000e-06	-6.021027e-06	-1.000635e-08	-4.531566e+01	-6.573941e+02
1.280000e-06	-5.997396e-06	-9.983255e-09	-4.513780e+01	-6.562976e+02
1.290000e-06	-5.973723e-06	-9.965555e-09	-4.495963e+01	-6.551957e+02
1.300000e-06	-5.949829e-06	-9.944909e-09	-4.477980e+01	-6.540879e+02
1.310000e-06	-5.925955e-06	-9.939352e-09	-4.460012e+01	-6.529741e+02
1.320000e-06	-5.901971e-06	-9.933887e-09	-4.441961e+01	-6.518540e+02
1.330000e-06	-5.877720e-06	-9.920855e-09	-4.423709e+01	-6.507274e+02
1.340000e-06	-5.853290e-06	-9.902262e-09	-4.405323e+01	-6.495945e+02
1.350000e-06	-5.828726e-06	-9.869467e-09	-4.386835e+01	-6.484556e+02
1.360000e-06	-5.804174e-06	-9.842855e-09	-4.368356e+01	-6.473112e+02
1.370000e-06	-5.779490e-06	-9.817875e-09	-4.349779e+01	-6.461624e+02
1.380000e-06	-5.754686e-06	-9.803817e-09	-4.331111e+01	-6.450102e+02
1.390000e-06	-5.729709e-06	-9.792272e-09	-4.312312e+01	-6.438560e+02
1.400000e-06	-5.704539e-06	-9.782163e-09	-4.293369e+01	-6.427014e+02
1.410000e-06	-5.679327e-06	-9.772872e-09	-4.274394e+01	-6.415480e+02
1.420000e-06	-5.654052e-06	-9.747126e-09	-4.255372e+01	-6.403976e+02
1.430000e-06	-5.628510e-06	-9.720222e-09	-4.236148e+01	-6.392517e+02
1.440000e-06	-5.602734e-06	-9.689468e-09	-4.216749e+01	-6.381118e+02
1.450000e-06	-5.576724e-06	-9.672775e-09	-4.197172e+01	-6.369790e+02
1.460000e-06	-5.550331e-06	-9.662008e-09	-4.177309e+01	-6.358541e+02
1.470000e-06	-5.523759e-06	-9.653005e-09	-4.157310e+01	-6.347377e+02
1.480000e-06	-5.497130e-06	-9.649144e-09	-4.137268e+01	-6.336296e+02
1.490000e-06	-5.470209e-06	-9.634897e-09	-4.117007e+01	-6.325295e+02
1.500000e-06	-5.442944e-06	-9.617798e-09	-4.096487e+01	-6.314362e+02
1.510000e-06	-5.415483e-06	-9.588611e-09	-4.075819e+01	-6.303483e+02
1.520000e-06	-5.387791e-06	-9.562990e-09	-4.054977e+01	-6.292641e+02
1.530000e-06	-5.359956e-06	-9.543612e-09	-4.034028e+01	-6.281812e+02
1.540000e-06	-5.331989e-06	-9.529616e-09	-4.012979e+01	-6.270972e+02
1.550000e-06	-5.303774e-06	-9.521659e-09	-3.991744e+01	-6.260092e+02
1.560000e-06	-5.275497e-06	-9.508355e-09	-3.970462e+01	-6.249145e+02
1.570000e-06	-5.247203e-06	-9.497096e-09	-3.949168e+01	-6.238101e+02
1.580000e-06	-5.218835e-06	-9.478958e-09	-3.927817e+01	-6.226932e+02
1.590000e-06	-5.190384e-06	-9.459802e-09	-3.906404e+01	-6.215612e+02
1.600000e-06	-5.161877e-06	-9.439761e-09	-3.884949e+01	-6.204116e+02
1.610000e-06	-5.133301e-06	-9.420127e-09	-3.863442e+01	-6.192421e+02
1.620000e-06	-5.104552e-06	-9.404197e-09	-3.841805e+01	-6.180508e+02
1.630000e-06	-5.075752e-06	-9.384933e-09	-3.820130e+01	-6.168361e+02
1.640000e-06	-5.046927e-06	-9.367542e-09	-3.798435e+01	-6.155967e+02
1.650000e-06	-5.017927e-06	-9.348114e-09	-3.776609e+01	-6.143315e+02
1.660000e-06	-4.988782e-06	-9.330910e-09	-3.754674e+01	-6.130397e+02
1.670000e-06	-4.959573e-06	-9.311200e-09	-3.732690e+01	-6.117207e+02
1.680000e-06	-4.930322e-06	-9.287264e-09	-3.710676e+01	-6.103741e+02
1.690000e-06	-4.900954e-06	-9.266294e-09	-3.688573e+01	-6.089995e+02
1.700000e-06	-4.871349e-06	-9.246731e-09	-3.666291e+01	-6.075967e+02
1.710000e-06	-4.841577e-06	-9.225645e-09	-3.643884e+01	-6.061654e+02
1.720000e-06	-4.811838e-06	-9.198443e-09	-3.621502e+01	-6.047053e+02
1.730000e-06	-4.781955e-06	-9.168697e-09	-3.599011e+01	-6.032160e+02
1.740000e-06	-4.751877e-06	-9.139534e-09	-3.576374e+01	-6.016971e+02
1.750000e-06	-4.721685e-06	-9.115198e-09	-3.553651e+01	-6.001482e+02
1.760000e-06	-4.691388e-06	-9.093145e-09	-3.530848e+01	-5.985688e+02
1.770000e-06	-4.660994e-06	-9.071427e-09	-3.507973e+01	-5.969584e+02
1.780000e-06	-4.630506e-06	-9.052842e-09	-3.485027e+01	-5.953167e+02
1.790000e-06	-4.599892e-06	-9.032579e-09	-3.461986e+01	-5.936432e+02
1.800000e-06	-4.569066e-06	-9.009751e-09	-3.438785e+01	-5.919379e+02
1.810000e-06	-4.538163e-06	-8.974849e-09	-3.415527e+01	-5.902007e+02
1.820000e-06	-4.507121e-06	-8.932474e-09	-3.392164e+01	-5.884321e+02
1.830000e-06	-4.476004e-06	-8.895534e-09	-3.368745e+01	-5.866327e+02
1.840000e-06	-4.444772e-06	-8.865143e-09	-3.345239e+01	-5.848034e+02
1.850000e-06	-4.413393e-06	-8.838978e-09	-3.321622e+01	-5.829455e+02
1.860000e-06	-4.382008e-06	-8.811953e-09	-3.298002e+01	-5.810606e+02
1.870000e-06	-4.350433e-06	-8.789427e-09	-3.274238e+01	-5.791507e+02
1.880000e-06	-4.318737e-06	-8.766759e-09	-3.250382e+01	-5.772179e+02
1.890000e-06	-4.287088e-06	-8.739422e-09	-3.226563e+01	-5.752647e+02
1.900000e-06	-4.255302e-06	-8.709220e-09	-3.202639e+01	-5.732935e+02
1.910000e-06	-4.223288e-06	-8.677779e-09	-3.178545e+01	-5.713068e+02
1.920000e-06	-4.191204e-06	-8.643969e-09	-3.154398e+01	-5.693074e+02
1.930000e-06	-4.159057e-06	-8.600682e-09	-3.130204e+01	-5.672974e+02
1.940000e-06	-4.126735e-06	-8.561060e-09	-3.105877e+01	-5.652793e+02
1.950000e-06	-4.094391e-06	-8.531176e-09	-3.081534e+01	-5.632548e+02
1.960000e-06	-4.062014e-06	-8.510630e-09	-3.057167e+01	-5.612257e+02
1.970000e-06	-4.029497e-06	-8.491523e-09	-3.032693e+01	-5.591931e+02
1.980000e-06	-3.996934e-06	-8.463438e-09	-3.008185e+01	-5.571579e+02
1.990000e-06	-3.964338e-06	-8.430189e-09	-2.983653e+01	-5.551205e+02
2.000000e-06	-3.931692e-06	-8.390793e-09	-2.959083e+01	-5.530809e+02
2.010000e-06	-3.898926e-06	-8.353356e-09	-2.934422e+01	-5.510390e+02
2.020000e-06	-3.866179e-06	-8.320736e-09	-2.909776e+01	-5.489940e+02
2.030000e-06	-3.833363e-06	-8.292350e-09	-2.885078e+01	-5.469452e+02
2.040000e-06	-3.800371e-06	-8.267438e-09	-2.860248e+01	-5.448915e+02
2.050000e-06	-3.767291e-06	-8.238907e-09	-2.835351e+01	-5.428320e+02
2.060000e-06	-3.734069e-06	-8.208998e-09	-2.810347e+01	-5.407654e+02
2.070000e-06	-3.700777e-06	-8.176131e-09	-2.785291e+01	-5.386909e+02
2.080000e-06	-3.667378e-06	-8.146299e-09	-2.760154e+01	-5.366075e+02
2.090000e-06	-3.633831e-06	-8.117742e-09	-2.734906e+01	-5.345145e+02
2.100000e-06	-3.600131e-06	-8.087035e-09	-2.709543e+01	-5.324113e+02
2.110000e-06	-3.566311e-06	-8.053227e-09	-2.684089e+01	-5.302975e+02
2.120000e-06	-3.532527e-06	-8.014844e-09	-2.658663e+01	-5.281730e+02
2.130000e-06	-3.498607e-06	-7.980918e-09	-2.633133e+01	-5.260378e+02
2.140000e-06	-3.464402e-06	-7.947379e-09	-2.607390e+01	-5.238917e+02
2.150000e-06	-3.430032e-06	-7.916723e-09	-2.581522e+01	-5.217351e+02
2.160000e-06	-3.395635e-06	-7.889414e-09	-2.555634e+01	-5.195677e+02
2.170000e-06	-3.361230e-06	-7.860568e-09	-2.529740e+01	-5.173897e+02
2.180000e-06	-3.326659e-06	-7.827931e-09	-2.503721e+01	-5.152005e+02
2.190000e-06	-3.291871e-06	-7.794184e-09	-2.477539e+01	-5.129997e+02
2.200000e-06	-3.256861e-06	-7.761068e-09	-2.451190e+01	-5.107864e+02
2.210000e-06	-3.221733e-06	-7.722858e-09	-2.424752e+01	-5.085592e+02
2.220000e-06	-3.186487e-06	-7.682850e-09	-2.398224e+01	-5.063164e+02
2.230000e-06	-3.151173e-06	-7.645556e-09	-2.371646e+01	-5.040560e+02
2.240000e-06	-3.115720e-06	-7.611865e-09	-2.344964e+01	-5.017754e+02
2.250000e-06	-3.080110e-06	-7.582875e-09	-2.318163e+01	-4.994717e+02
2.260000e-06	-3.044490e-06	-7.550188e-09	-2.291355e+01	-4.971420e+02
2.270000e-06	-3.008820e-06	-7.514709e-09	-2.264508e+01	-4.947828e+02
2.280000e-06	-2.973068e-06	-7.479035e-09	-2.237600e+01	-4.923907e+02
2.290000e-06	-2.937149e-06	-7.439549e-09	-2.210567e+01	-4.899625e+02
2.300000e-06	-2.901057e-06	-7.396382e-09	-2.183403e+01	-4.874947e+02
2.310000e-06	-2.864902e-06	-7.352285e-09	-2.156192e+01	-4.849845e+02
2.320000e-06	-2.828741e-06	-7.310094e-09	-2.128976e+01	-4.824290e+02
2.330000e-06	-2.792493e-06	-7.269170e-09	-2.101695e+01	-4.798260e+02
2.340000e-06	-2.756145e-06	-7.229249e-09	-2.074339e+01	-4.771736e+02
2.350000e-06	-2.719778e-06	-7.186202e-09	-2.046969e+01	-4.744707e+02
2.360000e-06	-2.683395e-06	-7.146100e-09	-2.019586e+01	-4.717163e+02
2.370000e-06	-2.646892e-06	-7.108084e-09	-1.992113e+01	-4.689104e+02
2.380000e-06	-2.610355e-06	-7.062365e-09	-1.964614e+01	-4.660532e+02
2.390000e-06	-2.573904e-06	-7.010411e-09	-1.937180e+01	-4.631454e+02
2.400000e-06	-2.537387e-06	-6.957167e-09	-1.909697e+01	-4.601881e+02
2.410000e-06	-2.500709e-06	-6.910148e-09	-1.882092e+01	-4.571828e+02
2.420000e-06	-2.464076e-06	-6.864355e-09	-1.854521e+01	-4.541309e+02
2.430000e-06	-2.427432e-06	-6.813236e-09	-1.826942e+01	-4.510341e+02
2.440000e-06	-2.390701e-06	-6.763271e-09	-1.799298e+01	-4.478939e+02
2.450000e-06	-2.354018e-06	-6.714961e-09	-1.771689e+01	-4.447119e+02
2.460000e-06	-2.317320e-06	-6.665498e-09	-1.744069e+01	-4.414893e+02
2.470000e-06	-2.280577e-06	-6.610586e-09	-1.716415e+01	-4.382271e+02
2.480000e-06	-2.243776e-06	-6.551834e-09	-1.688718e+01	-4.349260e+02
2.490000e-06	-2.206985e-06	-6.498495e-09	-1.661028e+01	-4.315865e+02
2.500000e-06	-2.170135e-06	-6.449776e-09	-1.633294e+01	-4.282087e+02
2.510000e-06	-2.133118e-06	-6.397008e-09	-1.605435e+01	-4.247924e+02
2.520000e-06	-2.096140e-06	-6.338789e-09	-1.577604e+01	-4.213374e+02
2.530000e-06	-2.059144e-06	-6.282611e-09	-1.549760e+01	-4.178433e+02
2.540000e-06	-2.022066e-06	-6.230914e-09	-1.521854e+01	-4.143096e+02
2.550000e-06	-1.985037e-06	-6.177644e-09	-1.493985e+01	-4.107359e+02
2.560000e-06	-1.947913e-06	-6.120847e-09	-1.466045e+01	-4.071222e+02
2.570000e-06	-1.910622e-06	-6.063815e-09	-1.437979e+01	-4.034686e+02
2.580000e-06	-1.873363e-06	-6.007109e-09	-1.409937e+01	-3.997754e+02
2.590000e-06	-1.836071e-06	-5.945172e-09	-1.381870e+01	-3.960436e+02
2.600000e-06	-1.798677e-06	-5.879657e-09	-1.353727e+01	-3.922744e+02
2.610000e-06	-1.761220e-06	-5.817085e-09	-1.325535e+01	-3.884695e+02
2.620000e-06	-1.723667e-06	-5.757197e-09	-1.297272e+01	-3.846311e+02
2.630000e-06	-1.686105e-06	-5.697482e-09	-1.269002e+01	-3.807617e+02
2.640000e-06	-1.648463e-06	-5.635632e-09	-1.240672e+01	-3.768639e+02
2.650000e-06	-1.610858e-06	-5.574783e-09	-1.212369e+01	-3.729407e+02
2.660000e-06	-1.573232e-06	-5.515223e-09	-1.184051e+01	-3.689952e+02
2.670000e-06	-1.535521e-06	-5.453161e-09	-1.155669e+01	-3.650301e+02
2.680000e-06	-1.497895e-06	-5.387764e-09	-1.127350e+01	-3.610481e+02
2.690000e-06	-1.460105e-06	-5.322839e-09	-1.098909e+01	-3.570515e+02
2.700000e-06	-1.422138e-06	-5.258827e-09	-1.070334e+01	-3.530420e+02
2.710000e-06	-1.384172e-06	-5.196517e-09	-1.041760e+01	-3.490208e+02
2.720000e-06	-1.346267e-06	-5.134617e-09	-1.013232e+01	-3.449883e+02
2.730000e-06	-1.308277e-06	-5.071021e-09	-9.846395e+00	-3.409442e+02
2.740000e-06	-1.270217e-06	-5.013426e-09	-9.559952e+00	-3.368874e+02
2.750000e-06	-1.232185e-06	-4.948449e-09	-9.273709e+00	-3.328159e+02
2.760000e-06	-1.194132e-06	-4.879701e-09	-8.987314e+00	-3.287270e+02
2.770000e-06	-1.156087e-06	-4.807560e-09	-8.700980e+00	-3.246174e+02
2.780000e-06	-1.117912e-06	-4.731598e-09	-8.413665e+00	-3.204831e+02
2.790000e-06	-1.079610e-06	-4.671675e-09	-8.125399e+00	-3.163197e+02
2.800000e-06	-1.041463e-06	-4.610313e-09	-7.838291e+00	-3.121225e+02
2.810000e-06	-1.003370e-06	-4.554153e-09	-7.551599e+00	-3.078866e+02
2.820000e-06	-9.651620e-07	-4.497430e-09	-7.264035e+00	-3.036073e+02
2.830000e-06	-9.269457e-07	-4.431207e-09	-6.976410e+00	-2.992799e+02
2.840000e-06	-8.886782e-07	-4.361300e-09	-6.688400e+00	-2.948999e+02
2.850000e-06	-8.504264e-07	-4.280527e-09	-6.400507e+00	-2.904635e+02
