# Temperatura_=_20.0
# Concentracion g/m^3_=_10000.0
# C_Vs_to_Am_M_A/Vsm_=_65563218390.804596
# pendiente_HvsI_1/m_=_3716.3
# ordenada_HvsI_A/m_=_1297.0
# frecuencia_Hz_=_81179.15584075428

Tiempo_(s)	Campo_(V.s)	Magnetizacion_(V.s)	Campo_(kA/m)	Magnetizacion_(A/m)
0.000000e+00	-5.128384e-06	-9.275140e-09	-3.845362e+01	-6.093236e+02
1.000000e-08	-5.128542e-06	-9.258930e-09	-3.845480e+01	-6.094681e+02
2.000000e-08	-5.128673e-06	-9.260929e-09	-3.845578e+01	-6.096612e+02
3.000000e-08	-5.128662e-06	-9.315437e-09	-3.845570e+01	-6.099008e+02
4.000000e-08	-5.128556e-06	-9.246627e-09	-3.845490e+01	-6.101833e+02
5.000000e-08	-5.128360e-06	-9.293474e-09	-3.845343e+01	-6.105034e+02
6.000000e-08	-5.128104e-06	-9.275771e-09	-3.845152e+01	-6.108551e+02
7.000000e-08	-5.127753e-06	-9.267561e-09	-3.844888e+01	-6.112308e+02
8.000000e-08	-5.127328e-06	-9.452431e-09	-3.844570e+01	-6.116226e+02
9.000000e-08	-5.126819e-06	-9.425076e-09	-3.844188e+01	-6.120221e+02
1.000000e-07	-5.126240e-06	-9.467660e-09	-3.843754e+01	-6.124207e+02
1.100000e-07	-5.125604e-06	-9.366470e-09	-3.843277e+01	-6.128100e+02
1.200000e-07	-5.124794e-06	-9.343083e-09	-3.842670e+01	-6.131822e+02
1.300000e-07	-5.123945e-06	-9.442610e-09	-3.842033e+01	-6.135303e+02
1.400000e-07	-5.122867e-06	-9.418021e-09	-3.841225e+01	-6.138482e+02
1.500000e-07	-5.121519e-06	-9.397569e-09	-3.840214e+01	-6.141310e+02
1.600000e-07	-5.120017e-06	-9.266323e-09	-3.839088e+01	-6.143751e+02
1.700000e-07	-5.118293e-06	-9.335802e-09	-3.837795e+01	-6.145784e+02
1.800000e-07	-5.116312e-06	-9.359378e-09	-3.836310e+01	-6.147401e+02
1.900000e-07	-5.114060e-06	-9.404043e-09	-3.834621e+01	-6.148606e+02
2.000000e-07	-5.111684e-06	-9.428948e-09	-3.832840e+01	-6.149417e+02
2.100000e-07	-5.109038e-06	-9.305767e-09	-3.830856e+01	-6.149861e+02
2.200000e-07	-5.106160e-06	-9.402951e-09	-3.828697e+01	-6.149974e+02
2.300000e-07	-5.103082e-06	-9.466784e-09	-3.826390e+01	-6.149799e+02
2.400000e-07	-5.099848e-06	-9.543434e-09	-3.823965e+01	-6.149380e+02
2.500000e-07	-5.096550e-06	-9.388873e-09	-3.821492e+01	-6.148764e+02
2.600000e-07	-5.093112e-06	-9.255227e-09	-3.818914e+01	-6.147997e+02
2.700000e-07	-5.089438e-06	-9.364686e-09	-3.816159e+01	-6.147119e+02
2.800000e-07	-5.085631e-06	-9.413893e-09	-3.813305e+01	-6.146166e+02
2.900000e-07	-5.081707e-06	-9.428268e-09	-3.810362e+01	-6.145165e+02
3.000000e-07	-5.077580e-06	-9.275486e-09	-3.807268e+01	-6.144138e+02
3.100000e-07	-5.073422e-06	-9.349019e-09	-3.804150e+01	-6.143094e+02
3.200000e-07	-5.069216e-06	-9.426020e-09	-3.800996e+01	-6.142034e+02
3.300000e-07	-5.064925e-06	-9.404494e-09	-3.797779e+01	-6.140952e+02
3.400000e-07	-5.060597e-06	-9.386487e-09	-3.794534e+01	-6.139830e+02
3.500000e-07	-5.056172e-06	-9.288268e-09	-3.791216e+01	-6.138646e+02
3.600000e-07	-5.051602e-06	-9.328088e-09	-3.787789e+01	-6.137372e+02
3.700000e-07	-5.046956e-06	-9.329336e-09	-3.784306e+01	-6.135976e+02
3.800000e-07	-5.042223e-06	-9.402202e-09	-3.780756e+01	-6.134424e+02
3.900000e-07	-5.037376e-06	-9.355685e-09	-3.777122e+01	-6.132682e+02
4.000000e-07	-5.032441e-06	-9.260187e-09	-3.773422e+01	-6.130718e+02
4.100000e-07	-5.027351e-06	-9.334142e-09	-3.769605e+01	-6.128503e+02
4.200000e-07	-5.022140e-06	-9.370400e-09	-3.765698e+01	-6.126014e+02
4.300000e-07	-5.016828e-06	-9.366850e-09	-3.761715e+01	-6.123234e+02
4.400000e-07	-5.011366e-06	-9.227899e-09	-3.757620e+01	-6.120150e+02
4.500000e-07	-5.005733e-06	-9.259192e-09	-3.753395e+01	-6.116758e+02
4.600000e-07	-4.999871e-06	-9.340334e-09	-3.749000e+01	-6.113063e+02
4.700000e-07	-4.993878e-06	-9.305967e-09	-3.744506e+01	-6.109072e+02
4.800000e-07	-4.987787e-06	-9.261534e-09	-3.739939e+01	-6.104801e+02
4.900000e-07	-4.981643e-06	-9.209844e-09	-3.735333e+01	-6.100270e+02
5.000000e-07	-4.975463e-06	-9.289064e-09	-3.730699e+01	-6.095504e+02
5.100000e-07	-4.969114e-06	-9.281016e-09	-3.725938e+01	-6.090529e+02
5.200000e-07	-4.962683e-06	-9.263725e-09	-3.721116e+01	-6.085373e+02
5.300000e-07	-4.956060e-06	-9.225292e-09	-3.716150e+01	-6.080064e+02
5.400000e-07	-4.949272e-06	-9.190651e-09	-3.711060e+01	-6.074628e+02
5.500000e-07	-4.942470e-06	-9.236111e-09	-3.705960e+01	-6.069090e+02
5.600000e-07	-4.935548e-06	-9.215979e-09	-3.700769e+01	-6.063471e+02
5.700000e-07	-4.928454e-06	-9.208458e-09	-3.695450e+01	-6.057790e+02
5.800000e-07	-4.921246e-06	-9.151405e-09	-3.690045e+01	-6.052062e+02
5.900000e-07	-4.913996e-06	-9.175902e-09	-3.684609e+01	-6.046298e+02
6.000000e-07	-4.906541e-06	-9.219060e-09	-3.679019e+01	-6.040505e+02
6.100000e-07	-4.898813e-06	-9.179919e-09	-3.673225e+01	-6.034689e+02
6.200000e-07	-4.890907e-06	-9.145805e-09	-3.667297e+01	-6.028854e+02
6.300000e-07	-4.882918e-06	-9.113530e-09	-3.661306e+01	-6.023002e+02
6.400000e-07	-4.874863e-06	-9.165194e-09	-3.655267e+01	-6.017134e+02
6.500000e-07	-4.866744e-06	-9.147568e-09	-3.649179e+01	-6.011253e+02
6.600000e-07	-4.858614e-06	-9.110766e-09	-3.643083e+01	-6.005361e+02
6.700000e-07	-4.850389e-06	-9.093116e-09	-3.636916e+01	-5.999464e+02
6.800000e-07	-4.842057e-06	-9.088474e-09	-3.630668e+01	-5.993570e+02
6.900000e-07	-4.833642e-06	-9.123617e-09	-3.624358e+01	-5.987689e+02
7.000000e-07	-4.825174e-06	-9.083191e-09	-3.618009e+01	-5.981831e+02
7.100000e-07	-4.816630e-06	-9.062342e-09	-3.611602e+01	-5.976013e+02
7.200000e-07	-4.808003e-06	-9.043648e-09	-3.605134e+01	-5.970250e+02
7.300000e-07	-4.799392e-06	-9.059691e-09	-3.598677e+01	-5.964559e+02
7.400000e-07	-4.790658e-06	-9.059974e-09	-3.592128e+01	-5.958957e+02
7.500000e-07	-4.781649e-06	-9.014814e-09	-3.585373e+01	-5.953461e+02
7.600000e-07	-4.772402e-06	-9.012978e-09	-3.578440e+01	-5.948085e+02
7.700000e-07	-4.763132e-06	-9.004512e-09	-3.571489e+01	-5.942840e+02
7.800000e-07	-4.753577e-06	-9.030473e-09	-3.564324e+01	-5.937736e+02
7.900000e-07	-4.743653e-06	-9.012855e-09	-3.556883e+01	-5.932776e+02
8.000000e-07	-4.733643e-06	-8.986044e-09	-3.549377e+01	-5.927958e+02
8.100000e-07	-4.723414e-06	-8.981683e-09	-3.541708e+01	-5.923274e+02
8.200000e-07	-4.712878e-06	-8.977329e-09	-3.533808e+01	-5.918713e+02
8.300000e-07	-4.702209e-06	-8.986294e-09	-3.525807e+01	-5.914256e+02
8.400000e-07	-4.691406e-06	-8.947362e-09	-3.517707e+01	-5.909880e+02
8.500000e-07	-4.680423e-06	-8.943366e-09	-3.509472e+01	-5.905558e+02
8.600000e-07	-4.669279e-06	-8.945382e-09	-3.501116e+01	-5.901258e+02
8.700000e-07	-4.657966e-06	-8.948868e-09	-3.492633e+01	-5.896946e+02
8.800000e-07	-4.646551e-06	-8.940518e-09	-3.484074e+01	-5.892587e+02
8.900000e-07	-4.634879e-06	-8.905132e-09	-3.475322e+01	-5.888147e+02
9.000000e-07	-4.623003e-06	-8.904661e-09	-3.466417e+01	-5.883591e+02
9.100000e-07	-4.611053e-06	-8.895879e-09	-3.457457e+01	-5.878886e+02
9.200000e-07	-4.598972e-06	-8.899795e-09	-3.448398e+01	-5.874004e+02
9.300000e-07	-4.586740e-06	-8.879842e-09	-3.439226e+01	-5.868921e+02
9.400000e-07	-4.574352e-06	-8.862537e-09	-3.429938e+01	-5.863615e+02
9.500000e-07	-4.561888e-06	-8.866317e-09	-3.420592e+01	-5.858073e+02
9.600000e-07	-4.549446e-06	-8.858863e-09	-3.411262e+01	-5.852284e+02
9.700000e-07	-4.536923e-06	-8.856714e-09	-3.401873e+01	-5.846243e+02
9.800000e-07	-4.524262e-06	-8.825814e-09	-3.392380e+01	-5.839952e+02
9.900000e-07	-4.511416e-06	-8.818767e-09	-3.382747e+01	-5.833413e+02
1.000000e-06	-4.498386e-06	-8.814342e-09	-3.372977e+01	-5.826634e+02
1.010000e-06	-4.485231e-06	-8.801668e-09	-3.363113e+01	-5.819626e+02
1.020000e-06	-4.472006e-06	-8.784507e-09	-3.353196e+01	-5.812400e+02
1.030000e-06	-4.458726e-06	-8.758071e-09	-3.343239e+01	-5.804968e+02
1.040000e-06	-4.445271e-06	-8.761834e-09	-3.333150e+01	-5.797342e+02
1.050000e-06	-4.431686e-06	-8.751306e-09	-3.322964e+01	-5.789532e+02
1.060000e-06	-4.417940e-06	-8.738586e-09	-3.312657e+01	-5.781548e+02
1.070000e-06	-4.404141e-06	-8.715732e-09	-3.302310e+01	-5.773394e+02
1.080000e-06	-4.390313e-06	-8.698342e-09	-3.291942e+01	-5.765075e+02
1.090000e-06	-4.376233e-06	-8.694875e-09	-3.281384e+01	-5.756591e+02
1.100000e-06	-4.361961e-06	-8.674753e-09	-3.270683e+01	-5.747940e+02
1.110000e-06	-4.347646e-06	-8.658862e-09	-3.259949e+01	-5.739118e+02
1.120000e-06	-4.333309e-06	-8.635450e-09	-3.249199e+01	-5.730118e+02
1.130000e-06	-4.318858e-06	-8.628110e-09	-3.238363e+01	-5.720932e+02
1.140000e-06	-4.304304e-06	-8.616907e-09	-3.227451e+01	-5.711555e+02
1.150000e-06	-4.289681e-06	-8.594879e-09	-3.216486e+01	-5.701977e+02
1.160000e-06	-4.274985e-06	-8.575520e-09	-3.205467e+01	-5.692195e+02
1.170000e-06	-4.259987e-06	-8.552117e-09	-3.194221e+01	-5.682205e+02
1.180000e-06	-4.244639e-06	-8.543166e-09	-3.182713e+01	-5.672007e+02
1.190000e-06	-4.229188e-06	-8.523942e-09	-3.171127e+01	-5.661605e+02
1.200000e-06	-4.213632e-06	-8.505062e-09	-3.159463e+01	-5.651006e+02
1.210000e-06	-4.197978e-06	-8.482252e-09	-3.147725e+01	-5.640223e+02
1.220000e-06	-4.182148e-06	-8.461474e-09	-3.135855e+01	-5.629272e+02
1.230000e-06	-4.166241e-06	-8.450369e-09	-3.123928e+01	-5.618174e+02
1.240000e-06	-4.150268e-06	-8.431862e-09	-3.111951e+01	-5.606953e+02
1.250000e-06	-4.133938e-06	-8.422178e-09	-3.099707e+01	-5.595638e+02
1.260000e-06	-4.117415e-06	-8.404675e-09	-3.087318e+01	-5.584258e+02
1.270000e-06	-4.100925e-06	-8.389165e-09	-3.074953e+01	-5.572845e+02
1.280000e-06	-4.084224e-06	-8.368741e-09	-3.062430e+01	-5.561431e+02
1.290000e-06	-4.067359e-06	-8.340769e-09	-3.049785e+01	-5.550048e+02
1.300000e-06	-4.050480e-06	-8.316400e-09	-3.037128e+01	-5.538726e+02
1.310000e-06	-4.033525e-06	-8.290753e-09	-3.024415e+01	-5.527494e+02
1.320000e-06	-4.016455e-06	-8.276625e-09	-3.011616e+01	-5.516377e+02
1.330000e-06	-3.999297e-06	-8.257596e-09	-2.998751e+01	-5.505397e+02
1.340000e-06	-3.981964e-06	-8.243273e-09	-2.985754e+01	-5.494571e+02
1.350000e-06	-3.964424e-06	-8.229105e-09	-2.972602e+01	-5.483911e+02
1.360000e-06	-3.946936e-06	-8.212919e-09	-2.959489e+01	-5.473426e+02
1.370000e-06	-3.929407e-06	-8.198322e-09	-2.946346e+01	-5.463119e+02
1.380000e-06	-3.911764e-06	-8.174457e-09	-2.933116e+01	-5.452989e+02
1.390000e-06	-3.894031e-06	-8.156490e-09	-2.919820e+01	-5.443030e+02
1.400000e-06	-3.876184e-06	-8.133804e-09	-2.906438e+01	-5.433235e+02
1.410000e-06	-3.858234e-06	-8.114034e-09	-2.892978e+01	-5.423590e+02
1.420000e-06	-3.840231e-06	-8.097332e-09	-2.879480e+01	-5.414080e+02
1.430000e-06	-3.822254e-06	-8.080608e-09	-2.866000e+01	-5.404690e+02
1.440000e-06	-3.804183e-06	-8.070081e-09	-2.852450e+01	-5.395400e+02
1.450000e-06	-3.785959e-06	-8.054688e-09	-2.838786e+01	-5.386193e+02
1.460000e-06	-3.767744e-06	-8.042322e-09	-2.825128e+01	-5.377048e+02
1.470000e-06	-3.749499e-06	-8.025409e-09	-2.811447e+01	-5.367946e+02
1.480000e-06	-3.730999e-06	-8.007317e-09	-2.797575e+01	-5.358867e+02
1.490000e-06	-3.712320e-06	-7.988089e-09	-2.783569e+01	-5.349794e+02
1.500000e-06	-3.693631e-06	-7.966195e-09	-2.769556e+01	-5.340708e+02
1.510000e-06	-3.674958e-06	-7.949626e-09	-2.755555e+01	-5.331591e+02
1.520000e-06	-3.656211e-06	-7.933721e-09	-2.741498e+01	-5.322427e+02
1.530000e-06	-3.637270e-06	-7.924686e-09	-2.727295e+01	-5.313198e+02
1.540000e-06	-3.618203e-06	-7.915683e-09	-2.712999e+01	-5.303888e+02
1.550000e-06	-3.599025e-06	-7.905504e-09	-2.698618e+01	-5.294480e+02
1.560000e-06	-3.579701e-06	-7.891081e-09	-2.684129e+01	-5.284958e+02
1.570000e-06	-3.560326e-06	-7.872341e-09	-2.669601e+01	-5.275306e+02
1.580000e-06	-3.540850e-06	-7.853533e-09	-2.654998e+01	-5.265505e+02
1.590000e-06	-3.521228e-06	-7.830194e-09	-2.640285e+01	-5.255538e+02
1.600000e-06	-3.501498e-06	-7.811642e-09	-2.625491e+01	-5.245388e+02
1.610000e-06	-3.481665e-06	-7.793525e-09	-2.610620e+01	-5.235037e+02
1.620000e-06	-3.461815e-06	-7.778318e-09	-2.595736e+01	-5.224467e+02
1.630000e-06	-3.441941e-06	-7.764072e-09	-2.580834e+01	-5.213661e+02
1.640000e-06	-3.421988e-06	-7.746798e-09	-2.565873e+01	-5.202601e+02
1.650000e-06	-3.401986e-06	-7.730287e-09	-2.550875e+01	-5.191272e+02
1.660000e-06	-3.381896e-06	-7.709389e-09	-2.535811e+01	-5.179659e+02
1.670000e-06	-3.361737e-06	-7.690119e-09	-2.520695e+01	-5.167749e+02
1.680000e-06	-3.341513e-06	-7.669050e-09	-2.505531e+01	-5.155529e+02
1.690000e-06	-3.321260e-06	-7.647515e-09	-2.490345e+01	-5.142991e+02
1.700000e-06	-3.301017e-06	-7.625705e-09	-2.475166e+01	-5.130127e+02
1.710000e-06	-3.280743e-06	-7.604840e-09	-2.459965e+01	-5.116933e+02
1.720000e-06	-3.260432e-06	-7.586903e-09	-2.444735e+01	-5.103405e+02
1.730000e-06	-3.240110e-06	-7.568292e-09	-2.429498e+01	-5.089544e+02
1.740000e-06	-3.219782e-06	-7.552960e-09	-2.414255e+01	-5.075352e+02
1.750000e-06	-3.199359e-06	-7.532212e-09	-2.398941e+01	-5.060832e+02
1.760000e-06	-3.178860e-06	-7.506506e-09	-2.383570e+01	-5.045990e+02
1.770000e-06	-3.158337e-06	-7.477849e-09	-2.368182e+01	-5.030835e+02
1.780000e-06	-3.137770e-06	-7.448530e-09	-2.352761e+01	-5.015376e+02
1.790000e-06	-3.117146e-06	-7.419985e-09	-2.337297e+01	-4.999623e+02
1.800000e-06	-3.096477e-06	-7.389986e-09	-2.321798e+01	-4.983588e+02
1.810000e-06	-3.075712e-06	-7.367622e-09	-2.306229e+01	-4.967283e+02
1.820000e-06	-3.054750e-06	-7.350239e-09	-2.290510e+01	-4.950721e+02
1.830000e-06	-3.033699e-06	-7.336964e-09	-2.274727e+01	-4.933918e+02
1.840000e-06	-3.012555e-06	-7.318794e-09	-2.258872e+01	-4.916886e+02
1.850000e-06	-2.991348e-06	-7.290453e-09	-2.242970e+01	-4.899643e+02
1.860000e-06	-2.970003e-06	-7.257025e-09	-2.226966e+01	-4.882202e+02
1.870000e-06	-2.948447e-06	-7.222396e-09	-2.210803e+01	-4.864581e+02
1.880000e-06	-2.926932e-06	-7.192061e-09	-2.194670e+01	-4.846797e+02
1.890000e-06	-2.905386e-06	-7.162045e-09	-2.178515e+01	-4.828866e+02
1.900000e-06	-2.883735e-06	-7.138667e-09	-2.162280e+01	-4.810809e+02
1.910000e-06	-2.862006e-06	-7.119332e-09	-2.145987e+01	-4.792642e+02
1.920000e-06	-2.840201e-06	-7.101415e-09	-2.129637e+01	-4.774386e+02
1.930000e-06	-2.818335e-06	-7.081199e-09	-2.113243e+01	-4.756060e+02
1.940000e-06	-2.796426e-06	-7.052232e-09	-2.096815e+01	-4.737683e+02
1.950000e-06	-2.774417e-06	-7.019077e-09	-2.080311e+01	-4.719275e+02
1.960000e-06	-2.752293e-06	-6.983598e-09	-2.063723e+01	-4.700853e+02
1.970000e-06	-2.730139e-06	-6.952593e-09	-2.047111e+01	-4.682434e+02
1.980000e-06	-2.707945e-06	-6.924469e-09	-2.030470e+01	-4.664035e+02
1.990000e-06	-2.685621e-06	-6.897236e-09	-2.013731e+01	-4.645669e+02
2.000000e-06	-2.663272e-06	-6.874044e-09	-1.996973e+01	-4.627347e+02
2.010000e-06	-2.640916e-06	-6.851831e-09	-1.980210e+01	-4.609076e+02
2.020000e-06	-2.618479e-06	-6.830661e-09	-1.963386e+01	-4.590862e+02
2.030000e-06	-2.595988e-06	-6.805676e-09	-1.946522e+01	-4.572705e+02
2.040000e-06	-2.573486e-06	-6.777246e-09	-1.929650e+01	-4.554602e+02
2.050000e-06	-2.550966e-06	-6.746397e-09	-1.912764e+01	-4.536547e+02
2.060000e-06	-2.528245e-06	-6.716419e-09	-1.895727e+01	-4.518529e+02
2.070000e-06	-2.505376e-06	-6.690299e-09	-1.878579e+01	-4.500535e+02
2.080000e-06	-2.482556e-06	-6.664058e-09	-1.861469e+01	-4.482547e+02
2.090000e-06	-2.459792e-06	-6.640026e-09	-1.844400e+01	-4.464545e+02
2.100000e-06	-2.436989e-06	-6.616127e-09	-1.827301e+01	-4.446507e+02
2.110000e-06	-2.414070e-06	-6.592644e-09	-1.810117e+01	-4.428409e+02
2.120000e-06	-2.391052e-06	-6.567709e-09	-1.792857e+01	-4.410226e+02
2.130000e-06	-2.367933e-06	-6.539765e-09	-1.775522e+01	-4.391935e+02
2.140000e-06	-2.344692e-06	-6.507153e-09	-1.758095e+01	-4.373509e+02
2.150000e-06	-2.321328e-06	-6.472882e-09	-1.740576e+01	-4.354928e+02
2.160000e-06	-2.297953e-06	-6.447860e-09	-1.723050e+01	-4.336169e+02
2.170000e-06	-2.274560e-06	-6.428761e-09	-1.705509e+01	-4.317214e+02
2.180000e-06	-2.250930e-06	-6.409000e-09	-1.687791e+01	-4.298046e+02
2.190000e-06	-2.227220e-06	-6.385209e-09	-1.670013e+01	-4.278652e+02
2.200000e-06	-2.203545e-06	-6.358069e-09	-1.652261e+01	-4.259022e+02
2.210000e-06	-2.179808e-06	-6.330571e-09	-1.634462e+01	-4.239148e+02
2.220000e-06	-2.156062e-06	-6.297061e-09	-1.616657e+01	-4.219024e+02
2.230000e-06	-2.132318e-06	-6.259195e-09	-1.598853e+01	-4.198649e+02
2.240000e-06	-2.108590e-06	-6.224790e-09	-1.581062e+01	-4.178020e+02
2.250000e-06	-2.084762e-06	-6.198922e-09	-1.563195e+01	-4.157137e+02
2.260000e-06	-2.060801e-06	-6.177050e-09	-1.545228e+01	-4.136002e+02
2.270000e-06	-2.036820e-06	-6.154775e-09	-1.527247e+01	-4.114613e+02
2.280000e-06	-2.012808e-06	-6.128986e-09	-1.509242e+01	-4.092972e+02
2.290000e-06	-1.988721e-06	-6.096783e-09	-1.491182e+01	-4.071076e+02
2.300000e-06	-1.964561e-06	-6.059466e-09	-1.473066e+01	-4.048922e+02
2.310000e-06	-1.940380e-06	-6.018612e-09	-1.454934e+01	-4.026505e+02
2.320000e-06	-1.916210e-06	-5.981657e-09	-1.436812e+01	-4.003819e+02
2.330000e-06	-1.892055e-06	-5.948507e-09	-1.418700e+01	-3.980855e+02
2.340000e-06	-1.867867e-06	-5.922585e-09	-1.400563e+01	-3.957601e+02
2.350000e-06	-1.843656e-06	-5.902335e-09	-1.382409e+01	-3.934047e+02
2.360000e-06	-1.819455e-06	-5.879338e-09	-1.364263e+01	-3.910179e+02
2.370000e-06	-1.795235e-06	-5.848040e-09	-1.346102e+01	-3.885983e+02
2.380000e-06	-1.770962e-06	-5.806962e-09	-1.327902e+01	-3.861446e+02
2.390000e-06	-1.746636e-06	-5.760422e-09	-1.309662e+01	-3.836557e+02
2.400000e-06	-1.722287e-06	-5.710608e-09	-1.291404e+01	-3.811304e+02
2.410000e-06	-1.697956e-06	-5.665714e-09	-1.273161e+01	-3.785679e+02
2.420000e-06	-1.673584e-06	-5.629899e-09	-1.254885e+01	-3.759677e+02
2.430000e-06	-1.649161e-06	-5.602158e-09	-1.236573e+01	-3.733297e+02
2.440000e-06	-1.624720e-06	-5.580326e-09	-1.218247e+01	-3.706540e+02
2.450000e-06	-1.600181e-06	-5.555245e-09	-1.199847e+01	-3.679414e+02
2.460000e-06	-1.575619e-06	-5.520159e-09	-1.181430e+01	-3.651929e+02
2.470000e-06	-1.551096e-06	-5.471621e-09	-1.163042e+01	-3.624100e+02
2.480000e-06	-1.526547e-06	-5.417252e-09	-1.144635e+01	-3.595946e+02
2.490000e-06	-1.501915e-06	-5.367320e-09	-1.126165e+01	-3.567490e+02
2.500000e-06	-1.477223e-06	-5.322360e-09	-1.107651e+01	-3.538755e+02
2.510000e-06	-1.452564e-06	-5.282380e-09	-1.089161e+01	-3.509770e+02
2.520000e-06	-1.427863e-06	-5.247490e-09	-1.070639e+01	-3.480564e+02
2.530000e-06	-1.403134e-06	-5.216890e-09	-1.052097e+01	-3.451164e+02
2.540000e-06	-1.378375e-06	-5.184203e-09	-1.033532e+01	-3.421601e+02
2.550000e-06	-1.353571e-06	-5.143266e-09	-1.014934e+01	-3.391902e+02
2.560000e-06	-1.328798e-06	-5.094699e-09	-9.963588e+00	-3.362092e+02
2.570000e-06	-1.304003e-06	-5.044021e-09	-9.777664e+00	-3.332196e+02
2.580000e-06	-1.279134e-06	-4.995462e-09	-9.591195e+00	-3.302233e+02
2.590000e-06	-1.254246e-06	-4.949028e-09	-9.404576e+00	-3.272220e+02
2.600000e-06	-1.229231e-06	-4.905365e-09	-9.217009e+00	-3.242170e+02
2.610000e-06	-1.204176e-06	-4.865598e-09	-9.029147e+00	-3.212093e+02
2.620000e-06	-1.179229e-06	-4.831321e-09	-8.842091e+00	-3.181994e+02
2.630000e-06	-1.154211e-06	-4.797848e-09	-8.654501e+00	-3.151876e+02
2.640000e-06	-1.129004e-06	-4.758719e-09	-8.465488e+00	-3.121736e+02
2.650000e-06	-1.103745e-06	-4.712783e-09	-8.276090e+00	-3.091572e+02
2.660000e-06	-1.078484e-06	-4.663295e-09	-8.086685e+00	-3.061377e+02
2.670000e-06	-1.053137e-06	-4.615501e-09	-7.896629e+00	-3.031142e+02
2.680000e-06	-1.027774e-06	-4.568668e-09	-7.706451e+00	-3.000859e+02
2.690000e-06	-1.002512e-06	-4.523677e-09	-7.517027e+00	-2.970517e+02
2.700000e-06	-9.772363e-07	-4.480707e-09	-7.327507e+00	-2.940106e+02
2.710000e-06	-9.518193e-07	-4.437208e-09	-7.136926e+00	-2.909614e+02
2.720000e-06	-9.264090e-07	-4.393526e-09	-6.946394e+00	-2.879032e+02
2.730000e-06	-9.009826e-07	-4.347587e-09	-6.755742e+00	-2.848349e+02
2.740000e-06	-8.755150e-07	-4.301293e-09	-6.564781e+00	-2.817554e+02
2.750000e-06	-8.500114e-07	-4.257643e-09	-6.373550e+00	-2.786640e+02
2.760000e-06	-8.243555e-07	-4.217557e-09	-6.181177e+00	-2.755595e+02
2.770000e-06	-7.987021e-07	-4.177526e-09	-5.988823e+00	-2.724410e+02
2.780000e-06	-7.731609e-07	-4.132604e-09	-5.797310e+00	-2.693076e+02
2.790000e-06	-7.474921e-07	-4.084672e-09	-5.604840e+00	-2.661582e+02
2.800000e-06	-7.217575e-07	-4.034941e-09	-5.411877e+00	-2.629917e+02
2.810000e-06	-6.959708e-07	-3.986769e-09	-5.218524e+00	-2.598068e+02
2.820000e-06	-6.700097e-07	-3.938849e-09	-5.023862e+00	-2.566021e+02
2.830000e-06	-6.441378e-07	-3.888881e-09	-4.829870e+00	-2.533760e+02
2.840000e-06	-6.183000e-07	-3.840558e-09	-4.636133e+00	-2.501268e+02
