# Temperatura_=_20.0
# Concentracion g/m^3_=_10000.0
# C_Vs_to_Am_M_A/Vsm_=_65563218390.804596
# pendiente_HvsI_1/m_=_3716.3
# ordenada_HvsI_A/m_=_1297.0
# frecuencia_Hz_=_81177.94678506121

Tiempo_(s)	Campo_(V.s)	Magnetizacion_(V.s)	Campo_(kA/m)	Magnetizacion_(A/m)
0.000000e+00	-5.121977e-06	-9.250111e-09	-3.845988e+01	-6.068850e+02
1.000000e-08	-5.122111e-06	-9.212660e-09	-3.846089e+01	-6.068689e+02
2.000000e-08	-5.122129e-06	-9.188953e-09	-3.846102e+01	-6.068732e+02
3.000000e-08	-5.122019e-06	-9.198953e-09	-3.846020e+01	-6.068978e+02
4.000000e-08	-5.121847e-06	-9.206612e-09	-3.845891e+01	-6.069419e+02
5.000000e-08	-5.121634e-06	-9.402888e-09	-3.845730e+01	-6.070038e+02
6.000000e-08	-5.121383e-06	-9.501833e-09	-3.845542e+01	-6.070811e+02
7.000000e-08	-5.121082e-06	-9.369992e-09	-3.845316e+01	-6.071711e+02
8.000000e-08	-5.120742e-06	-9.308489e-09	-3.845061e+01	-6.072702e+02
9.000000e-08	-5.120264e-06	-9.234753e-09	-3.844702e+01	-6.073750e+02
1.000000e-07	-5.119550e-06	-9.230647e-09	-3.844165e+01	-6.074816e+02
1.100000e-07	-5.118790e-06	-9.204300e-09	-3.843595e+01	-6.075863e+02
1.200000e-07	-5.117961e-06	-9.182922e-09	-3.842973e+01	-6.076855e+02
1.300000e-07	-5.116977e-06	-9.225256e-09	-3.842234e+01	-6.077760e+02
1.400000e-07	-5.115770e-06	-9.313600e-09	-3.841328e+01	-6.078548e+02
1.500000e-07	-5.114297e-06	-9.493323e-09	-3.840221e+01	-6.079197e+02
1.600000e-07	-5.112668e-06	-9.477591e-09	-3.838998e+01	-6.079691e+02
1.700000e-07	-5.110759e-06	-9.294080e-09	-3.837565e+01	-6.080017e+02
1.800000e-07	-5.108634e-06	-9.128205e-09	-3.835969e+01	-6.080173e+02
1.900000e-07	-5.106346e-06	-9.155081e-09	-3.834251e+01	-6.080158e+02
2.000000e-07	-5.103905e-06	-9.361375e-09	-3.832418e+01	-6.079982e+02
2.100000e-07	-5.101284e-06	-9.346874e-09	-3.830450e+01	-6.079655e+02
2.200000e-07	-5.098304e-06	-9.198858e-09	-3.828212e+01	-6.079194e+02
2.300000e-07	-5.095153e-06	-9.217559e-09	-3.825846e+01	-6.078617e+02
2.400000e-07	-5.091890e-06	-9.388252e-09	-3.823396e+01	-6.077945e+02
2.500000e-07	-5.088387e-06	-9.425290e-09	-3.820766e+01	-6.077198e+02
2.600000e-07	-5.084728e-06	-9.250100e-09	-3.818019e+01	-6.076394e+02
2.700000e-07	-5.080975e-06	-9.165489e-09	-3.815201e+01	-6.075552e+02
2.800000e-07	-5.077168e-06	-9.232141e-09	-3.812342e+01	-6.074685e+02
2.900000e-07	-5.073221e-06	-9.339708e-09	-3.809378e+01	-6.073803e+02
3.000000e-07	-5.069091e-06	-9.349270e-09	-3.806277e+01	-6.072912e+02
3.100000e-07	-5.064920e-06	-9.259686e-09	-3.803145e+01	-6.072014e+02
3.200000e-07	-5.060706e-06	-9.183745e-09	-3.799981e+01	-6.071105e+02
3.300000e-07	-5.056430e-06	-9.205807e-09	-3.796770e+01	-6.070177e+02
3.400000e-07	-5.052089e-06	-9.330332e-09	-3.793511e+01	-6.069217e+02
3.500000e-07	-5.047687e-06	-9.312634e-09	-3.790205e+01	-6.068212e+02
3.600000e-07	-5.043172e-06	-9.185665e-09	-3.786815e+01	-6.067143e+02
3.700000e-07	-5.038545e-06	-9.181879e-09	-3.783341e+01	-6.065990e+02
3.800000e-07	-5.033796e-06	-9.324376e-09	-3.779775e+01	-6.064733e+02
3.900000e-07	-5.028980e-06	-9.348975e-09	-3.776159e+01	-6.063353e+02
4.000000e-07	-5.024073e-06	-9.183231e-09	-3.772474e+01	-6.061830e+02
4.100000e-07	-5.018973e-06	-9.122734e-09	-3.768644e+01	-6.060147e+02
4.200000e-07	-5.013812e-06	-9.203683e-09	-3.764769e+01	-6.058290e+02
4.300000e-07	-5.008522e-06	-9.284322e-09	-3.760797e+01	-6.056248e+02
4.400000e-07	-5.003079e-06	-9.255935e-09	-3.756710e+01	-6.054012e+02
4.500000e-07	-4.997398e-06	-9.190089e-09	-3.752444e+01	-6.051578e+02
4.600000e-07	-4.991560e-06	-9.181731e-09	-3.748061e+01	-6.048945e+02
4.700000e-07	-4.985752e-06	-9.228122e-09	-3.743700e+01	-6.046114e+02
4.800000e-07	-4.979837e-06	-9.256731e-09	-3.739258e+01	-6.043090e+02
4.900000e-07	-4.973739e-06	-9.166815e-09	-3.734680e+01	-6.039881e+02
5.000000e-07	-4.967467e-06	-9.093849e-09	-3.729970e+01	-6.036493e+02
5.100000e-07	-4.961092e-06	-9.145760e-09	-3.725183e+01	-6.032938e+02
5.200000e-07	-4.954693e-06	-9.216249e-09	-3.720378e+01	-6.029223e+02
5.300000e-07	-4.948135e-06	-9.188916e-09	-3.715454e+01	-6.025358e+02
5.400000e-07	-4.941339e-06	-9.114373e-09	-3.710351e+01	-6.021352e+02
5.500000e-07	-4.934378e-06	-9.113978e-09	-3.705124e+01	-6.017212e+02
5.600000e-07	-4.927324e-06	-9.154004e-09	-3.699827e+01	-6.012944e+02
5.700000e-07	-4.920264e-06	-9.172406e-09	-3.694526e+01	-6.008552e+02
5.800000e-07	-4.913009e-06	-9.121715e-09	-3.689078e+01	-6.004038e+02
5.900000e-07	-4.905525e-06	-9.057176e-09	-3.683459e+01	-5.999406e+02
6.000000e-07	-4.897899e-06	-9.088959e-09	-3.677732e+01	-5.994655e+02
6.100000e-07	-4.890098e-06	-9.149102e-09	-3.671875e+01	-5.989787e+02
6.200000e-07	-4.882236e-06	-9.122990e-09	-3.665972e+01	-5.984801e+02
6.300000e-07	-4.874333e-06	-9.040976e-09	-3.660037e+01	-5.979700e+02
6.400000e-07	-4.866308e-06	-9.041804e-09	-3.654011e+01	-5.974486e+02
6.500000e-07	-4.858174e-06	-9.092947e-09	-3.647904e+01	-5.969163e+02
6.600000e-07	-4.850024e-06	-9.082715e-09	-3.641785e+01	-5.963738e+02
6.700000e-07	-4.841823e-06	-9.027828e-09	-3.635626e+01	-5.958222e+02
6.800000e-07	-4.833466e-06	-8.990296e-09	-3.629351e+01	-5.952625e+02
6.900000e-07	-4.825019e-06	-9.007974e-09	-3.623008e+01	-5.946963e+02
7.000000e-07	-4.816578e-06	-9.029835e-09	-3.616670e+01	-5.941252e+02
7.100000e-07	-4.808078e-06	-9.009963e-09	-3.610288e+01	-5.935514e+02
7.200000e-07	-4.799400e-06	-8.964522e-09	-3.603772e+01	-5.929769e+02
7.300000e-07	-4.790637e-06	-8.954918e-09	-3.597192e+01	-5.924041e+02
7.400000e-07	-4.781804e-06	-8.990852e-09	-3.590559e+01	-5.918352e+02
7.500000e-07	-4.772883e-06	-8.994841e-09	-3.583861e+01	-5.912725e+02
7.600000e-07	-4.763726e-06	-8.955566e-09	-3.576985e+01	-5.907182e+02
7.700000e-07	-4.754376e-06	-8.918233e-09	-3.569964e+01	-5.901742e+02
7.800000e-07	-4.744852e-06	-8.924378e-09	-3.562813e+01	-5.896423e+02
7.900000e-07	-4.735123e-06	-8.944151e-09	-3.555507e+01	-5.891238e+02
8.000000e-07	-4.725267e-06	-8.923790e-09	-3.548107e+01	-5.886197e+02
8.100000e-07	-4.715095e-06	-8.889158e-09	-3.540468e+01	-5.881303e+02
8.200000e-07	-4.704731e-06	-8.889127e-09	-3.532687e+01	-5.876559e+02
8.300000e-07	-4.694133e-06	-8.920466e-09	-3.524729e+01	-5.871959e+02
8.400000e-07	-4.683191e-06	-8.918190e-09	-3.516513e+01	-5.867494e+02
8.500000e-07	-4.672139e-06	-8.879232e-09	-3.508214e+01	-5.863152e+02
8.600000e-07	-4.660966e-06	-8.852433e-09	-3.499825e+01	-5.858917e+02
8.700000e-07	-4.649535e-06	-8.852849e-09	-3.491241e+01	-5.854767e+02
8.800000e-07	-4.637924e-06	-8.861724e-09	-3.482523e+01	-5.850681e+02
8.900000e-07	-4.626159e-06	-8.846994e-09	-3.473689e+01	-5.846634e+02
9.000000e-07	-4.614248e-06	-8.827393e-09	-3.464745e+01	-5.842603e+02
9.100000e-07	-4.602247e-06	-8.827919e-09	-3.455733e+01	-5.838563e+02
9.200000e-07	-4.590218e-06	-8.842150e-09	-3.446701e+01	-5.834488e+02
9.300000e-07	-4.578080e-06	-8.836058e-09	-3.437587e+01	-5.830357e+02
9.400000e-07	-4.565788e-06	-8.801105e-09	-3.428357e+01	-5.826149e+02
9.500000e-07	-4.553443e-06	-8.777364e-09	-3.419088e+01	-5.821845e+02
9.600000e-07	-4.541025e-06	-8.779843e-09	-3.409763e+01	-5.817428e+02
9.700000e-07	-4.528456e-06	-8.792405e-09	-3.400326e+01	-5.812885e+02
9.800000e-07	-4.515705e-06	-8.784605e-09	-3.390751e+01	-5.808204e+02
9.900000e-07	-4.502849e-06	-8.769101e-09	-3.381097e+01	-5.803376e+02
1.000000e-06	-4.489936e-06	-8.769471e-09	-3.371402e+01	-5.798394e+02
1.010000e-06	-4.476869e-06	-8.771058e-09	-3.361590e+01	-5.793251e+02
1.020000e-06	-4.463667e-06	-8.755402e-09	-3.351677e+01	-5.787944e+02
1.030000e-06	-4.450392e-06	-8.721762e-09	-3.341708e+01	-5.782467e+02
1.040000e-06	-4.436967e-06	-8.702048e-09	-3.331628e+01	-5.776816e+02
1.050000e-06	-4.423336e-06	-8.704337e-09	-3.321393e+01	-5.770987e+02
1.060000e-06	-4.409556e-06	-8.707123e-09	-3.311046e+01	-5.764974e+02
1.070000e-06	-4.395750e-06	-8.697187e-09	-3.300679e+01	-5.758770e+02
1.080000e-06	-4.381817e-06	-8.680791e-09	-3.290217e+01	-5.752368e+02
1.090000e-06	-4.367686e-06	-8.675003e-09	-3.279606e+01	-5.745760e+02
1.100000e-06	-4.353456e-06	-8.671097e-09	-3.268922e+01	-5.738936e+02
1.110000e-06	-4.339161e-06	-8.653911e-09	-3.258188e+01	-5.731885e+02
1.120000e-06	-4.324850e-06	-8.626636e-09	-3.247442e+01	-5.724596e+02
1.130000e-06	-4.310377e-06	-8.603307e-09	-3.236574e+01	-5.717059e+02
1.140000e-06	-4.295746e-06	-8.592458e-09	-3.225588e+01	-5.709263e+02
1.150000e-06	-4.281059e-06	-8.584289e-09	-3.214560e+01	-5.701200e+02
1.160000e-06	-4.266170e-06	-8.570347e-09	-3.203380e+01	-5.692860e+02
1.170000e-06	-4.251011e-06	-8.553601e-09	-3.191997e+01	-5.684240e+02
1.180000e-06	-4.235629e-06	-8.543180e-09	-3.180447e+01	-5.675336e+02
1.190000e-06	-4.220204e-06	-8.540640e-09	-3.168865e+01	-5.666147e+02
1.200000e-06	-4.204848e-06	-8.528818e-09	-3.157335e+01	-5.656677e+02
1.210000e-06	-4.189321e-06	-8.501780e-09	-3.145676e+01	-5.646933e+02
1.220000e-06	-4.173537e-06	-8.473602e-09	-3.133824e+01	-5.636924e+02
1.230000e-06	-4.157559e-06	-8.457451e-09	-3.121826e+01	-5.626662e+02
1.240000e-06	-4.141397e-06	-8.445846e-09	-3.109691e+01	-5.616165e+02
1.250000e-06	-4.125240e-06	-8.427935e-09	-3.097558e+01	-5.605450e+02
1.260000e-06	-4.108953e-06	-8.408276e-09	-3.085329e+01	-5.594538e+02
1.270000e-06	-4.092328e-06	-8.394305e-09	-3.072846e+01	-5.583451e+02
1.280000e-06	-4.075463e-06	-8.384770e-09	-3.060182e+01	-5.572214e+02
1.290000e-06	-4.058549e-06	-8.366795e-09	-3.047481e+01	-5.560849e+02
1.300000e-06	-4.041505e-06	-8.338336e-09	-3.034684e+01	-5.549381e+02
1.310000e-06	-4.024324e-06	-8.310299e-09	-3.021783e+01	-5.537833e+02
1.320000e-06	-4.007120e-06	-8.289111e-09	-3.008865e+01	-5.526227e+02
1.330000e-06	-3.989821e-06	-8.271690e-09	-2.995875e+01	-5.514584e+02
1.340000e-06	-3.972510e-06	-8.252300e-09	-2.982877e+01	-5.502924e+02
1.350000e-06	-3.955185e-06	-8.233182e-09	-2.969868e+01	-5.491262e+02
1.360000e-06	-3.937699e-06	-8.217981e-09	-2.956738e+01	-5.479614e+02
1.370000e-06	-3.920089e-06	-8.207076e-09	-2.943515e+01	-5.467993e+02
1.380000e-06	-3.902483e-06	-8.193260e-09	-2.930295e+01	-5.456407e+02
1.390000e-06	-3.884821e-06	-8.169746e-09	-2.917033e+01	-5.444866e+02
1.400000e-06	-3.867099e-06	-8.141697e-09	-2.903726e+01	-5.433376e+02
1.410000e-06	-3.849328e-06	-8.113541e-09	-2.890382e+01	-5.421941e+02
1.420000e-06	-3.831387e-06	-8.089576e-09	-2.876910e+01	-5.410565e+02
1.430000e-06	-3.813384e-06	-8.067928e-09	-2.863392e+01	-5.399249e+02
1.440000e-06	-3.795389e-06	-8.047778e-09	-2.849880e+01	-5.387993e+02
1.450000e-06	-3.777242e-06	-8.034029e-09	-2.836254e+01	-5.376798e+02
1.460000e-06	-3.759003e-06	-8.024746e-09	-2.822559e+01	-5.365661e+02
1.470000e-06	-3.740703e-06	-8.012298e-09	-2.808818e+01	-5.354582e+02
1.480000e-06	-3.722239e-06	-7.991198e-09	-2.794954e+01	-5.343558e+02
1.490000e-06	-3.703703e-06	-7.963628e-09	-2.781035e+01	-5.332584e+02
1.500000e-06	-3.685077e-06	-7.934854e-09	-2.767050e+01	-5.321656e+02
1.510000e-06	-3.666318e-06	-7.911889e-09	-2.752964e+01	-5.310770e+02
1.520000e-06	-3.647540e-06	-7.894262e-09	-2.738863e+01	-5.299919e+02
1.530000e-06	-3.628606e-06	-7.878896e-09	-2.724646e+01	-5.289094e+02
1.540000e-06	-3.609429e-06	-7.869632e-09	-2.710246e+01	-5.278288e+02
1.550000e-06	-3.590113e-06	-7.860954e-09	-2.695742e+01	-5.267488e+02
1.560000e-06	-3.570717e-06	-7.846347e-09	-2.681179e+01	-5.256683e+02
1.570000e-06	-3.551215e-06	-7.826861e-09	-2.666535e+01	-5.245860e+02
1.580000e-06	-3.531572e-06	-7.803550e-09	-2.651786e+01	-5.235001e+02
1.590000e-06	-3.511908e-06	-7.780103e-09	-2.637020e+01	-5.224092e+02
1.600000e-06	-3.492217e-06	-7.760282e-09	-2.622235e+01	-5.213113e+02
1.610000e-06	-3.472421e-06	-7.742511e-09	-2.607371e+01	-5.202044e+02
1.620000e-06	-3.452532e-06	-7.725183e-09	-2.592436e+01	-5.190866e+02
1.630000e-06	-3.432598e-06	-7.708464e-09	-2.577468e+01	-5.179557e+02
1.640000e-06	-3.412604e-06	-7.691989e-09	-2.562455e+01	-5.168097e+02
1.650000e-06	-3.392493e-06	-7.675156e-09	-2.547354e+01	-5.156464e+02
1.660000e-06	-3.372281e-06	-7.658225e-09	-2.532177e+01	-5.144637e+02
1.670000e-06	-3.352020e-06	-7.642529e-09	-2.516963e+01	-5.132597e+02
1.680000e-06	-3.331776e-06	-7.623014e-09	-2.501763e+01	-5.120325e+02
1.690000e-06	-3.311541e-06	-7.600086e-09	-2.486569e+01	-5.107804e+02
1.700000e-06	-3.291260e-06	-7.576588e-09	-2.471340e+01	-5.095018e+02
1.710000e-06	-3.270949e-06	-7.552357e-09	-2.456089e+01	-5.081952e+02
1.720000e-06	-3.250628e-06	-7.529435e-09	-2.440831e+01	-5.068596e+02
1.730000e-06	-3.230288e-06	-7.511059e-09	-2.425558e+01	-5.054940e+02
1.740000e-06	-3.209934e-06	-7.495050e-09	-2.410274e+01	-5.040976e+02
1.750000e-06	-3.189514e-06	-7.475657e-09	-2.394941e+01	-5.026699e+02
1.760000e-06	-3.169009e-06	-7.453099e-09	-2.379544e+01	-5.012105e+02
1.770000e-06	-3.148475e-06	-7.428563e-09	-2.364126e+01	-4.997193e+02
1.780000e-06	-3.127891e-06	-7.403857e-09	-2.348669e+01	-4.981965e+02
1.790000e-06	-3.107200e-06	-7.378005e-09	-2.333133e+01	-4.966422e+02
1.800000e-06	-3.086444e-06	-7.351685e-09	-2.317548e+01	-4.950569e+02
1.810000e-06	-3.065624e-06	-7.327640e-09	-2.301915e+01	-4.934413e+02
1.820000e-06	-3.044699e-06	-7.306472e-09	-2.286203e+01	-4.917962e+02
1.830000e-06	-3.023670e-06	-7.286437e-09	-2.270412e+01	-4.901225e+02
1.840000e-06	-3.002601e-06	-7.262980e-09	-2.254592e+01	-4.884213e+02
1.850000e-06	-2.981478e-06	-7.235771e-09	-2.238731e+01	-4.866940e+02
1.860000e-06	-2.960266e-06	-7.206535e-09	-2.222803e+01	-4.849418e+02
1.870000e-06	-2.938931e-06	-7.179771e-09	-2.206784e+01	-4.831664e+02
1.880000e-06	-2.917480e-06	-7.153953e-09	-2.190676e+01	-4.813694e+02
1.890000e-06	-2.895950e-06	-7.125340e-09	-2.174510e+01	-4.795525e+02
1.900000e-06	-2.874320e-06	-7.097594e-09	-2.158268e+01	-4.777177e+02
1.910000e-06	-2.852616e-06	-7.069256e-09	-2.141971e+01	-4.758667e+02
1.920000e-06	-2.830826e-06	-7.037906e-09	-2.125609e+01	-4.740017e+02
1.930000e-06	-2.808945e-06	-7.006481e-09	-2.109179e+01	-4.721245e+02
1.940000e-06	-2.786981e-06	-6.977976e-09	-2.092687e+01	-4.702371e+02
1.950000e-06	-2.764903e-06	-6.952003e-09	-2.076110e+01	-4.683414e+02
1.960000e-06	-2.742807e-06	-6.926275e-09	-2.059518e+01	-4.664391e+02
1.970000e-06	-2.720702e-06	-6.900413e-09	-2.042920e+01	-4.645321e+02
1.980000e-06	-2.698490e-06	-6.874284e-09	-2.026241e+01	-4.626216e+02
1.990000e-06	-2.676208e-06	-6.845900e-09	-2.009510e+01	-4.607090e+02
2.000000e-06	-2.653906e-06	-6.815975e-09	-1.992764e+01	-4.587952e+02
2.010000e-06	-2.631569e-06	-6.785913e-09	-1.975992e+01	-4.568812e+02
2.020000e-06	-2.609162e-06	-6.758268e-09	-1.959166e+01	-4.549673e+02
2.030000e-06	-2.586710e-06	-6.732439e-09	-1.942308e+01	-4.530536e+02
2.040000e-06	-2.564233e-06	-6.706680e-09	-1.925430e+01	-4.511402e+02
2.050000e-06	-2.541715e-06	-6.679380e-09	-1.908522e+01	-4.492267e+02
2.060000e-06	-2.519080e-06	-6.649556e-09	-1.891526e+01	-4.473123e+02
2.070000e-06	-2.496353e-06	-6.619287e-09	-1.874461e+01	-4.453963e+02
2.080000e-06	-2.473616e-06	-6.589610e-09	-1.857388e+01	-4.434778e+02
2.090000e-06	-2.450852e-06	-6.561106e-09	-1.840295e+01	-4.415554e+02
2.100000e-06	-2.428017e-06	-6.533016e-09	-1.823149e+01	-4.396281e+02
2.110000e-06	-2.405021e-06	-6.504376e-09	-1.805881e+01	-4.376946e+02
2.120000e-06	-2.381934e-06	-6.476760e-09	-1.788546e+01	-4.357538e+02
2.130000e-06	-2.358870e-06	-6.451002e-09	-1.771227e+01	-4.338046e+02
2.140000e-06	-2.335775e-06	-6.422876e-09	-1.753886e+01	-4.318459e+02
2.150000e-06	-2.312552e-06	-6.393391e-09	-1.736448e+01	-4.298770e+02
2.160000e-06	-2.289169e-06	-6.365744e-09	-1.718890e+01	-4.278973e+02
2.170000e-06	-2.265749e-06	-6.338523e-09	-1.701305e+01	-4.259063e+02
2.180000e-06	-2.242320e-06	-6.309559e-09	-1.683713e+01	-4.239038e+02
2.190000e-06	-2.218720e-06	-6.279559e-09	-1.665992e+01	-4.218898e+02
2.200000e-06	-2.195024e-06	-6.250444e-09	-1.648199e+01	-4.198643e+02
2.210000e-06	-2.171321e-06	-6.223028e-09	-1.630400e+01	-4.178275e+02
2.220000e-06	-2.147572e-06	-6.194576e-09	-1.612568e+01	-4.157796e+02
2.230000e-06	-2.123834e-06	-6.163448e-09	-1.594743e+01	-4.137209e+02
2.240000e-06	-2.100076e-06	-6.134204e-09	-1.576904e+01	-4.116516e+02
2.250000e-06	-2.076199e-06	-6.107203e-09	-1.558976e+01	-4.095716e+02
2.260000e-06	-2.052262e-06	-6.079689e-09	-1.541002e+01	-4.074809e+02
2.270000e-06	-2.028346e-06	-6.051320e-09	-1.523043e+01	-4.053791e+02
2.280000e-06	-2.004330e-06	-6.021581e-09	-1.505010e+01	-4.032656e+02
2.290000e-06	-1.980251e-06	-5.991406e-09	-1.486930e+01	-4.011396e+02
2.300000e-06	-1.956188e-06	-5.959075e-09	-1.468862e+01	-3.989997e+02
2.310000e-06	-1.932023e-06	-5.925567e-09	-1.450717e+01	-3.968445e+02
2.320000e-06	-1.907850e-06	-5.893508e-09	-1.432566e+01	-3.946722e+02
2.330000e-06	-1.883725e-06	-5.862104e-09	-1.414450e+01	-3.924809e+02
2.340000e-06	-1.859540e-06	-5.834221e-09	-1.396291e+01	-3.902682e+02
2.350000e-06	-1.835322e-06	-5.808962e-09	-1.378106e+01	-3.880321e+02
2.360000e-06	-1.811059e-06	-5.782312e-09	-1.359888e+01	-3.857701e+02
2.370000e-06	-1.786784e-06	-5.750232e-09	-1.341659e+01	-3.834798e+02
2.380000e-06	-1.762508e-06	-5.713744e-09	-1.323432e+01	-3.811593e+02
2.390000e-06	-1.738206e-06	-5.673623e-09	-1.305183e+01	-3.788064e+02
2.400000e-06	-1.713857e-06	-5.631791e-09	-1.286900e+01	-3.764195e+02
2.410000e-06	-1.689446e-06	-5.593020e-09	-1.268570e+01	-3.739973e+02
2.420000e-06	-1.665017e-06	-5.558668e-09	-1.250228e+01	-3.715388e+02
2.430000e-06	-1.640579e-06	-5.531537e-09	-1.231878e+01	-3.690436e+02
2.440000e-06	-1.616149e-06	-5.508092e-09	-1.213533e+01	-3.665114e+02
2.450000e-06	-1.591659e-06	-5.480343e-09	-1.195144e+01	-3.639428e+02
2.460000e-06	-1.567104e-06	-5.444846e-09	-1.176706e+01	-3.613385e+02
2.470000e-06	-1.542473e-06	-5.403809e-09	-1.158212e+01	-3.586997e+02
2.480000e-06	-1.517824e-06	-5.360975e-09	-1.139703e+01	-3.560280e+02
2.490000e-06	-1.493224e-06	-5.319845e-09	-1.121231e+01	-3.533251e+02
2.500000e-06	-1.468528e-06	-5.278774e-09	-1.102687e+01	-3.505932e+02
2.510000e-06	-1.443808e-06	-5.236529e-09	-1.084126e+01	-3.478342e+02
2.520000e-06	-1.419135e-06	-5.197244e-09	-1.065599e+01	-3.450503e+02
2.530000e-06	-1.394423e-06	-5.158986e-09	-1.047044e+01	-3.422437e+02
2.540000e-06	-1.369608e-06	-5.120822e-09	-1.028411e+01	-3.394163e+02
2.550000e-06	-1.344742e-06	-5.079964e-09	-1.009739e+01	-3.365699e+02
2.560000e-06	-1.319879e-06	-5.036530e-09	-9.910699e+00	-3.337059e+02
2.570000e-06	-1.294962e-06	-4.995976e-09	-9.723603e+00	-3.308257e+02
2.580000e-06	-1.270015e-06	-4.955930e-09	-9.536284e+00	-3.279301e+02
2.590000e-06	-1.245002e-06	-4.914271e-09	-9.348469e+00	-3.250199e+02
2.600000e-06	-1.219953e-06	-4.871464e-09	-9.160375e+00	-3.220954e+02
2.610000e-06	-1.194954e-06	-4.831792e-09	-8.972663e+00	-3.191566e+02
2.620000e-06	-1.169995e-06	-4.795312e-09	-8.785257e+00	-3.162036e+02
2.630000e-06	-1.145002e-06	-4.753536e-09	-8.597589e+00	-3.132359e+02
2.640000e-06	-1.119951e-06	-4.710222e-09	-8.409484e+00	-3.102533e+02
2.650000e-06	-1.094867e-06	-4.666071e-09	-8.221131e+00	-3.072552e+02
2.660000e-06	-1.069670e-06	-4.620441e-09	-8.031934e+00	-3.042413e+02
2.670000e-06	-1.044357e-06	-4.576560e-09	-7.841861e+00	-3.012113e+02
2.680000e-06	-1.019073e-06	-4.532545e-09	-7.652008e+00	-2.981647e+02
2.690000e-06	-9.938047e-07	-4.492130e-09	-7.462277e+00	-2.951016e+02
2.700000e-06	-9.684810e-07	-4.450522e-09	-7.272126e+00	-2.920220e+02
2.710000e-06	-9.430357e-07	-4.406235e-09	-7.081063e+00	-2.889262e+02
2.720000e-06	-9.175564e-07	-4.357857e-09	-6.889744e+00	-2.858144e+02
2.730000e-06	-8.921091e-07	-4.304770e-09	-6.698666e+00	-2.826872e+02
2.740000e-06	-8.666242e-07	-4.254008e-09	-6.507305e+00	-2.795451e+02
2.750000e-06	-8.411108e-07	-4.205624e-09	-6.315730e+00	-2.763889e+02
2.760000e-06	-8.155270e-07	-4.163044e-09	-6.123626e+00	-2.732191e+02
2.770000e-06	-7.899010e-07	-4.124238e-09	-5.931205e+00	-2.700362e+02
2.780000e-06	-7.642205e-07	-4.085322e-09	-5.738376e+00	-2.668407e+02
2.790000e-06	-7.384708e-07	-4.043601e-09	-5.545026e+00	-2.636327e+02
2.800000e-06	-7.126748e-07	-3.996844e-09	-5.351330e+00	-2.604122e+02
2.810000e-06	-6.868663e-07	-3.946435e-09	-5.157539e+00	-2.571788e+02
2.820000e-06	-6.610743e-07	-3.890317e-09	-4.963872e+00	-2.539320e+02
2.830000e-06	-6.352933e-07	-3.833851e-09	-4.770288e+00	-2.506707e+02
2.840000e-06	-6.095005e-07	-3.781146e-09	-4.576615e+00	-2.473936e+02
