# Temperatura_=_20.0
# Concentracion g/m^3_=_10000.0
# C_Vs_to_Am_M_A/Vsm_=_65563218390.804596
# pendiente_HvsI_1/m_=_3716.3
# ordenada_HvsI_A/m_=_1297.0
# frecuencia_Hz_=_81178.90070500702

Tiempo_(s)	Campo_(V.s)	Magnetizacion_(V.s)	Campo_(kA/m)	Magnetizacion_(A/m)
0.000000e+00	-5.126463e-06	-9.261193e-09	-3.847077e+01	-6.073349e+02
1.000000e-08	-5.126531e-06	-9.228892e-09	-3.847128e+01	-6.073264e+02
2.000000e-08	-5.126497e-06	-9.210869e-09	-3.847102e+01	-6.073478e+02
3.000000e-08	-5.126384e-06	-9.254636e-09	-3.847017e+01	-6.073992e+02
4.000000e-08	-5.126222e-06	-9.252502e-09	-3.846896e+01	-6.074800e+02
5.000000e-08	-5.125983e-06	-9.219716e-09	-3.846716e+01	-6.075889e+02
6.000000e-08	-5.125686e-06	-9.147145e-09	-3.846493e+01	-6.077236e+02
7.000000e-08	-5.125400e-06	-9.265928e-09	-3.846278e+01	-6.078811e+02
8.000000e-08	-5.125030e-06	-9.499997e-09	-3.846001e+01	-6.080579e+02
9.000000e-08	-5.124530e-06	-9.459779e-09	-3.845626e+01	-6.082500e+02
1.000000e-07	-5.123934e-06	-9.330729e-09	-3.845179e+01	-6.084528e+02
1.100000e-07	-5.123211e-06	-9.296644e-09	-3.844636e+01	-6.086618e+02
1.200000e-07	-5.122374e-06	-9.308824e-09	-3.844008e+01	-6.088721e+02
1.300000e-07	-5.121382e-06	-9.313991e-09	-3.843263e+01	-6.090791e+02
1.400000e-07	-5.120214e-06	-9.326095e-09	-3.842387e+01	-6.092784e+02
1.500000e-07	-5.118766e-06	-9.234508e-09	-3.841300e+01	-6.094658e+02
1.600000e-07	-5.117036e-06	-9.140875e-09	-3.840002e+01	-6.096378e+02
1.700000e-07	-5.115206e-06	-9.234215e-09	-3.838629e+01	-6.097912e+02
1.800000e-07	-5.113188e-06	-9.418996e-09	-3.837114e+01	-6.099238e+02
1.900000e-07	-5.110957e-06	-9.424013e-09	-3.835440e+01	-6.100337e+02
2.000000e-07	-5.108496e-06	-9.189493e-09	-3.833593e+01	-6.101199e+02
2.100000e-07	-5.105834e-06	-9.135751e-09	-3.831596e+01	-6.101820e+02
2.200000e-07	-5.103070e-06	-9.406640e-09	-3.829521e+01	-6.102200e+02
2.300000e-07	-5.100093e-06	-9.509853e-09	-3.827288e+01	-6.102349e+02
2.400000e-07	-5.096905e-06	-9.317398e-09	-3.824895e+01	-6.102276e+02
2.500000e-07	-5.093470e-06	-9.163037e-09	-3.822317e+01	-6.101997e+02
2.600000e-07	-5.089796e-06	-9.303457e-09	-3.819561e+01	-6.101527e+02
2.700000e-07	-5.085972e-06	-9.397551e-09	-3.816690e+01	-6.100885e+02
2.800000e-07	-5.082042e-06	-9.298357e-09	-3.813742e+01	-6.100087e+02
2.900000e-07	-5.078105e-06	-9.253265e-09	-3.810787e+01	-6.099148e+02
3.000000e-07	-5.074071e-06	-9.253194e-09	-3.807760e+01	-6.098080e+02
3.100000e-07	-5.069901e-06	-9.305688e-09	-3.804630e+01	-6.096893e+02
3.200000e-07	-5.065677e-06	-9.321624e-09	-3.801461e+01	-6.095591e+02
3.300000e-07	-5.061443e-06	-9.353218e-09	-3.798283e+01	-6.094177e+02
3.400000e-07	-5.057123e-06	-9.258685e-09	-3.795041e+01	-6.092645e+02
3.500000e-07	-5.052701e-06	-9.140235e-09	-3.791723e+01	-6.090989e+02
3.600000e-07	-5.048230e-06	-9.249344e-09	-3.788368e+01	-6.089197e+02
3.700000e-07	-5.043689e-06	-9.359478e-09	-3.784960e+01	-6.087255e+02
3.800000e-07	-5.039017e-06	-9.279407e-09	-3.781454e+01	-6.085147e+02
3.900000e-07	-5.034224e-06	-9.131058e-09	-3.777857e+01	-6.082856e+02
4.000000e-07	-5.029355e-06	-9.243263e-09	-3.774204e+01	-6.080363e+02
4.100000e-07	-5.024398e-06	-9.371441e-09	-3.770483e+01	-6.077652e+02
4.200000e-07	-5.019296e-06	-9.259056e-09	-3.766655e+01	-6.074708e+02
4.300000e-07	-5.014097e-06	-9.147014e-09	-3.762753e+01	-6.071518e+02
4.400000e-07	-5.008764e-06	-9.188523e-09	-3.758751e+01	-6.068075e+02
4.500000e-07	-5.003128e-06	-9.280901e-09	-3.754522e+01	-6.064372e+02
4.600000e-07	-4.997290e-06	-9.238564e-09	-3.750141e+01	-6.060410e+02
4.700000e-07	-4.991340e-06	-9.188135e-09	-3.745675e+01	-6.056194e+02
4.800000e-07	-4.985304e-06	-9.168164e-09	-3.741146e+01	-6.051733e+02
4.900000e-07	-4.979165e-06	-9.159502e-09	-3.736539e+01	-6.047041e+02
5.000000e-07	-4.972922e-06	-9.200645e-09	-3.731854e+01	-6.042134e+02
5.100000e-07	-4.966600e-06	-9.193371e-09	-3.727110e+01	-6.037034e+02
5.200000e-07	-4.960171e-06	-9.133599e-09	-3.722285e+01	-6.031765e+02
5.300000e-07	-4.953647e-06	-9.091739e-09	-3.717389e+01	-6.026351e+02
5.400000e-07	-4.947039e-06	-9.151162e-09	-3.712430e+01	-6.020818e+02
5.500000e-07	-4.940302e-06	-9.182372e-09	-3.707375e+01	-6.015194e+02
5.600000e-07	-4.933330e-06	-9.111345e-09	-3.702142e+01	-6.009504e+02
5.700000e-07	-4.926171e-06	-9.077432e-09	-3.696771e+01	-6.003773e+02
5.800000e-07	-4.918794e-06	-9.099321e-09	-3.691234e+01	-5.998022e+02
5.900000e-07	-4.911303e-06	-9.137248e-09	-3.685613e+01	-5.992274e+02
6.000000e-07	-4.903813e-06	-9.112890e-09	-3.679992e+01	-5.986544e+02
6.100000e-07	-4.896210e-06	-9.063022e-09	-3.674287e+01	-5.980849e+02
6.200000e-07	-4.888405e-06	-9.043130e-09	-3.668429e+01	-5.975202e+02
6.300000e-07	-4.880417e-06	-9.064358e-09	-3.662435e+01	-5.969613e+02
6.400000e-07	-4.872328e-06	-9.085636e-09	-3.656365e+01	-5.964091e+02
6.500000e-07	-4.864169e-06	-9.025352e-09	-3.650242e+01	-5.958642e+02
6.600000e-07	-4.855996e-06	-8.986711e-09	-3.644109e+01	-5.953271e+02
6.700000e-07	-4.847787e-06	-9.004574e-09	-3.637948e+01	-5.947985e+02
6.800000e-07	-4.839491e-06	-9.029362e-09	-3.631723e+01	-5.942786e+02
6.900000e-07	-4.831106e-06	-9.012462e-09	-3.625430e+01	-5.937680e+02
7.000000e-07	-4.822666e-06	-8.974982e-09	-3.619097e+01	-5.932671e+02
7.100000e-07	-4.814136e-06	-8.981551e-09	-3.612695e+01	-5.927763e+02
7.200000e-07	-4.805525e-06	-8.995199e-09	-3.606233e+01	-5.922961e+02
7.300000e-07	-4.796855e-06	-8.999720e-09	-3.599727e+01	-5.918270e+02
7.400000e-07	-4.788028e-06	-8.966220e-09	-3.593103e+01	-5.913694e+02
7.500000e-07	-4.778924e-06	-8.935579e-09	-3.586271e+01	-5.909238e+02
7.600000e-07	-4.769666e-06	-8.942079e-09	-3.579323e+01	-5.904904e+02
7.700000e-07	-4.760351e-06	-8.953021e-09	-3.572333e+01	-5.900693e+02
7.800000e-07	-4.750723e-06	-8.950764e-09	-3.565108e+01	-5.896605e+02
7.900000e-07	-4.741030e-06	-8.921187e-09	-3.557834e+01	-5.892636e+02
8.000000e-07	-4.731272e-06	-8.915426e-09	-3.550511e+01	-5.888778e+02
8.100000e-07	-4.721069e-06	-8.926931e-09	-3.542855e+01	-5.885021e+02
8.200000e-07	-4.710595e-06	-8.927960e-09	-3.534995e+01	-5.881351e+02
8.300000e-07	-4.699974e-06	-8.902626e-09	-3.527024e+01	-5.877748e+02
8.400000e-07	-4.689231e-06	-8.872044e-09	-3.518962e+01	-5.874192e+02
8.500000e-07	-4.678289e-06	-8.884443e-09	-3.510751e+01	-5.870655e+02
8.600000e-07	-4.667037e-06	-8.895222e-09	-3.502307e+01	-5.867109e+02
8.700000e-07	-4.655532e-06	-8.887608e-09	-3.493674e+01	-5.863521e+02
8.800000e-07	-4.643891e-06	-8.871529e-09	-3.484938e+01	-5.859858e+02
8.900000e-07	-4.632149e-06	-8.868246e-09	-3.476126e+01	-5.856086e+02
9.000000e-07	-4.620248e-06	-8.875194e-09	-3.467195e+01	-5.852169e+02
9.100000e-07	-4.608236e-06	-8.864110e-09	-3.458181e+01	-5.848073e+02
9.200000e-07	-4.596216e-06	-8.842970e-09	-3.449161e+01	-5.843766e+02
9.300000e-07	-4.584130e-06	-8.817313e-09	-3.440091e+01	-5.839218e+02
9.400000e-07	-4.571925e-06	-8.811892e-09	-3.430932e+01	-5.834404e+02
9.500000e-07	-4.559649e-06	-8.812154e-09	-3.421720e+01	-5.829301e+02
9.600000e-07	-4.547209e-06	-8.801397e-09	-3.412384e+01	-5.823893e+02
9.700000e-07	-4.534651e-06	-8.786001e-09	-3.402960e+01	-5.818166e+02
9.800000e-07	-4.522052e-06	-8.776497e-09	-3.393505e+01	-5.812114e+02
9.900000e-07	-4.509279e-06	-8.784836e-09	-3.383920e+01	-5.805734e+02
1.000000e-06	-4.496384e-06	-8.778303e-09	-3.374243e+01	-5.799030e+02
1.010000e-06	-4.483400e-06	-8.756920e-09	-3.364500e+01	-5.792008e+02
1.020000e-06	-4.470228e-06	-8.734342e-09	-3.354615e+01	-5.784679e+02
1.030000e-06	-4.456934e-06	-8.724039e-09	-3.344638e+01	-5.777056e+02
1.040000e-06	-4.443496e-06	-8.720099e-09	-3.334554e+01	-5.769154e+02
1.050000e-06	-4.429947e-06	-8.699428e-09	-3.324386e+01	-5.760992e+02
1.060000e-06	-4.416336e-06	-8.680364e-09	-3.314172e+01	-5.752585e+02
1.070000e-06	-4.402591e-06	-8.667908e-09	-3.303857e+01	-5.743952e+02
1.080000e-06	-4.388705e-06	-8.662616e-09	-3.293437e+01	-5.735108e+02
1.090000e-06	-4.374720e-06	-8.649685e-09	-3.282942e+01	-5.726068e+02
1.100000e-06	-4.360600e-06	-8.625202e-09	-3.272346e+01	-5.716844e+02
1.110000e-06	-4.346363e-06	-8.604241e-09	-3.261662e+01	-5.707448e+02
1.120000e-06	-4.332095e-06	-8.585956e-09	-3.250955e+01	-5.697887e+02
1.130000e-06	-4.317740e-06	-8.570605e-09	-3.240183e+01	-5.688167e+02
1.140000e-06	-4.303154e-06	-8.549211e-09	-3.229236e+01	-5.678294e+02
1.150000e-06	-4.288415e-06	-8.530708e-09	-3.218176e+01	-5.668270e+02
1.160000e-06	-4.273644e-06	-8.519059e-09	-3.207091e+01	-5.658097e+02
1.170000e-06	-4.258689e-06	-8.510702e-09	-3.195869e+01	-5.647778e+02
1.180000e-06	-4.243561e-06	-8.499215e-09	-3.184516e+01	-5.637314e+02
1.190000e-06	-4.228334e-06	-8.477380e-09	-3.173089e+01	-5.626710e+02
1.200000e-06	-4.212887e-06	-8.457241e-09	-3.161497e+01	-5.615971e+02
1.210000e-06	-4.197311e-06	-8.437116e-09	-3.149808e+01	-5.605103e+02
1.220000e-06	-4.181648e-06	-8.415784e-09	-3.138054e+01	-5.594117e+02
1.230000e-06	-4.165714e-06	-8.389820e-09	-3.126097e+01	-5.583025e+02
1.240000e-06	-4.149572e-06	-8.367014e-09	-3.113983e+01	-5.571842e+02
1.250000e-06	-4.133212e-06	-8.355985e-09	-3.101707e+01	-5.560587e+02
1.260000e-06	-4.116672e-06	-8.342689e-09	-3.089294e+01	-5.549280e+02
1.270000e-06	-4.099994e-06	-8.326315e-09	-3.076779e+01	-5.537945e+02
1.280000e-06	-4.083125e-06	-8.305608e-09	-3.064119e+01	-5.526605e+02
1.290000e-06	-4.066164e-06	-8.284958e-09	-3.051391e+01	-5.515288e+02
1.300000e-06	-4.049243e-06	-8.265626e-09	-3.038693e+01	-5.504018e+02
1.310000e-06	-4.032200e-06	-8.245273e-09	-3.025903e+01	-5.492821e+02
1.320000e-06	-4.014980e-06	-8.226176e-09	-3.012981e+01	-5.481721e+02
1.330000e-06	-3.997685e-06	-8.207312e-09	-3.000002e+01	-5.470740e+02
1.340000e-06	-3.980319e-06	-8.193222e-09	-2.986970e+01	-5.459897e+02
1.350000e-06	-3.962828e-06	-8.178967e-09	-2.973844e+01	-5.449210e+02
1.360000e-06	-3.945260e-06	-8.163725e-09	-2.960661e+01	-5.438689e+02
1.370000e-06	-3.927639e-06	-8.146009e-09	-2.947437e+01	-5.428342e+02
1.380000e-06	-3.909988e-06	-8.126374e-09	-2.934191e+01	-5.418173e+02
1.390000e-06	-3.892359e-06	-8.106978e-09	-2.920961e+01	-5.408182e+02
1.400000e-06	-3.874642e-06	-8.081957e-09	-2.907666e+01	-5.398361e+02
1.410000e-06	-3.856777e-06	-8.058487e-09	-2.894260e+01	-5.388702e+02
1.420000e-06	-3.838789e-06	-8.038482e-09	-2.880761e+01	-5.379192e+02
1.430000e-06	-3.820857e-06	-8.022203e-09	-2.867304e+01	-5.369812e+02
1.440000e-06	-3.802863e-06	-8.007132e-09	-2.853801e+01	-5.360543e+02
1.450000e-06	-3.784722e-06	-7.991567e-09	-2.840188e+01	-5.351362e+02
1.460000e-06	-3.766530e-06	-7.980494e-09	-2.826535e+01	-5.342246e+02
1.470000e-06	-3.748233e-06	-7.969855e-09	-2.812805e+01	-5.333169e+02
1.480000e-06	-3.729807e-06	-7.956736e-09	-2.798977e+01	-5.324105e+02
1.490000e-06	-3.711283e-06	-7.937017e-09	-2.785076e+01	-5.315027e+02
1.500000e-06	-3.692662e-06	-7.914656e-09	-2.771102e+01	-5.305911e+02
1.510000e-06	-3.673892e-06	-7.897765e-09	-2.757017e+01	-5.296730e+02
1.520000e-06	-3.655020e-06	-7.884815e-09	-2.742854e+01	-5.287460e+02
1.530000e-06	-3.636150e-06	-7.870010e-09	-2.728694e+01	-5.278079e+02
1.540000e-06	-3.617164e-06	-7.854550e-09	-2.714446e+01	-5.268562e+02
1.550000e-06	-3.598029e-06	-7.841171e-09	-2.700086e+01	-5.258891e+02
1.560000e-06	-3.578782e-06	-7.824999e-09	-2.685643e+01	-5.249045e+02
1.570000e-06	-3.559372e-06	-7.807292e-09	-2.671076e+01	-5.239006e+02
1.580000e-06	-3.539865e-06	-7.785732e-09	-2.656438e+01	-5.228756e+02
1.590000e-06	-3.520261e-06	-7.763176e-09	-2.641726e+01	-5.218280e+02
1.600000e-06	-3.500589e-06	-7.744500e-09	-2.626964e+01	-5.207562e+02
1.610000e-06	-3.480788e-06	-7.725785e-09	-2.612105e+01	-5.196587e+02
1.620000e-06	-3.460890e-06	-7.708847e-09	-2.597173e+01	-5.185342e+02
1.630000e-06	-3.441003e-06	-7.690978e-09	-2.582248e+01	-5.173814e+02
1.640000e-06	-3.421005e-06	-7.674783e-09	-2.567241e+01	-5.161993e+02
1.650000e-06	-3.400893e-06	-7.660360e-09	-2.552148e+01	-5.149866e+02
1.660000e-06	-3.380708e-06	-7.644958e-09	-2.537001e+01	-5.137425e+02
1.670000e-06	-3.360468e-06	-7.627481e-09	-2.521812e+01	-5.124661e+02
1.680000e-06	-3.340271e-06	-7.603127e-09	-2.506656e+01	-5.111569e+02
1.690000e-06	-3.320061e-06	-7.575482e-09	-2.491489e+01	-5.098142e+02
1.700000e-06	-3.299777e-06	-7.546968e-09	-2.476268e+01	-5.084378e+02
1.710000e-06	-3.279475e-06	-7.521008e-09	-2.461033e+01	-5.070276e+02
1.720000e-06	-3.259135e-06	-7.496889e-09	-2.445768e+01	-5.055837e+02
1.730000e-06	-3.238771e-06	-7.476604e-09	-2.430487e+01	-5.041064e+02
1.740000e-06	-3.218385e-06	-7.460145e-09	-2.415188e+01	-5.025963e+02
1.750000e-06	-3.197897e-06	-7.440470e-09	-2.399813e+01	-5.010540e+02
1.760000e-06	-3.177333e-06	-7.415506e-09	-2.384381e+01	-4.994807e+02
1.770000e-06	-3.156818e-06	-7.385897e-09	-2.368986e+01	-4.978775e+02
1.780000e-06	-3.136237e-06	-7.357598e-09	-2.353541e+01	-4.962457e+02
1.790000e-06	-3.115533e-06	-7.332113e-09	-2.338005e+01	-4.945870e+02
1.800000e-06	-3.094779e-06	-7.309899e-09	-2.322430e+01	-4.929029e+02
1.810000e-06	-3.073904e-06	-7.288952e-09	-2.306765e+01	-4.911952e+02
1.820000e-06	-3.052995e-06	-7.269026e-09	-2.291074e+01	-4.894660e+02
1.830000e-06	-3.032085e-06	-7.249966e-09	-2.275382e+01	-4.877170e+02
1.840000e-06	-3.011091e-06	-7.224881e-09	-2.259627e+01	-4.859502e+02
1.850000e-06	-2.989921e-06	-7.191433e-09	-2.243741e+01	-4.841677e+02
1.860000e-06	-2.968575e-06	-7.150881e-09	-2.227722e+01	-4.823713e+02
1.870000e-06	-2.947225e-06	-7.115675e-09	-2.211700e+01	-4.805631e+02
1.880000e-06	-2.925812e-06	-7.090195e-09	-2.195631e+01	-4.787449e+02
1.890000e-06	-2.904276e-06	-7.069649e-09	-2.179470e+01	-4.769185e+02
1.900000e-06	-2.882657e-06	-7.051568e-09	-2.163246e+01	-4.750856e+02
1.910000e-06	-2.860826e-06	-7.030184e-09	-2.146863e+01	-4.732480e+02
1.920000e-06	-2.838962e-06	-7.005202e-09	-2.130456e+01	-4.714072e+02
1.930000e-06	-2.817114e-06	-6.973668e-09	-2.114061e+01	-4.695647e+02
1.940000e-06	-2.795167e-06	-6.937328e-09	-2.097591e+01	-4.677218e+02
1.950000e-06	-2.773093e-06	-6.900964e-09	-2.081026e+01	-4.658799e+02
1.960000e-06	-2.750904e-06	-6.869961e-09	-2.064374e+01	-4.640400e+02
1.970000e-06	-2.728788e-06	-6.851039e-09	-2.047777e+01	-4.622032e+02
1.980000e-06	-2.706664e-06	-6.836591e-09	-2.031175e+01	-4.603703e+02
1.990000e-06	-2.684386e-06	-6.818029e-09	-2.014456e+01	-4.585421e+02
2.000000e-06	-2.661989e-06	-6.793245e-09	-1.997649e+01	-4.567191e+02
2.010000e-06	-2.639579e-06	-6.763699e-09	-1.980832e+01	-4.549017e+02
2.020000e-06	-2.617227e-06	-6.731924e-09	-1.964059e+01	-4.530900e+02
2.030000e-06	-2.594832e-06	-6.697062e-09	-1.947252e+01	-4.512842e+02
2.040000e-06	-2.572354e-06	-6.662536e-09	-1.930384e+01	-4.494839e+02
2.050000e-06	-2.549818e-06	-6.633289e-09	-1.913472e+01	-4.476886e+02
2.060000e-06	-2.527176e-06	-6.612883e-09	-1.896481e+01	-4.458977e+02
2.070000e-06	-2.504477e-06	-6.594365e-09	-1.879447e+01	-4.441103e+02
2.080000e-06	-2.481749e-06	-6.572821e-09	-1.862391e+01	-4.423252e+02
2.090000e-06	-2.459052e-06	-6.549228e-09	-1.845358e+01	-4.405411e+02
2.100000e-06	-2.436171e-06	-6.525077e-09	-1.828188e+01	-4.387564e+02
2.110000e-06	-2.413069e-06	-6.500242e-09	-1.810851e+01	-4.369695e+02
2.120000e-06	-2.389933e-06	-6.472427e-09	-1.793489e+01	-4.351784e+02
2.130000e-06	-2.366819e-06	-6.446293e-09	-1.776143e+01	-4.333812e+02
2.140000e-06	-2.343680e-06	-6.418244e-09	-1.758779e+01	-4.315758e+02
2.150000e-06	-2.320466e-06	-6.387723e-09	-1.741359e+01	-4.297600e+02
2.160000e-06	-2.297208e-06	-6.359508e-09	-1.723905e+01	-4.279318e+02
2.170000e-06	-2.273855e-06	-6.331806e-09	-1.706380e+01	-4.260890e+02
2.180000e-06	-2.250464e-06	-6.303629e-09	-1.688827e+01	-4.242295e+02
2.190000e-06	-2.226942e-06	-6.276050e-09	-1.671175e+01	-4.223512e+02
2.200000e-06	-2.203321e-06	-6.252725e-09	-1.653449e+01	-4.204521e+02
2.210000e-06	-2.179715e-06	-6.233827e-09	-1.635734e+01	-4.185305e+02
2.220000e-06	-2.155975e-06	-6.209516e-09	-1.617918e+01	-4.165846e+02
2.230000e-06	-2.132148e-06	-6.176465e-09	-1.600038e+01	-4.146126e+02
2.240000e-06	-2.108375e-06	-6.142425e-09	-1.582198e+01	-4.126132e+02
2.250000e-06	-2.084626e-06	-6.112593e-09	-1.564376e+01	-4.105848e+02
2.260000e-06	-2.060814e-06	-6.085338e-09	-1.546506e+01	-4.085262e+02
2.270000e-06	-2.036854e-06	-6.059569e-09	-1.528526e+01	-4.064361e+02
2.280000e-06	-2.012872e-06	-6.034640e-09	-1.510529e+01	-4.043136e+02
2.290000e-06	-1.988867e-06	-6.010911e-09	-1.492515e+01	-4.021574e+02
2.300000e-06	-1.964802e-06	-5.983965e-09	-1.474455e+01	-3.999666e+02
2.310000e-06	-1.940732e-06	-5.948191e-09	-1.456393e+01	-3.977405e+02
2.320000e-06	-1.916583e-06	-5.905493e-09	-1.438270e+01	-3.954781e+02
2.330000e-06	-1.892345e-06	-5.860945e-09	-1.420082e+01	-3.931788e+02
2.340000e-06	-1.868077e-06	-5.822965e-09	-1.401870e+01	-3.908419e+02
2.350000e-06	-1.843807e-06	-5.793897e-09	-1.383657e+01	-3.884670e+02
2.360000e-06	-1.819546e-06	-5.768818e-09	-1.365451e+01	-3.860537e+02
2.370000e-06	-1.795286e-06	-5.743749e-09	-1.347245e+01	-3.836017e+02
2.380000e-06	-1.770996e-06	-5.715193e-09	-1.329017e+01	-3.811112e+02
2.390000e-06	-1.746651e-06	-5.678990e-09	-1.310748e+01	-3.785823e+02
2.400000e-06	-1.722293e-06	-5.635363e-09	-1.292468e+01	-3.760155e+02
2.410000e-06	-1.697891e-06	-5.586701e-09	-1.274156e+01	-3.734114e+02
2.420000e-06	-1.673449e-06	-5.539286e-09	-1.255814e+01	-3.707710e+02
2.430000e-06	-1.649007e-06	-5.501818e-09	-1.237473e+01	-3.680956e+02
2.440000e-06	-1.624492e-06	-5.474321e-09	-1.219075e+01	-3.653866e+02
2.450000e-06	-1.599927e-06	-5.448309e-09	-1.200641e+01	-3.626460e+02
2.460000e-06	-1.575310e-06	-5.416413e-09	-1.182167e+01	-3.598757e+02
2.470000e-06	-1.550729e-06	-5.374679e-09	-1.163721e+01	-3.570780e+02
2.480000e-06	-1.526267e-06	-5.325269e-09	-1.145364e+01	-3.542554e+02
2.490000e-06	-1.501767e-06	-5.273306e-09	-1.126978e+01	-3.514104e+02
2.500000e-06	-1.477185e-06	-5.224881e-09	-1.108531e+01	-3.485457e+02
2.510000e-06	-1.452527e-06	-5.181390e-09	-1.090027e+01	-3.456639e+02
2.520000e-06	-1.427858e-06	-5.144872e-09	-1.071515e+01	-3.427677e+02
2.530000e-06	-1.403159e-06	-5.116524e-09	-1.052980e+01	-3.398597e+02
2.540000e-06	-1.378412e-06	-5.087972e-09	-1.034409e+01	-3.369421e+02
2.550000e-06	-1.353585e-06	-5.051323e-09	-1.015777e+01	-3.340173e+02
2.560000e-06	-1.328714e-06	-5.004720e-09	-9.971131e+00	-3.310870e+02
2.570000e-06	-1.303847e-06	-4.956495e-09	-9.784520e+00	-3.281529e+02
2.580000e-06	-1.278900e-06	-4.909613e-09	-9.597314e+00	-3.252162e+02
2.590000e-06	-1.253938e-06	-4.862368e-09	-9.409987e+00	-3.222779e+02
2.600000e-06	-1.228920e-06	-4.817462e-09	-9.222247e+00	-3.193386e+02
2.610000e-06	-1.203784e-06	-4.779901e-09	-9.033613e+00	-3.163984e+02
2.620000e-06	-1.178679e-06	-4.751312e-09	-8.845221e+00	-3.134574e+02
2.630000e-06	-1.153614e-06	-4.719182e-09	-8.657120e+00	-3.105151e+02
2.640000e-06	-1.128493e-06	-4.677568e-09	-8.468608e+00	-3.075710e+02
2.650000e-06	-1.103290e-06	-4.628698e-09	-8.279475e+00	-3.046240e+02
2.660000e-06	-1.077992e-06	-4.576420e-09	-8.089624e+00	-3.016734e+02
2.670000e-06	-1.052612e-06	-4.526599e-09	-7.899169e+00	-2.987178e+02
2.680000e-06	-1.027269e-06	-4.481547e-09	-7.708982e+00	-2.957560e+02
2.690000e-06	-1.001974e-06	-4.442441e-09	-7.519158e+00	-2.927868e+02
2.700000e-06	-9.765250e-07	-4.407738e-09	-7.328184e+00	-2.898089e+02
2.710000e-06	-9.510799e-07	-4.376692e-09	-7.137235e+00	-2.868209e+02
2.720000e-06	-9.257191e-07	-4.343053e-09	-6.946919e+00	-2.838217e+02
2.730000e-06	-9.002420e-07	-4.300090e-09	-6.755730e+00	-2.808101e+02
2.740000e-06	-8.746745e-07	-4.249540e-09	-6.563862e+00	-2.777849e+02
2.750000e-06	-8.491547e-07	-4.197521e-09	-6.372353e+00	-2.747450e+02
2.760000e-06	-8.235913e-07	-4.150275e-09	-6.180516e+00	-2.716892e+02
2.770000e-06	-7.979198e-07	-4.105965e-09	-5.987868e+00	-2.686165e+02
2.780000e-06	-7.722538e-07	-4.061897e-09	-5.795262e+00	-2.655257e+02
2.790000e-06	-7.465826e-07	-4.016659e-09	-5.602616e+00	-2.624156e+02
2.800000e-06	-7.208558e-07	-3.973298e-09	-5.409553e+00	-2.592849e+02
2.810000e-06	-6.951650e-07	-3.931774e-09	-5.216760e+00	-2.561322e+02
2.820000e-06	-6.693282e-07	-3.885142e-09	-5.022872e+00	-2.529560e+02
2.830000e-06	-6.434092e-07	-3.832983e-09	-4.828367e+00	-2.497547e+02
2.840000e-06	-6.177109e-07	-3.779762e-09	-4.635518e+00	-2.465264e+02
