# Temperatura_=_20.0
# Concentracion g/m^3_=_10000.0
# C_Vs_to_Am_M_A/Vsm_=_65563218390.804596
# pendiente_HvsI_1/m_=_3716.3
# ordenada_HvsI_A/m_=_1297.0
# frecuencia_Hz_=_81178.4920844599

Tiempo_(s)	Campo_(V.s)	Magnetizacion_(V.s)	Campo_(kA/m)	Magnetizacion_(A/m)
0.000000e+00	-5.133066e-06	-9.221425e-09	-3.846512e+01	-6.051544e+02
1.000000e-08	-5.133101e-06	-9.198697e-09	-3.846539e+01	-6.050748e+02
2.000000e-08	-5.133075e-06	-9.202570e-09	-3.846519e+01	-6.050159e+02
3.000000e-08	-5.133011e-06	-9.179346e-09	-3.846471e+01	-6.049796e+02
4.000000e-08	-5.132916e-06	-9.235392e-09	-3.846400e+01	-6.049675e+02
5.000000e-08	-5.132686e-06	-9.335773e-09	-3.846228e+01	-6.049801e+02
6.000000e-08	-5.132345e-06	-9.240823e-09	-3.845972e+01	-6.050170e+02
7.000000e-08	-5.131886e-06	-9.237629e-09	-3.845628e+01	-6.050770e+02
8.000000e-08	-5.131361e-06	-9.330871e-09	-3.845235e+01	-6.051580e+02
9.000000e-08	-5.130709e-06	-9.337536e-09	-3.844746e+01	-6.052571e+02
1.000000e-07	-5.129998e-06	-9.358338e-09	-3.844214e+01	-6.053708e+02
1.100000e-07	-5.129262e-06	-9.311196e-09	-3.843662e+01	-6.054951e+02
1.200000e-07	-5.128299e-06	-9.229754e-09	-3.842940e+01	-6.056257e+02
1.300000e-07	-5.127121e-06	-9.249096e-09	-3.842057e+01	-6.057580e+02
1.400000e-07	-5.125719e-06	-9.274670e-09	-3.841007e+01	-6.058873e+02
1.500000e-07	-5.124166e-06	-9.276622e-09	-3.839843e+01	-6.060093e+02
1.600000e-07	-5.122517e-06	-9.200282e-09	-3.838608e+01	-6.061198e+02
1.700000e-07	-5.120705e-06	-9.165144e-09	-3.837249e+01	-6.062151e+02
1.800000e-07	-5.118705e-06	-9.252152e-09	-3.835751e+01	-6.062921e+02
1.900000e-07	-5.116413e-06	-9.347004e-09	-3.834034e+01	-6.063483e+02
2.000000e-07	-5.113808e-06	-9.366048e-09	-3.832081e+01	-6.063818e+02
2.100000e-07	-5.110992e-06	-9.233775e-09	-3.829971e+01	-6.063916e+02
2.200000e-07	-5.108001e-06	-9.246747e-09	-3.827730e+01	-6.063772e+02
2.300000e-07	-5.104895e-06	-9.327429e-09	-3.825402e+01	-6.063389e+02
2.400000e-07	-5.101674e-06	-9.348779e-09	-3.822989e+01	-6.062776e+02
2.500000e-07	-5.098227e-06	-9.282966e-09	-3.820405e+01	-6.061944e+02
2.600000e-07	-5.094540e-06	-9.193135e-09	-3.817643e+01	-6.060912e+02
2.700000e-07	-5.090722e-06	-9.228362e-09	-3.814782e+01	-6.059698e+02
2.800000e-07	-5.086839e-06	-9.280230e-09	-3.811872e+01	-6.058322e+02
2.900000e-07	-5.082849e-06	-9.314890e-09	-3.808882e+01	-6.056804e+02
3.000000e-07	-5.078717e-06	-9.254028e-09	-3.805785e+01	-6.055162e+02
3.100000e-07	-5.074441e-06	-9.196461e-09	-3.802581e+01	-6.053414e+02
3.200000e-07	-5.070080e-06	-9.228624e-09	-3.799313e+01	-6.051571e+02
3.300000e-07	-5.065671e-06	-9.292878e-09	-3.796010e+01	-6.049642e+02
3.400000e-07	-5.061210e-06	-9.284368e-09	-3.792667e+01	-6.047634e+02
3.500000e-07	-5.056688e-06	-9.170436e-09	-3.789278e+01	-6.045545e+02
3.600000e-07	-5.052139e-06	-9.165932e-09	-3.785869e+01	-6.043373e+02
3.700000e-07	-5.047513e-06	-9.249379e-09	-3.782402e+01	-6.041111e+02
3.800000e-07	-5.042710e-06	-9.258652e-09	-3.778803e+01	-6.038748e+02
3.900000e-07	-5.037754e-06	-9.185906e-09	-3.775089e+01	-6.036273e+02
4.000000e-07	-5.032674e-06	-9.147564e-09	-3.771283e+01	-6.033671e+02
4.100000e-07	-5.027500e-06	-9.196217e-09	-3.767406e+01	-6.030931e+02
4.200000e-07	-5.022327e-06	-9.219727e-09	-3.763529e+01	-6.028038e+02
4.300000e-07	-5.017115e-06	-9.212111e-09	-3.759623e+01	-6.024981e+02
4.400000e-07	-5.011554e-06	-9.171246e-09	-3.755457e+01	-6.021752e+02
4.500000e-07	-5.005719e-06	-9.131030e-09	-3.751084e+01	-6.018344e+02
4.600000e-07	-4.999843e-06	-9.164881e-09	-3.746681e+01	-6.014756e+02
4.700000e-07	-4.993866e-06	-9.194937e-09	-3.742202e+01	-6.010988e+02
4.800000e-07	-4.987812e-06	-9.150164e-09	-3.737665e+01	-6.007046e+02
4.900000e-07	-4.981599e-06	-9.072245e-09	-3.733010e+01	-6.002940e+02
5.000000e-07	-4.975238e-06	-9.101447e-09	-3.728243e+01	-5.998680e+02
5.100000e-07	-4.968757e-06	-9.154022e-09	-3.723386e+01	-5.994281e+02
5.200000e-07	-4.962114e-06	-9.111942e-09	-3.718408e+01	-5.989762e+02
5.300000e-07	-4.955338e-06	-9.061083e-09	-3.713330e+01	-5.985140e+02
5.400000e-07	-4.948440e-06	-9.055919e-09	-3.708161e+01	-5.980433e+02
5.500000e-07	-4.941483e-06	-9.090181e-09	-3.702948e+01	-5.975662e+02
5.600000e-07	-4.934296e-06	-9.092748e-09	-3.697562e+01	-5.970843e+02
5.700000e-07	-4.926852e-06	-9.072558e-09	-3.691984e+01	-5.965993e+02
5.800000e-07	-4.919361e-06	-9.032701e-09	-3.686370e+01	-5.961126e+02
5.900000e-07	-4.911808e-06	-9.019258e-09	-3.680711e+01	-5.956255e+02
6.000000e-07	-4.904205e-06	-9.056739e-09	-3.675013e+01	-5.951389e+02
6.100000e-07	-4.896569e-06	-9.044766e-09	-3.669291e+01	-5.946534e+02
6.200000e-07	-4.888754e-06	-8.998123e-09	-3.663435e+01	-5.941695e+02
6.300000e-07	-4.880717e-06	-8.981205e-09	-3.657412e+01	-5.936875e+02
6.400000e-07	-4.872567e-06	-9.017461e-09	-3.651305e+01	-5.932074e+02
6.500000e-07	-4.864383e-06	-9.024852e-09	-3.645172e+01	-5.927291e+02
6.600000e-07	-4.856157e-06	-8.980854e-09	-3.639008e+01	-5.922525e+02
6.700000e-07	-4.847830e-06	-8.951202e-09	-3.632769e+01	-5.917775e+02
6.800000e-07	-4.839396e-06	-8.946617e-09	-3.626448e+01	-5.913039e+02
6.900000e-07	-4.830940e-06	-8.963832e-09	-3.620111e+01	-5.908317e+02
7.000000e-07	-4.822460e-06	-8.947243e-09	-3.613757e+01	-5.903608e+02
7.100000e-07	-4.813894e-06	-8.915481e-09	-3.607338e+01	-5.898914e+02
7.200000e-07	-4.805254e-06	-8.908813e-09	-3.600864e+01	-5.894239e+02
7.300000e-07	-4.796515e-06	-8.923244e-09	-3.594315e+01	-5.889586e+02
7.400000e-07	-4.787594e-06	-8.932260e-09	-3.587630e+01	-5.884959e+02
7.500000e-07	-4.778408e-06	-8.904325e-09	-3.580746e+01	-5.880365e+02
7.600000e-07	-4.769031e-06	-8.882563e-09	-3.573719e+01	-5.875808e+02
7.700000e-07	-4.759500e-06	-8.875007e-09	-3.566577e+01	-5.871293e+02
7.800000e-07	-4.749745e-06	-8.883624e-09	-3.559267e+01	-5.866824e+02
7.900000e-07	-4.739710e-06	-8.880272e-09	-3.551748e+01	-5.862404e+02
8.000000e-07	-4.729420e-06	-8.850662e-09	-3.544037e+01	-5.858031e+02
8.100000e-07	-4.719036e-06	-8.843128e-09	-3.536255e+01	-5.853704e+02
8.200000e-07	-4.708612e-06	-8.853511e-09	-3.528444e+01	-5.849417e+02
8.300000e-07	-4.698027e-06	-8.858252e-09	-3.520512e+01	-5.845160e+02
8.400000e-07	-4.687181e-06	-8.833643e-09	-3.512384e+01	-5.840921e+02
8.500000e-07	-4.675991e-06	-8.813019e-09	-3.503999e+01	-5.836684e+02
8.600000e-07	-4.664551e-06	-8.812518e-09	-3.495426e+01	-5.832431e+02
8.700000e-07	-4.653041e-06	-8.811950e-09	-3.486801e+01	-5.828142e+02
8.800000e-07	-4.641423e-06	-8.804557e-09	-3.478095e+01	-5.823791e+02
8.900000e-07	-4.629604e-06	-8.781667e-09	-3.469239e+01	-5.819356e+02
9.000000e-07	-4.617626e-06	-8.775457e-09	-3.460263e+01	-5.814811e+02
9.100000e-07	-4.605532e-06	-8.777007e-09	-3.451200e+01	-5.810132e+02
9.200000e-07	-4.593368e-06	-8.771067e-09	-3.442085e+01	-5.805295e+02
9.300000e-07	-4.581171e-06	-8.753272e-09	-3.432944e+01	-5.800277e+02
9.400000e-07	-4.568913e-06	-8.729867e-09	-3.423759e+01	-5.795060e+02
9.500000e-07	-4.556494e-06	-8.726515e-09	-3.414453e+01	-5.789627e+02
9.600000e-07	-4.543901e-06	-8.724867e-09	-3.405016e+01	-5.783964e+02
9.700000e-07	-4.531269e-06	-8.714276e-09	-3.395550e+01	-5.778064e+02
9.800000e-07	-4.518540e-06	-8.691559e-09	-3.386012e+01	-5.771919e+02
9.900000e-07	-4.505645e-06	-8.679561e-09	-3.376348e+01	-5.765527e+02
1.000000e-06	-4.492597e-06	-8.680999e-09	-3.366571e+01	-5.758892e+02
1.010000e-06	-4.479362e-06	-8.669649e-09	-3.356653e+01	-5.752016e+02
1.020000e-06	-4.466082e-06	-8.650379e-09	-3.346702e+01	-5.744908e+02
1.030000e-06	-4.452734e-06	-8.630707e-09	-3.336699e+01	-5.737575e+02
1.040000e-06	-4.439213e-06	-8.625072e-09	-3.326567e+01	-5.730029e+02
1.050000e-06	-4.425558e-06	-8.615335e-09	-3.316335e+01	-5.722281e+02
1.060000e-06	-4.411806e-06	-8.597495e-09	-3.306029e+01	-5.714341e+02
1.070000e-06	-4.397900e-06	-8.580950e-09	-3.295609e+01	-5.706221e+02
1.080000e-06	-4.383799e-06	-8.565485e-09	-3.285042e+01	-5.697929e+02
1.090000e-06	-4.369696e-06	-8.556931e-09	-3.274474e+01	-5.689473e+02
1.100000e-06	-4.355479e-06	-8.538127e-09	-3.263820e+01	-5.680861e+02
1.110000e-06	-4.341135e-06	-8.515063e-09	-3.253071e+01	-5.672096e+02
1.120000e-06	-4.326728e-06	-8.491805e-09	-3.242276e+01	-5.663183e+02
1.130000e-06	-4.312224e-06	-8.474074e-09	-3.231407e+01	-5.654123e+02
1.140000e-06	-4.297622e-06	-8.464893e-09	-3.220464e+01	-5.644917e+02
1.150000e-06	-4.282837e-06	-8.451185e-09	-3.209385e+01	-5.635566e+02
1.160000e-06	-4.267901e-06	-8.433590e-09	-3.198193e+01	-5.626069e+02
1.170000e-06	-4.252897e-06	-8.411877e-09	-3.186950e+01	-5.616427e+02
1.180000e-06	-4.237668e-06	-8.395968e-09	-3.175537e+01	-5.606642e+02
1.190000e-06	-4.222319e-06	-8.380114e-09	-3.164035e+01	-5.596717e+02
1.200000e-06	-4.207001e-06	-8.360516e-09	-3.152557e+01	-5.586657e+02
1.210000e-06	-4.191431e-06	-8.339054e-09	-3.140889e+01	-5.576468e+02
1.220000e-06	-4.175543e-06	-8.321174e-09	-3.128984e+01	-5.566161e+02
1.230000e-06	-4.159546e-06	-8.310284e-09	-3.116996e+01	-5.555747e+02
1.240000e-06	-4.143383e-06	-8.294712e-09	-3.104884e+01	-5.545241e+02
1.250000e-06	-4.126827e-06	-8.281627e-09	-3.092478e+01	-5.534659e+02
1.260000e-06	-4.110086e-06	-8.267603e-09	-3.079932e+01	-5.524020e+02
1.270000e-06	-4.093353e-06	-8.254545e-09	-3.067393e+01	-5.513342e+02
1.280000e-06	-4.076606e-06	-8.238416e-09	-3.054844e+01	-5.502647e+02
1.290000e-06	-4.059687e-06	-8.213371e-09	-3.042166e+01	-5.491955e+02
1.300000e-06	-4.042595e-06	-8.188301e-09	-3.029358e+01	-5.481285e+02
1.310000e-06	-4.025406e-06	-8.163271e-09	-3.016477e+01	-5.470656e+02
1.320000e-06	-4.008072e-06	-8.148809e-09	-3.003488e+01	-5.460086e+02
1.330000e-06	-3.990743e-06	-8.137120e-09	-2.990502e+01	-5.449587e+02
1.340000e-06	-3.973313e-06	-8.122845e-09	-2.977441e+01	-5.439172e+02
1.350000e-06	-3.955702e-06	-8.108020e-09	-2.964243e+01	-5.428849e+02
1.360000e-06	-3.938053e-06	-8.091869e-09	-2.951018e+01	-5.418622e+02
1.370000e-06	-3.920406e-06	-8.078789e-09	-2.937794e+01	-5.408492e+02
1.380000e-06	-3.902760e-06	-8.057151e-09	-2.924571e+01	-5.398457e+02
1.390000e-06	-3.885031e-06	-8.030727e-09	-2.911285e+01	-5.388510e+02
1.400000e-06	-3.867144e-06	-8.007145e-09	-2.897882e+01	-5.378642e+02
1.410000e-06	-3.849182e-06	-7.990137e-09	-2.884422e+01	-5.368841e+02
1.420000e-06	-3.831249e-06	-7.976270e-09	-2.870983e+01	-5.359095e+02
1.430000e-06	-3.813283e-06	-7.959900e-09	-2.857520e+01	-5.349385e+02
1.440000e-06	-3.795185e-06	-7.945155e-09	-2.843959e+01	-5.339697e+02
1.450000e-06	-3.776911e-06	-7.928750e-09	-2.830265e+01	-5.330012e+02
1.460000e-06	-3.758526e-06	-7.912294e-09	-2.816488e+01	-5.320313e+02
1.470000e-06	-3.740068e-06	-7.893531e-09	-2.802656e+01	-5.310583e+02
1.480000e-06	-3.721498e-06	-7.873688e-09	-2.788741e+01	-5.300804e+02
1.490000e-06	-3.702844e-06	-7.854473e-09	-2.774762e+01	-5.290962e+02
1.500000e-06	-3.684070e-06	-7.835725e-09	-2.760694e+01	-5.281043e+02
1.510000e-06	-3.665287e-06	-7.821307e-09	-2.746618e+01	-5.271033e+02
1.520000e-06	-3.646465e-06	-7.808772e-09	-2.732513e+01	-5.260921e+02
1.530000e-06	-3.627511e-06	-7.797363e-09	-2.718311e+01	-5.250696e+02
1.540000e-06	-3.608331e-06	-7.782309e-09	-2.703938e+01	-5.240349e+02
1.550000e-06	-3.589038e-06	-7.764177e-09	-2.689480e+01	-5.229870e+02
1.560000e-06	-3.569813e-06	-7.746599e-09	-2.675074e+01	-5.219253e+02
1.570000e-06	-3.550411e-06	-7.729117e-09	-2.660535e+01	-5.208489e+02
1.580000e-06	-3.530785e-06	-7.711264e-09	-2.645828e+01	-5.197570e+02
1.590000e-06	-3.511056e-06	-7.693652e-09	-2.631043e+01	-5.186489e+02
1.600000e-06	-3.491159e-06	-7.679525e-09	-2.616134e+01	-5.175237e+02
1.610000e-06	-3.471219e-06	-7.663577e-09	-2.601192e+01	-5.163806e+02
1.620000e-06	-3.451331e-06	-7.646402e-09	-2.586288e+01	-5.152186e+02
1.630000e-06	-3.431330e-06	-7.627873e-09	-2.571300e+01	-5.140368e+02
1.640000e-06	-3.411192e-06	-7.604573e-09	-2.556210e+01	-5.128341e+02
1.650000e-06	-3.391009e-06	-7.581357e-09	-2.541085e+01	-5.116095e+02
1.660000e-06	-3.370854e-06	-7.561001e-09	-2.525982e+01	-5.103619e+02
1.670000e-06	-3.350674e-06	-7.543900e-09	-2.510860e+01	-5.090903e+02
1.680000e-06	-3.330453e-06	-7.525667e-09	-2.495707e+01	-5.077938e+02
1.690000e-06	-3.310188e-06	-7.506828e-09	-2.480521e+01	-5.064714e+02
1.700000e-06	-3.289840e-06	-7.487273e-09	-2.465273e+01	-5.051224e+02
1.710000e-06	-3.269409e-06	-7.462922e-09	-2.449963e+01	-5.037460e+02
1.720000e-06	-3.248930e-06	-7.437939e-09	-2.434617e+01	-5.023419e+02
1.730000e-06	-3.228419e-06	-7.413775e-09	-2.419247e+01	-5.009096e+02
1.740000e-06	-3.207907e-06	-7.388050e-09	-2.403876e+01	-4.994492e+02
1.750000e-06	-3.187366e-06	-7.360686e-09	-2.388484e+01	-4.979607e+02
1.760000e-06	-3.166813e-06	-7.337253e-09	-2.373082e+01	-4.964445e+02
1.770000e-06	-3.146231e-06	-7.318660e-09	-2.357658e+01	-4.949012e+02
1.780000e-06	-3.125568e-06	-7.300119e-09	-2.342174e+01	-4.933316e+02
1.790000e-06	-3.104851e-06	-7.278263e-09	-2.326650e+01	-4.917367e+02
1.800000e-06	-3.084136e-06	-7.250746e-09	-2.311127e+01	-4.901177e+02
1.810000e-06	-3.063317e-06	-7.223030e-09	-2.295526e+01	-4.884760e+02
1.820000e-06	-3.042333e-06	-7.197241e-09	-2.279802e+01	-4.868132e+02
1.830000e-06	-3.021304e-06	-7.173575e-09	-2.264043e+01	-4.851309e+02
1.840000e-06	-3.000187e-06	-7.148085e-09	-2.248219e+01	-4.834310e+02
1.850000e-06	-2.979012e-06	-7.120638e-09	-2.232351e+01	-4.817152e+02
1.860000e-06	-2.957690e-06	-7.098029e-09	-2.216374e+01	-4.799854e+02
1.870000e-06	-2.936263e-06	-7.077961e-09	-2.200317e+01	-4.782438e+02
1.880000e-06	-2.914754e-06	-7.055748e-09	-2.184199e+01	-4.764921e+02
1.890000e-06	-2.893006e-06	-7.025214e-09	-2.167902e+01	-4.747323e+02
1.900000e-06	-2.871224e-06	-6.992077e-09	-2.151579e+01	-4.729663e+02
1.910000e-06	-2.849460e-06	-6.962812e-09	-2.135270e+01	-4.711959e+02
1.920000e-06	-2.827509e-06	-6.935299e-09	-2.118821e+01	-4.694227e+02
1.930000e-06	-2.805507e-06	-6.907789e-09	-2.102334e+01	-4.676483e+02
1.940000e-06	-2.783538e-06	-6.876515e-09	-2.085871e+01	-4.658740e+02
1.950000e-06	-2.761516e-06	-6.849329e-09	-2.069369e+01	-4.641011e+02
1.960000e-06	-2.739378e-06	-6.826663e-09	-2.052779e+01	-4.623306e+02
1.970000e-06	-2.717118e-06	-6.804766e-09	-2.036099e+01	-4.605633e+02
1.980000e-06	-2.694777e-06	-6.780337e-09	-2.019357e+01	-4.587996e+02
1.990000e-06	-2.672348e-06	-6.752981e-09	-2.002550e+01	-4.570397e+02
2.000000e-06	-2.649926e-06	-6.728438e-09	-1.985748e+01	-4.552837e+02
2.010000e-06	-2.627468e-06	-6.704849e-09	-1.968919e+01	-4.535312e+02
2.020000e-06	-2.604988e-06	-6.681503e-09	-1.952073e+01	-4.517816e+02
2.030000e-06	-2.582545e-06	-6.655669e-09	-1.935255e+01	-4.500339e+02
2.040000e-06	-2.560093e-06	-6.627905e-09	-1.918431e+01	-4.482868e+02
2.050000e-06	-2.537505e-06	-6.601538e-09	-1.901504e+01	-4.465390e+02
2.060000e-06	-2.514746e-06	-6.578138e-09	-1.884449e+01	-4.447887e+02
2.070000e-06	-2.491955e-06	-6.556500e-09	-1.867370e+01	-4.430340e+02
2.080000e-06	-2.469072e-06	-6.531810e-09	-1.850223e+01	-4.412728e+02
2.090000e-06	-2.446131e-06	-6.506174e-09	-1.833032e+01	-4.395030e+02
2.100000e-06	-2.423219e-06	-6.482795e-09	-1.815863e+01	-4.377223e+02
2.110000e-06	-2.400289e-06	-6.458720e-09	-1.798680e+01	-4.359285e+02
2.120000e-06	-2.377305e-06	-6.427792e-09	-1.781456e+01	-4.341194e+02
2.130000e-06	-2.354122e-06	-6.393703e-09	-1.764084e+01	-4.322929e+02
2.140000e-06	-2.330761e-06	-6.367381e-09	-1.746578e+01	-4.304470e+02
2.150000e-06	-2.307380e-06	-6.347962e-09	-1.729057e+01	-4.285801e+02
2.160000e-06	-2.284015e-06	-6.329358e-09	-1.711549e+01	-4.266907e+02
2.170000e-06	-2.260587e-06	-6.305227e-09	-1.693993e+01	-4.247774e+02
2.180000e-06	-2.237116e-06	-6.278241e-09	-1.676404e+01	-4.228393e+02
2.190000e-06	-2.213647e-06	-6.254027e-09	-1.658818e+01	-4.208757e+02
2.200000e-06	-2.190057e-06	-6.228901e-09	-1.641140e+01	-4.188861e+02
2.210000e-06	-2.166249e-06	-6.198105e-09	-1.623300e+01	-4.168704e+02
2.220000e-06	-2.142361e-06	-6.161052e-09	-1.605399e+01	-4.148285e+02
2.230000e-06	-2.118559e-06	-6.126884e-09	-1.587563e+01	-4.127606e+02
2.240000e-06	-2.094711e-06	-6.100939e-09	-1.569692e+01	-4.106670e+02
2.250000e-06	-2.070890e-06	-6.077350e-09	-1.551842e+01	-4.085480e+02
2.260000e-06	-2.047168e-06	-6.052296e-09	-1.534065e+01	-4.064041e+02
2.270000e-06	-2.023267e-06	-6.024984e-09	-1.516155e+01	-4.042356e+02
2.280000e-06	-1.999138e-06	-5.995699e-09	-1.498073e+01	-4.020429e+02
2.290000e-06	-1.974972e-06	-5.963952e-09	-1.479964e+01	-3.998260e+02
2.300000e-06	-1.950821e-06	-5.929328e-09	-1.461867e+01	-3.975852e+02
2.310000e-06	-1.926566e-06	-5.894461e-09	-1.443691e+01	-3.953201e+02
2.320000e-06	-1.902276e-06	-5.862472e-09	-1.425489e+01	-3.930307e+02
2.330000e-06	-1.878047e-06	-5.834040e-09	-1.407332e+01	-3.907165e+02
2.340000e-06	-1.853813e-06	-5.806752e-09	-1.389173e+01	-3.883769e+02
2.350000e-06	-1.829558e-06	-5.777860e-09	-1.370997e+01	-3.860114e+02
2.360000e-06	-1.805250e-06	-5.743992e-09	-1.352782e+01	-3.836192e+02
2.370000e-06	-1.780830e-06	-5.706413e-09	-1.334482e+01	-3.811995e+02
2.380000e-06	-1.756408e-06	-5.669002e-09	-1.316182e+01	-3.787519e+02
2.390000e-06	-1.732023e-06	-5.630845e-09	-1.297908e+01	-3.762756e+02
2.400000e-06	-1.707559e-06	-5.592512e-09	-1.279576e+01	-3.737702e+02
2.410000e-06	-1.683125e-06	-5.554618e-09	-1.261266e+01	-3.712356e+02
2.420000e-06	-1.658769e-06	-5.519207e-09	-1.243014e+01	-3.686718e+02
2.430000e-06	-1.634360e-06	-5.487593e-09	-1.224724e+01	-3.660791e+02
2.440000e-06	-1.609876e-06	-5.456544e-09	-1.206376e+01	-3.634580e+02
2.450000e-06	-1.585325e-06	-5.422781e-09	-1.187979e+01	-3.608095e+02
2.460000e-06	-1.560708e-06	-5.384316e-09	-1.169532e+01	-3.581346e+02
2.470000e-06	-1.536070e-06	-5.343591e-09	-1.151069e+01	-3.554350e+02
2.480000e-06	-1.511431e-06	-5.302844e-09	-1.132605e+01	-3.527122e+02
2.490000e-06	-1.486778e-06	-5.261900e-09	-1.114131e+01	-3.499681e+02
2.500000e-06	-1.462051e-06	-5.220507e-09	-1.095602e+01	-3.472045e+02
2.510000e-06	-1.437228e-06	-5.177970e-09	-1.077001e+01	-3.444236e+02
2.520000e-06	-1.412374e-06	-5.139144e-09	-1.058376e+01	-3.416274e+02
2.530000e-06	-1.387606e-06	-5.105849e-09	-1.039816e+01	-3.388176e+02
2.540000e-06	-1.362921e-06	-5.070152e-09	-1.021318e+01	-3.359961e+02
2.550000e-06	-1.338161e-06	-5.028227e-09	-1.002764e+01	-3.331643e+02
2.560000e-06	-1.313310e-06	-4.983951e-09	-9.841412e+00	-3.303235e+02
2.570000e-06	-1.288352e-06	-4.944098e-09	-9.654387e+00	-3.274746e+02
2.580000e-06	-1.263330e-06	-4.906635e-09	-9.466884e+00	-3.246182e+02
2.590000e-06	-1.238364e-06	-4.867703e-09	-9.279798e+00	-3.217547e+02
2.600000e-06	-1.213329e-06	-4.828865e-09	-9.092201e+00	-3.188838e+02
2.610000e-06	-1.188205e-06	-4.792741e-09	-8.903927e+00	-3.160052e+02
2.620000e-06	-1.163125e-06	-4.759491e-09	-8.715990e+00	-3.131182e+02
2.630000e-06	-1.137961e-06	-4.721525e-09	-8.527420e+00	-3.102218e+02
2.640000e-06	-1.112649e-06	-4.675415e-09	-8.337744e+00	-3.073149e+02
2.650000e-06	-1.087368e-06	-4.625801e-09	-8.148297e+00	-3.043962e+02
2.660000e-06	-1.062168e-06	-4.581181e-09	-7.959457e+00	-3.014644e+02
2.670000e-06	-1.036960e-06	-4.541610e-09	-7.770561e+00	-2.985181e+02
2.680000e-06	-1.011798e-06	-4.500522e-09	-7.582002e+00	-2.955560e+02
2.690000e-06	-9.866376e-07	-4.458936e-09	-7.393464e+00	-2.925768e+02
2.700000e-06	-9.613368e-07	-4.418465e-09	-7.203870e+00	-2.895794e+02
2.710000e-06	-9.359233e-07	-4.377067e-09	-7.013431e+00	-2.865628e+02
2.720000e-06	-9.104774e-07	-4.331716e-09	-6.822750e+00	-2.835261e+02
2.730000e-06	-8.849310e-07	-4.282888e-09	-6.631316e+00	-2.804686e+02
2.740000e-06	-8.593443e-07	-4.231264e-09	-6.439579e+00	-2.773898e+02
2.750000e-06	-8.337640e-07	-4.183292e-09	-6.247891e+00	-2.742893e+02
2.760000e-06	-8.080993e-07	-4.139980e-09	-6.055570e+00	-2.711667e+02
2.770000e-06	-7.823770e-07	-4.097090e-09	-5.862818e+00	-2.680216e+02
2.780000e-06	-7.566046e-07	-4.057461e-09	-5.669690e+00	-2.648538e+02
2.790000e-06	-7.309600e-07	-4.016964e-09	-5.477519e+00	-2.616627e+02
2.800000e-06	-7.053979e-07	-3.978554e-09	-5.285967e+00	-2.584480e+02
2.810000e-06	-6.797770e-07	-3.934920e-09	-5.093975e+00	-2.552088e+02
2.820000e-06	-6.540548e-07	-3.878314e-09	-4.901223e+00	-2.519445e+02
2.830000e-06	-6.283041e-07	-3.816836e-09	-4.708257e+00	-2.486539e+02
2.840000e-06	-6.026357e-07	-3.757186e-09	-4.515909e+00	-2.453359e+02
2.850000e-06	-5.769147e-07	-3.708985e-09	-4.323166e+00	-2.419890e+02
