# Temperatura_=_20.0
# Concentracion g/m^3_=_10000.0
# C_Vs_to_Am_M_A/Vsm_=_65563218390.804596
# pendiente_HvsI_1/m_=_3716.3
# ordenada_HvsI_A/m_=_1297.0
# frecuencia_Hz_=_81175.25557552025

Tiempo_(s)	Campo_(V.s)	Magnetizacion_(V.s)	Campo_(kA/m)	Magnetizacion_(A/m)
0.000000e+00	-5.146935e-06	-1.041361e-10	-3.844919e+01	-3.747686e+00
1.000000e-08	-5.147053e-06	-1.229639e-10	-3.845007e+01	-3.979431e+00
2.000000e-08	-5.146998e-06	-1.152247e-10	-3.844966e+01	-4.210489e+00
3.000000e-08	-5.146901e-06	-1.805077e-10	-3.844893e+01	-4.436789e+00
4.000000e-08	-5.146748e-06	-1.927217e-10	-3.844779e+01	-4.654141e+00
5.000000e-08	-5.146481e-06	-1.370762e-10	-3.844580e+01	-4.858407e+00
6.000000e-08	-5.146131e-06	-1.148765e-10	-3.844318e+01	-5.045676e+00
7.000000e-08	-5.145697e-06	1.792696e-11	-3.843994e+01	-5.212437e+00
8.000000e-08	-5.145212e-06	5.983309e-11	-3.843631e+01	-5.355728e+00
9.000000e-08	-5.144626e-06	2.022956e-10	-3.843194e+01	-5.473268e+00
1.000000e-07	-5.143920e-06	2.245045e-10	-3.842667e+01	-5.563565e+00
1.100000e-07	-5.143077e-06	4.103350e-11	-3.842036e+01	-5.625976e+00
1.200000e-07	-5.142213e-06	-6.504367e-12	-3.841392e+01	-5.660749e+00
1.300000e-07	-5.141279e-06	-1.754582e-10	-3.840694e+01	-5.669008e+00
1.400000e-07	-5.140126e-06	-2.125955e-10	-3.839832e+01	-5.652712e+00
1.500000e-07	-5.138679e-06	-2.505663e-10	-3.838752e+01	-5.614576e+00
1.600000e-07	-5.136950e-06	-2.266083e-10	-3.837459e+01	-5.557955e+00
1.700000e-07	-5.135072e-06	-8.280111e-11	-3.836057e+01	-5.486706e+00
1.800000e-07	-5.132974e-06	-5.239795e-11	-3.834489e+01	-5.405033e+00
1.900000e-07	-5.130739e-06	9.288461e-11	-3.832820e+01	-5.317310e+00
2.000000e-07	-5.128284e-06	9.406680e-11	-3.830986e+01	-5.227915e+00
2.100000e-07	-5.125661e-06	6.357139e-11	-3.829026e+01	-5.141052e+00
2.200000e-07	-5.122796e-06	-2.684609e-11	-3.826886e+01	-5.060600e+00
2.300000e-07	-5.119605e-06	-7.059851e-11	-3.824502e+01	-4.989971e+00
2.400000e-07	-5.116374e-06	3.652270e-11	-3.822089e+01	-4.931996e+00
2.500000e-07	-5.112958e-06	-5.139308e-11	-3.819537e+01	-4.888844e+00
2.600000e-07	-5.109235e-06	-7.986627e-11	-3.816756e+01	-4.861969e+00
2.700000e-07	-5.105344e-06	-8.338189e-11	-3.813849e+01	-4.852095e+00
2.800000e-07	-5.101341e-06	1.573361e-11	-3.810858e+01	-4.859229e+00
2.900000e-07	-5.097248e-06	1.288390e-11	-3.807801e+01	-4.882713e+00
3.000000e-07	-5.093139e-06	-8.158014e-11	-3.804731e+01	-4.921298e+00
3.100000e-07	-5.088990e-06	-3.312579e-11	-3.801632e+01	-4.973244e+00
3.200000e-07	-5.084741e-06	-4.042068e-11	-3.798458e+01	-5.036436e+00
3.300000e-07	-5.080407e-06	2.895321e-12	-3.795221e+01	-5.108512e+00
3.400000e-07	-5.076011e-06	-4.552468e-11	-3.791937e+01	-5.186993e+00
3.500000e-07	-5.071591e-06	-5.756044e-11	-3.788634e+01	-5.269415e+00
3.600000e-07	-5.067043e-06	-6.735973e-11	-3.785237e+01	-5.353445e+00
3.700000e-07	-5.062340e-06	-8.553034e-11	-3.781724e+01	-5.436985e+00
3.800000e-07	-5.057592e-06	-5.438031e-12	-3.778177e+01	-5.518263e+00
3.900000e-07	-5.052661e-06	-3.311378e-11	-3.774493e+01	-5.595889e+00
4.000000e-07	-5.047647e-06	-2.956207e-11	-3.770748e+01	-5.668901e+00
4.100000e-07	-5.042599e-06	-4.030074e-11	-3.766976e+01	-5.736768e+00
4.200000e-07	-5.037346e-06	2.739660e-12	-3.763053e+01	-5.799387e+00
4.300000e-07	-5.031902e-06	4.996969e-12	-3.758985e+01	-5.857042e+00
4.400000e-07	-5.026289e-06	-7.592433e-11	-3.754793e+01	-5.910351e+00
4.500000e-07	-5.020530e-06	-7.160219e-11	-3.750490e+01	-5.960198e+00
4.600000e-07	-5.014653e-06	-8.217442e-11	-3.746100e+01	-6.007646e+00
4.700000e-07	-5.008717e-06	-3.114866e-11	-3.741665e+01	-6.053857e+00
4.800000e-07	-5.002659e-06	-4.495508e-11	-3.737140e+01	-6.099995e+00
4.900000e-07	-4.996387e-06	-6.211479e-11	-3.732455e+01	-6.147148e+00
5.000000e-07	-4.989937e-06	-4.680529e-11	-3.727637e+01	-6.196249e+00
5.100000e-07	-4.983426e-06	-4.139808e-11	-3.722772e+01	-6.248012e+00
5.200000e-07	-4.976863e-06	-1.852207e-11	-3.717870e+01	-6.302882e+00
5.300000e-07	-4.970164e-06	-8.711320e-11	-3.712865e+01	-6.361007e+00
5.400000e-07	-4.963302e-06	-9.009410e-11	-3.707739e+01	-6.422218e+00
5.500000e-07	-4.956289e-06	-6.659691e-11	-3.702500e+01	-6.486034e+00
5.600000e-07	-4.949147e-06	-3.987904e-11	-3.697165e+01	-6.551687e+00
5.700000e-07	-4.941860e-06	-3.768160e-11	-3.691722e+01	-6.618147e+00
5.800000e-07	-4.934433e-06	-6.940463e-11	-3.686173e+01	-6.684177e+00
5.900000e-07	-4.926891e-06	-3.640385e-11	-3.680539e+01	-6.748382e+00
6.000000e-07	-4.919264e-06	-3.699656e-11	-3.674842e+01	-6.809273e+00
6.100000e-07	-4.911517e-06	-3.192325e-11	-3.669054e+01	-6.865327e+00
6.200000e-07	-4.903665e-06	-6.539760e-11	-3.663189e+01	-6.915045e+00
6.300000e-07	-4.895675e-06	-8.164732e-11	-3.657220e+01	-6.957015e+00
6.400000e-07	-4.887542e-06	-5.558319e-11	-3.651144e+01	-6.989951e+00
6.500000e-07	-4.879393e-06	-5.516937e-11	-3.645056e+01	-7.012738e+00
6.600000e-07	-4.871196e-06	-4.474634e-11	-3.638933e+01	-7.024458e+00
6.700000e-07	-4.862898e-06	-7.581224e-11	-3.632734e+01	-7.024407e+00
6.800000e-07	-4.854499e-06	-6.008356e-11	-3.626460e+01	-7.012102e+00
6.900000e-07	-4.846081e-06	-4.109047e-11	-3.620172e+01	-6.987280e+00
7.000000e-07	-4.837598e-06	-3.809740e-11	-3.613834e+01	-6.949880e+00
7.100000e-07	-4.828984e-06	-4.473968e-11	-3.607400e+01	-6.900030e+00
7.200000e-07	-4.820246e-06	-7.208898e-11	-3.600872e+01	-6.838019e+00
7.300000e-07	-4.811387e-06	-4.602773e-11	-3.594254e+01	-6.764276e+00
7.400000e-07	-4.802374e-06	-4.517622e-11	-3.587521e+01	-6.679339e+00
7.500000e-07	-4.793272e-06	-5.119928e-11	-3.580722e+01	-6.583833e+00
7.600000e-07	-4.784053e-06	-6.913850e-11	-3.573835e+01	-6.478452e+00
7.700000e-07	-4.774689e-06	-6.271164e-11	-3.566839e+01	-6.363940e+00
7.800000e-07	-4.765116e-06	-3.191161e-11	-3.559688e+01	-6.241080e+00
7.900000e-07	-4.755213e-06	-4.102704e-11	-3.552290e+01	-6.110696e+00
8.000000e-07	-4.745108e-06	-4.110774e-11	-3.544742e+01	-5.973646e+00
8.100000e-07	-4.734764e-06	-5.419024e-11	-3.537014e+01	-5.830836e+00
8.200000e-07	-4.724237e-06	-4.094130e-11	-3.529150e+01	-5.683225e+00
8.300000e-07	-4.713598e-06	-3.569034e-11	-3.521203e+01	-5.531837e+00
8.400000e-07	-4.702711e-06	-4.596957e-11	-3.513070e+01	-5.377776e+00
8.500000e-07	-4.691608e-06	-4.536224e-11	-3.504776e+01	-5.222234e+00
8.600000e-07	-4.680319e-06	-4.743246e-11	-3.496342e+01	-5.066498e+00
8.700000e-07	-4.668831e-06	-1.737974e-11	-3.487760e+01	-4.911959e+00
8.800000e-07	-4.657168e-06	-1.186979e-11	-3.479048e+01	-4.760099e+00
8.900000e-07	-4.645368e-06	-1.500309e-11	-3.470233e+01	-4.612489e+00
9.000000e-07	-4.633418e-06	-2.315344e-11	-3.461306e+01	-4.470768e+00
9.100000e-07	-4.621401e-06	-2.432354e-11	-3.452329e+01	-4.336624e+00
9.200000e-07	-4.609403e-06	-1.676523e-11	-3.443366e+01	-4.211754e+00
9.300000e-07	-4.597187e-06	-3.527448e-11	-3.434240e+01	-4.097838e+00
9.400000e-07	-4.584662e-06	-3.810187e-11	-3.424884e+01	-3.996492e+00
9.500000e-07	-4.572091e-06	-3.684227e-11	-3.415493e+01	-3.909230e+00
9.600000e-07	-4.559586e-06	-1.589795e-11	-3.406151e+01	-3.837419e+00
9.700000e-07	-4.547010e-06	-6.732846e-12	-3.396756e+01	-3.782238e+00
9.800000e-07	-4.534272e-06	-1.428208e-11	-3.387241e+01	-3.744641e+00
9.900000e-07	-4.521423e-06	-1.089050e-11	-3.377642e+01	-3.725327e+00
1.000000e-06	-4.508472e-06	-1.596967e-11	-3.367967e+01	-3.724711e+00
1.010000e-06	-4.495339e-06	-1.320661e-11	-3.358157e+01	-3.742909e+00
1.020000e-06	-4.482022e-06	-2.790493e-11	-3.348208e+01	-3.779734e+00
1.030000e-06	-4.468596e-06	-3.249850e-11	-3.338179e+01	-3.834692e+00
1.040000e-06	-4.455110e-06	-2.720086e-11	-3.328104e+01	-3.906995e+00
1.050000e-06	-4.441406e-06	-2.608416e-11	-3.317867e+01	-3.995583e+00
1.060000e-06	-4.427561e-06	-2.077227e-11	-3.307524e+01	-4.099147e+00
1.070000e-06	-4.413735e-06	-3.008318e-11	-3.297196e+01	-4.216167e+00
1.080000e-06	-4.399712e-06	-2.966204e-11	-3.286720e+01	-4.344948e+00
1.090000e-06	-4.385469e-06	-3.338855e-11	-3.276081e+01	-4.483662e+00
1.100000e-06	-4.371161e-06	-3.602244e-11	-3.265392e+01	-4.630392e+00
1.110000e-06	-4.356820e-06	-4.286805e-11	-3.254679e+01	-4.783175e+00
1.120000e-06	-4.342388e-06	-5.163042e-11	-3.243897e+01	-4.940039e+00
1.130000e-06	-4.327911e-06	-4.671893e-11	-3.233082e+01	-5.099048e+00
1.140000e-06	-4.313335e-06	-4.820946e-11	-3.222194e+01	-5.258326e+00
1.150000e-06	-4.298563e-06	-4.641732e-11	-3.211159e+01	-5.416092e+00
1.160000e-06	-4.283595e-06	-5.334780e-11	-3.199978e+01	-5.570679e+00
1.170000e-06	-4.268399e-06	-5.567893e-11	-3.188625e+01	-5.720551e+00
1.180000e-06	-4.253165e-06	-5.526310e-11	-3.177245e+01	-5.864315e+00
1.190000e-06	-4.237834e-06	-6.081499e-11	-3.165792e+01	-6.000726e+00
1.200000e-06	-4.222182e-06	-6.465507e-11	-3.154100e+01	-6.128691e+00
1.210000e-06	-4.206373e-06	-7.508309e-11	-3.142290e+01	-6.247267e+00
1.220000e-06	-4.190514e-06	-7.472742e-11	-3.130443e+01	-6.355657e+00
1.230000e-06	-4.174363e-06	-7.528480e-11	-3.118378e+01	-6.453207e+00
1.240000e-06	-4.157931e-06	-7.422171e-11	-3.106102e+01	-6.539397e+00
1.250000e-06	-4.141394e-06	-7.245361e-11	-3.093749e+01	-6.613837e+00
1.260000e-06	-4.124871e-06	-7.484038e-11	-3.081406e+01	-6.676261e+00
1.270000e-06	-4.108297e-06	-7.312902e-11	-3.069024e+01	-6.726525e+00
1.280000e-06	-4.091462e-06	-7.758133e-11	-3.056448e+01	-6.764599e+00
1.290000e-06	-4.074498e-06	-7.919106e-11	-3.043776e+01	-6.790563e+00
1.300000e-06	-4.057538e-06	-8.433041e-11	-3.031106e+01	-6.804609e+00
1.310000e-06	-4.040493e-06	-8.398910e-11	-3.018372e+01	-6.807032e+00
1.320000e-06	-4.023342e-06	-7.831808e-11	-3.005560e+01	-6.798229e+00
1.330000e-06	-4.005959e-06	-7.599494e-11	-2.992575e+01	-6.778689e+00
1.340000e-06	-3.988450e-06	-7.152037e-11	-2.979495e+01	-6.748992e+00
1.350000e-06	-3.970927e-06	-7.373675e-11	-2.966405e+01	-6.709791e+00
1.360000e-06	-3.953373e-06	-7.264399e-11	-2.953291e+01	-6.661808e+00
1.370000e-06	-3.935791e-06	-7.245138e-11	-2.940157e+01	-6.605814e+00
1.380000e-06	-3.918130e-06	-7.293059e-11	-2.926963e+01	-6.542614e+00
1.390000e-06	-3.900359e-06	-7.484356e-11	-2.913689e+01	-6.473028e+00
1.400000e-06	-3.882456e-06	-8.108287e-11	-2.900314e+01	-6.397874e+00
1.410000e-06	-3.864509e-06	-8.278050e-11	-2.886907e+01	-6.317947e+00
1.420000e-06	-3.846578e-06	-8.568681e-11	-2.873512e+01	-6.234001e+00
1.430000e-06	-3.828581e-06	-8.302108e-11	-2.860068e+01	-6.146735e+00
1.440000e-06	-3.810398e-06	-7.885602e-11	-2.846485e+01	-6.056776e+00
1.450000e-06	-3.792152e-06	-7.456335e-11	-2.832854e+01	-5.964672e+00
1.460000e-06	-3.773948e-06	-6.998942e-11	-2.819255e+01	-5.870892e+00
1.470000e-06	-3.755600e-06	-6.892620e-11	-2.805548e+01	-5.775818e+00
1.480000e-06	-3.736998e-06	-6.788017e-11	-2.791652e+01	-5.679763e+00
1.490000e-06	-3.718349e-06	-7.325296e-11	-2.777721e+01	-5.582976e+00
1.500000e-06	-3.699692e-06	-7.723328e-11	-2.763783e+01	-5.485660e+00
1.510000e-06	-3.680924e-06	-7.775702e-11	-2.749764e+01	-5.387999e+00
1.520000e-06	-3.662011e-06	-7.276025e-11	-2.735635e+01	-5.290177e+00
1.530000e-06	-3.642895e-06	-6.552064e-11	-2.721355e+01	-5.192411e+00
1.540000e-06	-3.623686e-06	-6.326807e-11	-2.707005e+01	-5.094970e+00
1.550000e-06	-3.604327e-06	-6.118889e-11	-2.692543e+01	-4.998208e+00
1.560000e-06	-3.584780e-06	-6.258677e-11	-2.677941e+01	-4.902581e+00
1.570000e-06	-3.565237e-06	-6.404503e-11	-2.663342e+01	-4.808667e+00
1.580000e-06	-3.545590e-06	-6.803341e-11	-2.648665e+01	-4.717171e+00
1.590000e-06	-3.525740e-06	-7.011957e-11	-2.633836e+01	-4.628935e+00
1.600000e-06	-3.505890e-06	-6.781744e-11	-2.619008e+01	-4.544924e+00
1.610000e-06	-3.486077e-06	-6.507282e-11	-2.604207e+01	-4.466219e+00
1.620000e-06	-3.466134e-06	-5.748013e-11	-2.589309e+01	-4.393987e+00
1.630000e-06	-3.446045e-06	-5.509460e-11	-2.574301e+01	-4.329453e+00
1.640000e-06	-3.425864e-06	-5.307649e-11	-2.559226e+01	-4.273862e+00
1.650000e-06	-3.405671e-06	-5.105992e-11	-2.544141e+01	-4.228431e+00
1.660000e-06	-3.385471e-06	-5.146376e-11	-2.529051e+01	-4.194307e+00
1.670000e-06	-3.365246e-06	-5.182603e-11	-2.513942e+01	-4.172513e+00
1.680000e-06	-3.344960e-06	-5.585472e-11	-2.498788e+01	-4.163905e+00
1.690000e-06	-3.324580e-06	-5.827525e-11	-2.483563e+01	-4.169124e+00
1.700000e-06	-3.304209e-06	-6.042192e-11	-2.468346e+01	-4.188557e+00
1.710000e-06	-3.283879e-06	-5.776638e-11	-2.453158e+01	-4.222310e+00
1.720000e-06	-3.263506e-06	-5.427967e-11	-2.437939e+01	-4.270181e+00
1.730000e-06	-3.243055e-06	-5.162861e-11	-2.422662e+01	-4.331652e+00
1.740000e-06	-3.222538e-06	-4.880114e-11	-2.407335e+01	-4.405889e+00
1.750000e-06	-3.202013e-06	-5.095746e-11	-2.392003e+01	-4.491754e+00
1.760000e-06	-3.181426e-06	-5.306119e-11	-2.376623e+01	-4.587826e+00
1.770000e-06	-3.160749e-06	-5.836407e-11	-2.361177e+01	-4.692437e+00
1.780000e-06	-3.139999e-06	-6.230596e-11	-2.345676e+01	-4.803716e+00
1.790000e-06	-3.119152e-06	-6.359706e-11	-2.330103e+01	-4.919635e+00
1.800000e-06	-3.098265e-06	-6.270614e-11	-2.314499e+01	-5.038065e+00
1.810000e-06	-3.077277e-06	-6.024644e-11	-2.298821e+01	-5.156835e+00
1.820000e-06	-3.056138e-06	-6.082886e-11	-2.283029e+01	-5.273787e+00
1.830000e-06	-3.035006e-06	-6.032366e-11	-2.267243e+01	-5.386832e+00
1.840000e-06	-3.013832e-06	-6.290244e-11	-2.251425e+01	-5.494000e+00
1.850000e-06	-2.992378e-06	-6.507654e-11	-2.235398e+01	-5.593485e+00
1.860000e-06	-2.970848e-06	-7.079188e-11	-2.219315e+01	-5.683677e+00
1.870000e-06	-2.949331e-06	-7.673934e-11	-2.203241e+01	-5.763191e+00
1.880000e-06	-2.927692e-06	-7.529014e-11	-2.187076e+01	-5.830884e+00
1.890000e-06	-2.905998e-06	-7.059961e-11	-2.170870e+01	-5.885859e+00
1.900000e-06	-2.884243e-06	-6.383183e-11	-2.154618e+01	-5.927463e+00
1.910000e-06	-2.862445e-06	-6.239433e-11	-2.138334e+01	-5.955277e+00
1.920000e-06	-2.840585e-06	-6.135980e-11	-2.122004e+01	-5.969095e+00
1.930000e-06	-2.818599e-06	-6.195175e-11	-2.105580e+01	-5.968902e+00
1.940000e-06	-2.796525e-06	-6.485316e-11	-2.089090e+01	-5.954847e+00
1.950000e-06	-2.774420e-06	-6.964387e-11	-2.072577e+01	-5.927213e+00
1.960000e-06	-2.752266e-06	-7.414850e-11	-2.056028e+01	-5.886388e+00
1.970000e-06	-2.729964e-06	-6.959508e-11	-2.039367e+01	-5.832841e+00
1.980000e-06	-2.707518e-06	-6.457434e-11	-2.022599e+01	-5.767095e+00
1.990000e-06	-2.685080e-06	-6.129605e-11	-2.005838e+01	-5.689714e+00
2.000000e-06	-2.662657e-06	-5.887191e-11	-1.989087e+01	-5.601289e+00
2.010000e-06	-2.640176e-06	-5.606579e-11	-1.972293e+01	-5.502426e+00
2.020000e-06	-2.617620e-06	-5.104879e-11	-1.955442e+01	-5.393755e+00
2.030000e-06	-2.595064e-06	-4.971867e-11	-1.938593e+01	-5.275925e+00
2.040000e-06	-2.572455e-06	-5.035526e-11	-1.921703e+01	-5.149617e+00
2.050000e-06	-2.549782e-06	-5.125501e-11	-1.904766e+01	-5.015554e+00
2.060000e-06	-2.527068e-06	-4.949919e-11	-1.887798e+01	-4.874512e+00
2.070000e-06	-2.504142e-06	-4.587325e-11	-1.870671e+01	-4.727335e+00
2.080000e-06	-2.481156e-06	-4.215867e-11	-1.853500e+01	-4.574944e+00
2.090000e-06	-2.458240e-06	-3.760252e-11	-1.836381e+01	-4.418345e+00
2.100000e-06	-2.435361e-06	-3.232106e-11	-1.819290e+01	-4.258634e+00
2.110000e-06	-2.412344e-06	-2.561843e-11	-1.802095e+01	-4.096989e+00
2.120000e-06	-2.389142e-06	-2.429590e-11	-1.784763e+01	-3.934673e+00
2.130000e-06	-2.365941e-06	-2.672897e-11	-1.767430e+01	-3.773010e+00
2.140000e-06	-2.342659e-06	-3.142350e-11	-1.750038e+01	-3.613373e+00
2.150000e-06	-2.319233e-06	-3.323160e-11	-1.732538e+01	-3.457157e+00
2.160000e-06	-2.295729e-06	-2.577812e-11	-1.714980e+01	-3.305755e+00
2.170000e-06	-2.272189e-06	-1.805724e-11	-1.697395e+01	-3.160521e+00
2.180000e-06	-2.248602e-06	-1.361401e-11	-1.679775e+01	-3.022750e+00
2.190000e-06	-2.224881e-06	-1.193427e-11	-1.662054e+01	-2.893637e+00
2.200000e-06	-2.201124e-06	-1.037084e-11	-1.644308e+01	-2.774257e+00
2.210000e-06	-2.177407e-06	-1.036958e-11	-1.626590e+01	-2.665538e+00
2.220000e-06	-2.153599e-06	-1.199359e-11	-1.608805e+01	-2.568244e+00
2.230000e-06	-2.129596e-06	-1.163233e-11	-1.590873e+01	-2.482961e+00
2.240000e-06	-2.105505e-06	-9.012593e-12	-1.572877e+01	-2.410093e+00
2.250000e-06	-2.081449e-06	-2.586047e-12	-1.554906e+01	-2.349862e+00
2.260000e-06	-2.057383e-06	8.730145e-13	-1.536929e+01	-2.302320e+00
2.270000e-06	-2.033370e-06	6.908620e-13	-1.518990e+01	-2.267359e+00
2.280000e-06	-2.009352e-06	1.084521e-13	-1.501048e+01	-2.244735e+00
2.290000e-06	-1.985298e-06	-1.541574e-12	-1.483079e+01	-2.234089e+00
2.300000e-06	-1.961157e-06	-5.367201e-12	-1.465045e+01	-2.234975e+00
2.310000e-06	-1.936983e-06	-9.749962e-12	-1.446986e+01	-2.246884e+00
2.320000e-06	-1.912801e-06	-1.185837e-11	-1.428921e+01	-2.269274e+00
2.330000e-06	-1.888567e-06	-1.299708e-11	-1.410818e+01	-2.301588e+00
2.340000e-06	-1.864250e-06	-9.585691e-12	-1.392652e+01	-2.343275e+00
2.350000e-06	-1.839840e-06	-3.243624e-12	-1.374417e+01	-2.393806e+00
2.360000e-06	-1.815478e-06	3.424939e-13	-1.356218e+01	-2.452676e+00
2.370000e-06	-1.791140e-06	-7.561225e-13	-1.338037e+01	-2.519407e+00
2.380000e-06	-1.766749e-06	-6.428501e-12	-1.319816e+01	-2.593547e+00
2.390000e-06	-1.742304e-06	-1.377161e-11	-1.301555e+01	-2.674651e+00
2.400000e-06	-1.717862e-06	-2.162589e-11	-1.283296e+01	-2.762271e+00
2.410000e-06	-1.693475e-06	-2.630412e-11	-1.265078e+01	-2.855935e+00
2.420000e-06	-1.669070e-06	-2.532831e-11	-1.246847e+01	-2.955122e+00
2.430000e-06	-1.644613e-06	-1.727817e-11	-1.228576e+01	-3.059247e+00
2.440000e-06	-1.620087e-06	-6.753531e-12	-1.210254e+01	-3.167633e+00
2.450000e-06	-1.595515e-06	-4.073574e-12	-1.191898e+01	-3.279503e+00
2.460000e-06	-1.570962e-06	-9.778990e-12	-1.173557e+01	-3.393958e+00
2.470000e-06	-1.546352e-06	-2.044369e-11	-1.155172e+01	-3.509980e+00
2.480000e-06	-1.521643e-06	-2.997492e-11	-1.136714e+01	-3.626429e+00
2.490000e-06	-1.496894e-06	-3.616998e-11	-1.118226e+01	-3.742054e+00
2.500000e-06	-1.472155e-06	-3.869341e-11	-1.099745e+01	-3.855509e+00
2.510000e-06	-1.447388e-06	-3.678307e-11	-1.081244e+01	-3.965376e+00
2.520000e-06	-1.422505e-06	-3.223247e-11	-1.062655e+01	-4.070198e+00
2.530000e-06	-1.397556e-06	-2.667302e-11	-1.044017e+01	-4.168513e+00
2.540000e-06	-1.372664e-06	-2.497530e-11	-1.025422e+01	-4.258893e+00
2.550000e-06	-1.347802e-06	-2.903262e-11	-1.006850e+01	-4.339984e+00
2.560000e-06	-1.322901e-06	-3.476853e-11	-9.882474e+00	-4.410546e+00
2.570000e-06	-1.297970e-06	-3.811835e-11	-9.696232e+00	-4.469491e+00
2.580000e-06	-1.273059e-06	-4.041617e-11	-9.510141e+00	-4.515915e+00
2.590000e-06	-1.248075e-06	-4.185259e-11	-9.323505e+00	-4.549123e+00
2.600000e-06	-1.223012e-06	-4.093743e-11	-9.136277e+00	-4.568648e+00
2.610000e-06	-1.197955e-06	-3.770157e-11	-8.949095e+00	-4.574265e+00
2.620000e-06	-1.172849e-06	-3.355051e-11	-8.761540e+00	-4.565986e+00
2.630000e-06	-1.147576e-06	-3.247068e-11	-8.572745e+00	-4.544058e+00
2.640000e-06	-1.122287e-06	-3.538816e-11	-8.383832e+00	-4.508945e+00
2.650000e-06	-1.096986e-06	-3.895686e-11	-8.194826e+00	-4.461300e+00
2.660000e-06	-1.071623e-06	-4.154912e-11	-8.005353e+00	-4.401945e+00
2.670000e-06	-1.046371e-06	-4.261878e-11	-7.816711e+00	-4.331828e+00
2.680000e-06	-1.021048e-06	-4.088729e-11	-7.627544e+00	-4.251993e+00
2.690000e-06	-9.955787e-07	-3.583044e-11	-7.437279e+00	-4.163541e+00
2.700000e-06	-9.701488e-07	-3.092164e-11	-7.247310e+00	-4.067599e+00
2.710000e-06	-9.446996e-07	-2.860422e-11	-7.057197e+00	-3.965282e+00
2.720000e-06	-9.190886e-07	-2.915491e-11	-6.865875e+00	-3.857677e+00
2.730000e-06	-8.934510e-07	-3.254009e-11	-6.674354e+00	-3.745815e+00
2.740000e-06	-8.677767e-07	-3.634735e-11	-6.482559e+00	-3.630667e+00
2.750000e-06	-8.419469e-07	-3.916867e-11	-6.289603e+00	-3.513130e+00
2.760000e-06	-8.161417e-07	-3.838771e-11	-6.096829e+00	-3.394039e+00
2.770000e-06	-7.903716e-07	-3.478615e-11	-5.904319e+00	-3.274169e+00
2.780000e-06	-7.644755e-07	-2.967743e-11	-5.710867e+00	-3.154252e+00
2.790000e-06	-7.385004e-07	-2.331224e-11	-5.516825e+00	-3.034997e+00
2.800000e-06	-7.126201e-07	-1.853501e-11	-5.323492e+00	-2.917105e+00
2.810000e-06	-6.867713e-07	-1.735788e-11	-5.130393e+00	-2.801295e+00
2.820000e-06	-6.608894e-07	-2.245704e-11	-4.937047e+00	-2.688318e+00
2.830000e-06	-6.349343e-07	-3.053419e-11	-4.743154e+00	-2.578974e+00
2.840000e-06	-6.088307e-07	-3.475850e-11	-4.548152e+00	-2.474123e+00
2.850000e-06	-5.827818e-07	-3.232294e-11	-4.353559e+00	-2.374685e+00
