# Temperatura_=_20.0
# Concentracion g/m^3_=_10000.0
# C_Vs_to_Am_M_A/Vsm_=_65563218390.804596
# pendiente_HvsI_1/m_=_3716.3
# ordenada_HvsI_A/m_=_1297.0
# frecuencia_Hz_=_81184.41776642547

Tiempo_(s)	Campo_(V.s)	Magnetizacion_(V.s)	Campo_(kA/m)	Magnetizacion_(A/m)
0.000000e+00	-5.130436e-06	-9.297748e-09	-3.844109e+01	-6.091592e+02
1.000000e-08	-5.130553e-06	-9.259657e-09	-3.844197e+01	-6.089788e+02
2.000000e-08	-5.130589e-06	-9.210545e-09	-3.844224e+01	-6.087902e+02
3.000000e-08	-5.130655e-06	-9.179373e-09	-3.844274e+01	-6.085968e+02
4.000000e-08	-5.130623e-06	-9.194990e-09	-3.844249e+01	-6.084022e+02
5.000000e-08	-5.130420e-06	-9.360416e-09	-3.844097e+01	-6.082105e+02
6.000000e-08	-5.130125e-06	-9.499553e-09	-3.843876e+01	-6.080254e+02
7.000000e-08	-5.129828e-06	-9.425130e-09	-3.843654e+01	-6.078509e+02
8.000000e-08	-5.129485e-06	-9.452735e-09	-3.843397e+01	-6.076903e+02
9.000000e-08	-5.129067e-06	-9.483392e-09	-3.843083e+01	-6.075470e+02
1.000000e-07	-5.128472e-06	-9.281589e-09	-3.842638e+01	-6.074236e+02
1.100000e-07	-5.127780e-06	-9.188300e-09	-3.842119e+01	-6.073222e+02
1.200000e-07	-5.126988e-06	-9.154270e-09	-3.841525e+01	-6.072442e+02
1.300000e-07	-5.126001e-06	-9.096697e-09	-3.840786e+01	-6.071902e+02
1.400000e-07	-5.124911e-06	-9.185616e-09	-3.839969e+01	-6.071601e+02
1.500000e-07	-5.123568e-06	-9.291811e-09	-3.838963e+01	-6.071530e+02
1.600000e-07	-5.121998e-06	-9.409800e-09	-3.837786e+01	-6.071672e+02
1.700000e-07	-5.120156e-06	-9.318493e-09	-3.836407e+01	-6.072006e+02
1.800000e-07	-5.118118e-06	-9.213217e-09	-3.834879e+01	-6.072500e+02
1.900000e-07	-5.115952e-06	-9.316975e-09	-3.833257e+01	-6.073122e+02
2.000000e-07	-5.113482e-06	-9.352444e-09	-3.831406e+01	-6.073833e+02
2.100000e-07	-5.110838e-06	-9.275583e-09	-3.829425e+01	-6.074594e+02
2.200000e-07	-5.107981e-06	-9.180092e-09	-3.827284e+01	-6.075364e+02
2.300000e-07	-5.104838e-06	-9.311376e-09	-3.824930e+01	-6.076105e+02
2.400000e-07	-5.101545e-06	-9.399299e-09	-3.822462e+01	-6.076778e+02
2.500000e-07	-5.098103e-06	-9.264526e-09	-3.819883e+01	-6.077349e+02
2.600000e-07	-5.094613e-06	-9.216420e-09	-3.817268e+01	-6.077789e+02
2.700000e-07	-5.090969e-06	-9.266068e-09	-3.814537e+01	-6.078072e+02
2.800000e-07	-5.087048e-06	-9.297665e-09	-3.811599e+01	-6.078181e+02
2.900000e-07	-5.083018e-06	-9.238206e-09	-3.808580e+01	-6.078101e+02
3.000000e-07	-5.078930e-06	-9.270215e-09	-3.805517e+01	-6.077826e+02
3.100000e-07	-5.074795e-06	-9.327633e-09	-3.802419e+01	-6.077353e+02
3.200000e-07	-5.070590e-06	-9.227210e-09	-3.799268e+01	-6.076685e+02
3.300000e-07	-5.066306e-06	-9.222629e-09	-3.796058e+01	-6.075829e+02
3.400000e-07	-5.061936e-06	-9.306023e-09	-3.792784e+01	-6.074796e+02
3.500000e-07	-5.057523e-06	-9.289906e-09	-3.789477e+01	-6.073595e+02
3.600000e-07	-5.053012e-06	-9.155110e-09	-3.786097e+01	-6.072241e+02
3.700000e-07	-5.048411e-06	-9.209053e-09	-3.782650e+01	-6.070745e+02
3.800000e-07	-5.043828e-06	-9.366284e-09	-3.779216e+01	-6.069118e+02
3.900000e-07	-5.039085e-06	-9.270595e-09	-3.775662e+01	-6.067369e+02
4.000000e-07	-5.034218e-06	-9.154192e-09	-3.772015e+01	-6.065505e+02
4.100000e-07	-5.029229e-06	-9.213732e-09	-3.768277e+01	-6.063527e+02
4.200000e-07	-5.024109e-06	-9.299638e-09	-3.764441e+01	-6.061434e+02
4.300000e-07	-5.018874e-06	-9.210904e-09	-3.760519e+01	-6.059223e+02
4.400000e-07	-5.013402e-06	-9.165811e-09	-3.756418e+01	-6.056885e+02
4.500000e-07	-5.007782e-06	-9.245731e-09	-3.752208e+01	-6.054409e+02
4.600000e-07	-5.002038e-06	-9.228853e-09	-3.747903e+01	-6.051782e+02
4.700000e-07	-4.996095e-06	-9.202066e-09	-3.743451e+01	-6.048988e+02
4.800000e-07	-4.990004e-06	-9.211141e-09	-3.738887e+01	-6.046013e+02
4.900000e-07	-4.983831e-06	-9.201272e-09	-3.734262e+01	-6.042841e+02
5.000000e-07	-4.977535e-06	-9.142596e-09	-3.729544e+01	-6.039458e+02
5.100000e-07	-4.971153e-06	-9.164068e-09	-3.724762e+01	-6.035851e+02
5.200000e-07	-4.964583e-06	-9.214806e-09	-3.719840e+01	-6.032013e+02
5.300000e-07	-4.957863e-06	-9.149043e-09	-3.714805e+01	-6.027937e+02
5.400000e-07	-4.951082e-06	-9.118724e-09	-3.709724e+01	-6.023621e+02
5.500000e-07	-4.944062e-06	-9.150336e-09	-3.704464e+01	-6.019069e+02
5.600000e-07	-4.936933e-06	-9.165389e-09	-3.699122e+01	-6.014287e+02
5.700000e-07	-4.929748e-06	-9.127286e-09	-3.693739e+01	-6.009286e+02
5.800000e-07	-4.922411e-06	-9.104762e-09	-3.688242e+01	-6.004083e+02
5.900000e-07	-4.914956e-06	-9.112058e-09	-3.682655e+01	-5.998695e+02
6.000000e-07	-4.907289e-06	-9.106233e-09	-3.676911e+01	-5.993145e+02
6.100000e-07	-4.899535e-06	-9.120856e-09	-3.671101e+01	-5.987456e+02
6.200000e-07	-4.891740e-06	-9.086409e-09	-3.665260e+01	-5.981654e+02
6.300000e-07	-4.883762e-06	-9.054523e-09	-3.659282e+01	-5.975766e+02
6.400000e-07	-4.875696e-06	-9.072520e-09	-3.653239e+01	-5.969817e+02
6.500000e-07	-4.867571e-06	-9.082715e-09	-3.647151e+01	-5.963833e+02
6.600000e-07	-4.859407e-06	-9.053749e-09	-3.641034e+01	-5.957837e+02
6.700000e-07	-4.851202e-06	-9.014006e-09	-3.634886e+01	-5.951853e+02
6.800000e-07	-4.842936e-06	-9.023235e-09	-3.628692e+01	-5.945900e+02
6.900000e-07	-4.834592e-06	-9.017381e-09	-3.622441e+01	-5.939994e+02
7.000000e-07	-4.826132e-06	-9.003810e-09	-3.616102e+01	-5.934152e+02
7.100000e-07	-4.817633e-06	-8.989606e-09	-3.609733e+01	-5.928383e+02
7.200000e-07	-4.809024e-06	-8.971340e-09	-3.603283e+01	-5.922699e+02
7.300000e-07	-4.800235e-06	-8.973909e-09	-3.596697e+01	-5.917104e+02
7.400000e-07	-4.791297e-06	-8.969946e-09	-3.590001e+01	-5.911605e+02
7.500000e-07	-4.782281e-06	-8.965460e-09	-3.583245e+01	-5.906202e+02
7.600000e-07	-4.773012e-06	-8.943660e-09	-3.576301e+01	-5.900898e+02
7.700000e-07	-4.763442e-06	-8.937442e-09	-3.569129e+01	-5.895692e+02
7.800000e-07	-4.753817e-06	-8.939647e-09	-3.561918e+01	-5.890581e+02
7.900000e-07	-4.744014e-06	-8.924820e-09	-3.554573e+01	-5.885564e+02
8.000000e-07	-4.733907e-06	-8.907199e-09	-3.547000e+01	-5.880637e+02
8.100000e-07	-4.723488e-06	-8.881667e-09	-3.539193e+01	-5.875795e+02
8.200000e-07	-4.712882e-06	-8.884681e-09	-3.531246e+01	-5.871033e+02
8.300000e-07	-4.702169e-06	-8.886323e-09	-3.523220e+01	-5.866344e+02
8.400000e-07	-4.691304e-06	-8.873586e-09	-3.515078e+01	-5.861723e+02
8.500000e-07	-4.680268e-06	-8.859509e-09	-3.506810e+01	-5.857159e+02
8.600000e-07	-4.668948e-06	-8.851399e-09	-3.498328e+01	-5.852643e+02
8.700000e-07	-4.657431e-06	-8.852910e-09	-3.489698e+01	-5.848164e+02
8.800000e-07	-4.645873e-06	-8.835890e-09	-3.481038e+01	-5.843707e+02
8.900000e-07	-4.634163e-06	-8.820956e-09	-3.472264e+01	-5.839259e+02
9.000000e-07	-4.622343e-06	-8.809484e-09	-3.463408e+01	-5.834801e+02
9.100000e-07	-4.610495e-06	-8.808252e-09	-3.454530e+01	-5.830317e+02
9.200000e-07	-4.598482e-06	-8.806270e-09	-3.445529e+01	-5.825785e+02
9.300000e-07	-4.586316e-06	-8.793896e-09	-3.436413e+01	-5.821186e+02
9.400000e-07	-4.574072e-06	-8.786943e-09	-3.427239e+01	-5.816495e+02
9.500000e-07	-4.561735e-06	-8.774058e-09	-3.417995e+01	-5.811692e+02
9.600000e-07	-4.549279e-06	-8.771649e-09	-3.408662e+01	-5.806754e+02
9.700000e-07	-4.536782e-06	-8.762862e-09	-3.399299e+01	-5.801657e+02
9.800000e-07	-4.524155e-06	-8.746631e-09	-3.389838e+01	-5.796383e+02
9.900000e-07	-4.511280e-06	-8.736127e-09	-3.380191e+01	-5.790910e+02
1.000000e-06	-4.498343e-06	-8.728729e-09	-3.370497e+01	-5.785221e+02
1.010000e-06	-4.485316e-06	-8.725458e-09	-3.360737e+01	-5.779300e+02
1.020000e-06	-4.472105e-06	-8.708869e-09	-3.350838e+01	-5.773135e+02
1.030000e-06	-4.458786e-06	-8.695711e-09	-3.340858e+01	-5.766715e+02
1.040000e-06	-4.445381e-06	-8.685710e-09	-3.330815e+01	-5.760032e+02
1.050000e-06	-4.431805e-06	-8.676112e-09	-3.320642e+01	-5.753083e+02
1.060000e-06	-4.418092e-06	-8.664907e-09	-3.310368e+01	-5.745865e+02
1.070000e-06	-4.404302e-06	-8.648573e-09	-3.300035e+01	-5.738377e+02
1.080000e-06	-4.390319e-06	-8.639166e-09	-3.289558e+01	-5.730624e+02
1.090000e-06	-4.376252e-06	-8.626562e-09	-3.279018e+01	-5.722610e+02
1.100000e-06	-4.362096e-06	-8.615747e-09	-3.268411e+01	-5.714339e+02
1.110000e-06	-4.347824e-06	-8.600269e-09	-3.257717e+01	-5.705820e+02
1.120000e-06	-4.333442e-06	-8.581687e-09	-3.246941e+01	-5.697060e+02
1.130000e-06	-4.318921e-06	-8.564558e-09	-3.236061e+01	-5.688067e+02
1.140000e-06	-4.304331e-06	-8.543854e-09	-3.225129e+01	-5.678849e+02
1.150000e-06	-4.289640e-06	-8.528320e-09	-3.214122e+01	-5.669414e+02
1.160000e-06	-4.274816e-06	-8.508113e-09	-3.203014e+01	-5.659771e+02
1.170000e-06	-4.259877e-06	-8.490481e-09	-3.191820e+01	-5.649928e+02
1.180000e-06	-4.244801e-06	-8.474190e-09	-3.180524e+01	-5.639892e+02
1.190000e-06	-4.229557e-06	-8.458311e-09	-3.169103e+01	-5.629672e+02
1.200000e-06	-4.214130e-06	-8.444843e-09	-3.157544e+01	-5.619276e+02
1.210000e-06	-4.198541e-06	-8.424941e-09	-3.145863e+01	-5.608713e+02
1.220000e-06	-4.182685e-06	-8.405689e-09	-3.133983e+01	-5.597993e+02
1.230000e-06	-4.166691e-06	-8.385853e-09	-3.121999e+01	-5.587127e+02
1.240000e-06	-4.150703e-06	-8.371396e-09	-3.110019e+01	-5.576127e+02
1.250000e-06	-4.134511e-06	-8.356123e-09	-3.097887e+01	-5.565009e+02
1.260000e-06	-4.118072e-06	-8.337369e-09	-3.085570e+01	-5.553786e+02
1.270000e-06	-4.101502e-06	-8.318819e-09	-3.073154e+01	-5.542476e+02
1.280000e-06	-4.084829e-06	-8.296157e-09	-3.060662e+01	-5.531098e+02
1.290000e-06	-4.067884e-06	-8.275741e-09	-3.047965e+01	-5.519671e+02
1.300000e-06	-4.050851e-06	-8.251547e-09	-3.035203e+01	-5.508217e+02
1.310000e-06	-4.033881e-06	-8.228316e-09	-3.022487e+01	-5.496757e+02
1.320000e-06	-4.016761e-06	-8.207115e-09	-3.009660e+01	-5.485311e+02
1.330000e-06	-3.999510e-06	-8.188434e-09	-2.996734e+01	-5.473901e+02
1.340000e-06	-3.982192e-06	-8.172986e-09	-2.983758e+01	-5.462546e+02
1.350000e-06	-3.964768e-06	-8.153511e-09	-2.970703e+01	-5.451264e+02
1.360000e-06	-3.947266e-06	-8.137646e-09	-2.957589e+01	-5.440069e+02
1.370000e-06	-3.929669e-06	-8.122512e-09	-2.944404e+01	-5.428975e+02
1.380000e-06	-3.912034e-06	-8.106275e-09	-2.931190e+01	-5.417991e+02
1.390000e-06	-3.894362e-06	-8.084516e-09	-2.917950e+01	-5.407122e+02
1.400000e-06	-3.876590e-06	-8.059126e-09	-2.904633e+01	-5.396372e+02
1.410000e-06	-3.858735e-06	-8.037595e-09	-2.891255e+01	-5.385738e+02
1.420000e-06	-3.840744e-06	-8.016937e-09	-2.877775e+01	-5.375216e+02
1.430000e-06	-3.822656e-06	-7.999359e-09	-2.864222e+01	-5.364797e+02
1.440000e-06	-3.804513e-06	-7.981765e-09	-2.850628e+01	-5.354471e+02
1.450000e-06	-3.786260e-06	-7.967461e-09	-2.836951e+01	-5.344223e+02
1.460000e-06	-3.767985e-06	-7.954998e-09	-2.823258e+01	-5.334039e+02
1.470000e-06	-3.749703e-06	-7.939373e-09	-2.809560e+01	-5.323901e+02
1.480000e-06	-3.731300e-06	-7.922251e-09	-2.795771e+01	-5.313793e+02
1.490000e-06	-3.712807e-06	-7.901101e-09	-2.781915e+01	-5.303698e+02
1.500000e-06	-3.694123e-06	-7.880491e-09	-2.767915e+01	-5.293598e+02
1.510000e-06	-3.675313e-06	-7.861767e-09	-2.753821e+01	-5.283478e+02
1.520000e-06	-3.656551e-06	-7.847313e-09	-2.739764e+01	-5.273323e+02
1.530000e-06	-3.637737e-06	-7.835069e-09	-2.725666e+01	-5.263120e+02
1.540000e-06	-3.618717e-06	-7.823388e-09	-2.711415e+01	-5.252856e+02
1.550000e-06	-3.599521e-06	-7.812597e-09	-2.697033e+01	-5.242523e+02
1.560000e-06	-3.580282e-06	-7.796268e-09	-2.682617e+01	-5.232111e+02
1.570000e-06	-3.560912e-06	-7.776636e-09	-2.668103e+01	-5.221611e+02
1.580000e-06	-3.541382e-06	-7.755633e-09	-2.653470e+01	-5.211018e+02
1.590000e-06	-3.521748e-06	-7.733793e-09	-2.638759e+01	-5.200322e+02
1.600000e-06	-3.501967e-06	-7.712804e-09	-2.623938e+01	-5.189516e+02
1.610000e-06	-3.482057e-06	-7.693467e-09	-2.609020e+01	-5.178593e+02
1.620000e-06	-3.462126e-06	-7.675873e-09	-2.594085e+01	-5.167541e+02
1.630000e-06	-3.442166e-06	-7.658522e-09	-2.579130e+01	-5.156350e+02
1.640000e-06	-3.422087e-06	-7.641657e-09	-2.564086e+01	-5.145006e+02
1.650000e-06	-3.401920e-06	-7.624646e-09	-2.548975e+01	-5.133494e+02
1.660000e-06	-3.381727e-06	-7.607802e-09	-2.533845e+01	-5.121797e+02
1.670000e-06	-3.361540e-06	-7.591453e-09	-2.518719e+01	-5.109896e+02
1.680000e-06	-3.341319e-06	-7.572051e-09	-2.503568e+01	-5.097771e+02
1.690000e-06	-3.321039e-06	-7.550282e-09	-2.488373e+01	-5.085400e+02
1.700000e-06	-3.300743e-06	-7.529142e-09	-2.473165e+01	-5.072763e+02
1.710000e-06	-3.280459e-06	-7.507863e-09	-2.457967e+01	-5.059839e+02
1.720000e-06	-3.260141e-06	-7.487112e-09	-2.442743e+01	-5.046607e+02
1.730000e-06	-3.239752e-06	-7.469145e-09	-2.427466e+01	-5.033051e+02
1.740000e-06	-3.219341e-06	-7.452111e-09	-2.412173e+01	-5.019154e+02
1.750000e-06	-3.198894e-06	-7.432362e-09	-2.396852e+01	-5.004905e+02
1.760000e-06	-3.178352e-06	-7.407419e-09	-2.381461e+01	-4.990297e+02
1.770000e-06	-3.157789e-06	-7.377276e-09	-2.366053e+01	-4.975327e+02
1.780000e-06	-3.137209e-06	-7.346498e-09	-2.350634e+01	-4.959995e+02
1.790000e-06	-3.116519e-06	-7.319470e-09	-2.335131e+01	-4.944308e+02
1.800000e-06	-3.095809e-06	-7.296706e-09	-2.319613e+01	-4.928278e+02
1.810000e-06	-3.075020e-06	-7.276791e-09	-2.304036e+01	-4.911920e+02
1.820000e-06	-3.054028e-06	-7.257947e-09	-2.288308e+01	-4.895254e+02
1.830000e-06	-3.032888e-06	-7.238173e-09	-2.272468e+01	-4.878303e+02
1.840000e-06	-3.011632e-06	-7.215816e-09	-2.256542e+01	-4.861095e+02
1.850000e-06	-2.990328e-06	-7.189961e-09	-2.240579e+01	-4.843656e+02
1.860000e-06	-2.968976e-06	-7.160110e-09	-2.224580e+01	-4.826016e+02
1.870000e-06	-2.947584e-06	-7.128178e-09	-2.208552e+01	-4.808204e+02
1.880000e-06	-2.926153e-06	-7.098472e-09	-2.192494e+01	-4.790249e+02
1.890000e-06	-2.904549e-06	-7.074114e-09	-2.176307e+01	-4.772178e+02
1.900000e-06	-2.882808e-06	-7.051269e-09	-2.160017e+01	-4.754014e+02
1.910000e-06	-2.861116e-06	-7.026903e-09	-2.143763e+01	-4.735778e+02
1.920000e-06	-2.839367e-06	-6.999396e-09	-2.127467e+01	-4.717490e+02
1.930000e-06	-2.817478e-06	-6.967964e-09	-2.111067e+01	-4.699163e+02
1.940000e-06	-2.795483e-06	-6.937744e-09	-2.094587e+01	-4.680806e+02
1.950000e-06	-2.773416e-06	-6.908124e-09	-2.078052e+01	-4.662426e+02
1.960000e-06	-2.751352e-06	-6.881064e-09	-2.061520e+01	-4.644027e+02
1.970000e-06	-2.729212e-06	-6.858146e-09	-2.044932e+01	-4.625607e+02
1.980000e-06	-2.707037e-06	-6.836464e-09	-2.028316e+01	-4.607162e+02
1.990000e-06	-2.684843e-06	-6.812897e-09	-2.011687e+01	-4.588689e+02
2.000000e-06	-2.662548e-06	-6.785789e-09	-1.994982e+01	-4.570179e+02
2.010000e-06	-2.640176e-06	-6.756245e-09	-1.978219e+01	-4.551626e+02
2.020000e-06	-2.617772e-06	-6.726901e-09	-1.961432e+01	-4.533020e+02
2.030000e-06	-2.595335e-06	-6.700625e-09	-1.944621e+01	-4.514356e+02
2.040000e-06	-2.572791e-06	-6.673892e-09	-1.927729e+01	-4.495625e+02
2.050000e-06	-2.550190e-06	-6.645330e-09	-1.910795e+01	-4.476824e+02
2.060000e-06	-2.527557e-06	-6.617054e-09	-1.893836e+01	-4.457948e+02
2.070000e-06	-2.504874e-06	-6.589222e-09	-1.876840e+01	-4.438995e+02
2.080000e-06	-2.482166e-06	-6.561933e-09	-1.859826e+01	-4.419964e+02
2.090000e-06	-2.459426e-06	-6.534136e-09	-1.842787e+01	-4.400858e+02
2.100000e-06	-2.436512e-06	-6.506778e-09	-1.825618e+01	-4.381679e+02
2.110000e-06	-2.413422e-06	-6.480465e-09	-1.808318e+01	-4.362429e+02
2.120000e-06	-2.390309e-06	-6.454391e-09	-1.790999e+01	-4.343113e+02
2.130000e-06	-2.367161e-06	-6.428355e-09	-1.773655e+01	-4.323735e+02
2.140000e-06	-2.343866e-06	-6.399717e-09	-1.756201e+01	-4.304298e+02
2.150000e-06	-2.320493e-06	-6.370563e-09	-1.738688e+01	-4.284804e+02
2.160000e-06	-2.297194e-06	-6.343428e-09	-1.721231e+01	-4.265256e+02
2.170000e-06	-2.273883e-06	-6.319399e-09	-1.703765e+01	-4.245650e+02
2.180000e-06	-2.250455e-06	-6.295149e-09	-1.686211e+01	-4.225986e+02
2.190000e-06	-2.226954e-06	-6.266750e-09	-1.668602e+01	-4.206257e+02
2.200000e-06	-2.203321e-06	-6.236814e-09	-1.650894e+01	-4.186455e+02
2.210000e-06	-2.179601e-06	-6.206812e-09	-1.633121e+01	-4.166569e+02
2.220000e-06	-2.155892e-06	-6.173790e-09	-1.615356e+01	-4.146588e+02
2.230000e-06	-2.132114e-06	-6.140409e-09	-1.597541e+01	-4.126496e+02
2.240000e-06	-2.108326e-06	-6.111315e-09	-1.579717e+01	-4.106276e+02
2.250000e-06	-2.084508e-06	-6.087655e-09	-1.561870e+01	-4.085910e+02
2.260000e-06	-2.060555e-06	-6.064918e-09	-1.543923e+01	-4.065378e+02
2.270000e-06	-2.036547e-06	-6.039746e-09	-1.525935e+01	-4.044661e+02
2.280000e-06	-2.012554e-06	-6.012244e-09	-1.507957e+01	-4.023737e+02
2.290000e-06	-1.988498e-06	-5.979797e-09	-1.489933e+01	-4.002586e+02
2.300000e-06	-1.964407e-06	-5.942882e-09	-1.471881e+01	-3.981190e+02
2.310000e-06	-1.940301e-06	-5.904169e-09	-1.453819e+01	-3.959529e+02
2.320000e-06	-1.916135e-06	-5.871772e-09	-1.435713e+01	-3.937587e+02
2.330000e-06	-1.891896e-06	-5.844252e-09	-1.417551e+01	-3.915348e+02
2.340000e-06	-1.867631e-06	-5.820142e-09	-1.399370e+01	-3.892799e+02
2.350000e-06	-1.843439e-06	-5.798570e-09	-1.381243e+01	-3.869927e+02
2.360000e-06	-1.819191e-06	-5.771564e-09	-1.363075e+01	-3.846724e+02
2.370000e-06	-1.794899e-06	-5.736974e-09	-1.344874e+01	-3.823181e+02
2.380000e-06	-1.770599e-06	-5.693943e-09	-1.326666e+01	-3.799294e+02
2.390000e-06	-1.746250e-06	-5.647574e-09	-1.308422e+01	-3.775057e+02
2.400000e-06	-1.721885e-06	-5.603392e-09	-1.290166e+01	-3.750471e+02
2.410000e-06	-1.697456e-06	-5.564816e-09	-1.271862e+01	-3.725535e+02
2.420000e-06	-1.673020e-06	-5.533066e-09	-1.253553e+01	-3.700251e+02
2.430000e-06	-1.648583e-06	-5.507036e-09	-1.235243e+01	-3.674622e+02
2.440000e-06	-1.624118e-06	-5.485375e-09	-1.216912e+01	-3.648654e+02
2.450000e-06	-1.599597e-06	-5.459181e-09	-1.198539e+01	-3.622353e+02
2.460000e-06	-1.575013e-06	-5.423116e-09	-1.180119e+01	-3.595727e+02
2.470000e-06	-1.550440e-06	-5.376133e-09	-1.161706e+01	-3.568784e+02
2.480000e-06	-1.525865e-06	-5.324689e-09	-1.143293e+01	-3.541536e+02
2.490000e-06	-1.501258e-06	-5.278811e-09	-1.124856e+01	-3.513993e+02
2.500000e-06	-1.476710e-06	-5.237954e-09	-1.106463e+01	-3.486168e+02
2.510000e-06	-1.452110e-06	-5.199172e-09	-1.088030e+01	-3.458073e+02
2.520000e-06	-1.427468e-06	-5.162474e-09	-1.069566e+01	-3.429724e+02
2.530000e-06	-1.402821e-06	-5.129234e-09	-1.051099e+01	-3.401134e+02
2.540000e-06	-1.377983e-06	-5.093774e-09	-1.032489e+01	-3.372318e+02
2.550000e-06	-1.353038e-06	-5.051108e-09	-1.013798e+01	-3.343293e+02
2.560000e-06	-1.328078e-06	-5.002654e-09	-9.950959e+00	-3.314072e+02
2.570000e-06	-1.303130e-06	-4.954675e-09	-9.764035e+00	-3.284673e+02
2.580000e-06	-1.278230e-06	-4.913682e-09	-9.577462e+00	-3.255108e+02
2.590000e-06	-1.253264e-06	-4.875091e-09	-9.390396e+00	-3.225392e+02
2.600000e-06	-1.228224e-06	-4.836883e-09	-9.202783e+00	-3.195539e+02
2.610000e-06	-1.203082e-06	-4.799118e-09	-9.014399e+00	-3.165560e+02
2.620000e-06	-1.177880e-06	-4.761117e-09	-8.825561e+00	-3.135467e+02
2.630000e-06	-1.152715e-06	-4.721395e-09	-8.637006e+00	-3.105269e+02
2.640000e-06	-1.127542e-06	-4.676767e-09	-8.448392e+00	-3.074974e+02
2.650000e-06	-1.102361e-06	-4.628825e-09	-8.259721e+00	-3.044587e+02
2.660000e-06	-1.077104e-06	-4.580784e-09	-8.070472e+00	-3.014114e+02
2.670000e-06	-1.051793e-06	-4.533824e-09	-7.880825e+00	-2.983558e+02
2.680000e-06	-1.026473e-06	-4.488428e-09	-7.691112e+00	-2.952920e+02
2.690000e-06	-1.001123e-06	-4.444681e-09	-7.501170e+00	-2.922201e+02
2.700000e-06	-9.757548e-07	-4.399642e-09	-7.311090e+00	-2.891399e+02
2.710000e-06	-9.503112e-07	-4.355757e-09	-7.120448e+00	-2.860511e+02
2.720000e-06	-9.248829e-07	-4.313528e-09	-6.929920e+00	-2.829534e+02
2.730000e-06	-8.994093e-07	-4.267359e-09	-6.739052e+00	-2.798464e+02
2.740000e-06	-8.737020e-07	-4.220417e-09	-6.546434e+00	-2.767294e+02
2.750000e-06	-8.479567e-07	-4.175617e-09	-6.353530e+00	-2.736020e+02
2.760000e-06	-8.223500e-07	-4.131484e-09	-6.161665e+00	-2.704633e+02
2.770000e-06	-7.967187e-07	-4.087433e-09	-5.969617e+00	-2.673127e+02
2.780000e-06	-7.709316e-07	-4.040753e-09	-5.776400e+00	-2.641492e+02
2.790000e-06	-7.451171e-07	-3.995482e-09	-5.582978e+00	-2.609720e+02
2.800000e-06	-7.194024e-07	-3.951662e-09	-5.390305e+00	-2.577799e+02
2.810000e-06	-6.936604e-07	-3.906665e-09	-5.197426e+00	-2.545720e+02
2.820000e-06	-6.679802e-07	-3.857543e-09	-5.005011e+00	-2.513468e+02
2.830000e-06	-6.422943e-07	-3.803938e-09	-4.812553e+00	-2.481031e+02
2.840000e-06	-6.164690e-07	-3.755094e-09	-4.619050e+00	-2.448393e+02
