# Temperatura_=_20.0
# Concentracion g/m^3_=_10000.0
# C_Vs_to_Am_M_A/Vsm_=_65563218390.804596
# pendiente_HvsI_1/m_=_3716.3
# ordenada_HvsI_A/m_=_1297.0
# frecuencia_Hz_=_81179.53812209606

Tiempo_(s)	Campo_(V.s)	Magnetizacion_(V.s)	Campo_(kA/m)	Magnetizacion_(A/m)
0.000000e+00	-5.142142e-06	-9.234981e-09	-3.845718e+01	-6.057599e+02
1.000000e-08	-5.142297e-06	-9.219498e-09	-3.845834e+01	-6.058377e+02
2.000000e-08	-5.142418e-06	-9.236881e-09	-3.845925e+01	-6.059392e+02
3.000000e-08	-5.142372e-06	-9.258215e-09	-3.845890e+01	-6.060643e+02
4.000000e-08	-5.142182e-06	-9.158242e-09	-3.845748e+01	-6.062121e+02
5.000000e-08	-5.141933e-06	-9.212268e-09	-3.845562e+01	-6.063810e+02
6.000000e-08	-5.141645e-06	-9.198139e-09	-3.845346e+01	-6.065689e+02
7.000000e-08	-5.141281e-06	-9.226536e-09	-3.845074e+01	-6.067728e+02
8.000000e-08	-5.140871e-06	-9.453129e-09	-3.844767e+01	-6.069896e+02
9.000000e-08	-5.140377e-06	-9.433591e-09	-3.844398e+01	-6.072153e+02
1.000000e-07	-5.139775e-06	-9.361187e-09	-3.843947e+01	-6.074460e+02
1.100000e-07	-5.139065e-06	-9.302674e-09	-3.843417e+01	-6.076773e+02
1.200000e-07	-5.138184e-06	-9.329974e-09	-3.842758e+01	-6.079050e+02
1.300000e-07	-5.137079e-06	-9.322730e-09	-3.841931e+01	-6.081247e+02
1.400000e-07	-5.135769e-06	-9.257400e-09	-3.840951e+01	-6.083323e+02
1.500000e-07	-5.134283e-06	-9.239846e-09	-3.839841e+01	-6.085239e+02
1.600000e-07	-5.132575e-06	-9.222474e-09	-3.838563e+01	-6.086962e+02
1.700000e-07	-5.130660e-06	-9.319049e-09	-3.837131e+01	-6.088461e+02
1.800000e-07	-5.128610e-06	-9.383439e-09	-3.835598e+01	-6.089711e+02
1.900000e-07	-5.126369e-06	-9.375415e-09	-3.833922e+01	-6.090692e+02
2.000000e-07	-5.123921e-06	-9.293256e-09	-3.832091e+01	-6.091391e+02
2.100000e-07	-5.121260e-06	-9.193945e-09	-3.830101e+01	-6.091799e+02
2.200000e-07	-5.118424e-06	-9.325491e-09	-3.827980e+01	-6.091912e+02
2.300000e-07	-5.115423e-06	-9.440767e-09	-3.825735e+01	-6.091732e+02
2.400000e-07	-5.112221e-06	-9.392602e-09	-3.823341e+01	-6.091265e+02
2.500000e-07	-5.108782e-06	-9.244130e-09	-3.820769e+01	-6.090518e+02
2.600000e-07	-5.105150e-06	-9.256973e-09	-3.818052e+01	-6.089504e+02
2.700000e-07	-5.101479e-06	-9.361412e-09	-3.815307e+01	-6.088235e+02
2.800000e-07	-5.097692e-06	-9.298795e-09	-3.812475e+01	-6.086725e+02
2.900000e-07	-5.093754e-06	-9.235559e-09	-3.809529e+01	-6.084989e+02
3.000000e-07	-5.089731e-06	-9.230094e-09	-3.806521e+01	-6.083038e+02
3.100000e-07	-5.085600e-06	-9.319939e-09	-3.803432e+01	-6.080888e+02
3.200000e-07	-5.081375e-06	-9.319764e-09	-3.800271e+01	-6.078548e+02
3.300000e-07	-5.077087e-06	-9.299709e-09	-3.797064e+01	-6.076028e+02
3.400000e-07	-5.072731e-06	-9.296034e-09	-3.793807e+01	-6.073336e+02
3.500000e-07	-5.068352e-06	-9.200483e-09	-3.790532e+01	-6.070478e+02
3.600000e-07	-5.063950e-06	-9.200226e-09	-3.787239e+01	-6.067459e+02
3.700000e-07	-5.059398e-06	-9.264022e-09	-3.783835e+01	-6.064282e+02
3.800000e-07	-5.054697e-06	-9.292350e-09	-3.780319e+01	-6.060949e+02
3.900000e-07	-5.049873e-06	-9.181220e-09	-3.776712e+01	-6.057463e+02
4.000000e-07	-5.044943e-06	-9.174532e-09	-3.773024e+01	-6.053827e+02
4.100000e-07	-5.039958e-06	-9.304021e-09	-3.769297e+01	-6.050042e+02
4.200000e-07	-5.034809e-06	-9.264117e-09	-3.765446e+01	-6.046111e+02
4.300000e-07	-5.029396e-06	-9.159498e-09	-3.761397e+01	-6.042041e+02
4.400000e-07	-5.023857e-06	-9.142913e-09	-3.757255e+01	-6.037836e+02
4.500000e-07	-5.018261e-06	-9.227154e-09	-3.753069e+01	-6.033505e+02
4.600000e-07	-5.012518e-06	-9.202018e-09	-3.748774e+01	-6.029056e+02
4.700000e-07	-5.006593e-06	-9.151220e-09	-3.744343e+01	-6.024501e+02
4.800000e-07	-5.000514e-06	-9.164180e-09	-3.739797e+01	-6.019852e+02
4.900000e-07	-4.994336e-06	-9.140504e-09	-3.735176e+01	-6.015123e+02
5.000000e-07	-4.988008e-06	-9.149308e-09	-3.730444e+01	-6.010327e+02
5.100000e-07	-4.981516e-06	-9.157921e-09	-3.725588e+01	-6.005480e+02
5.200000e-07	-4.974966e-06	-9.136473e-09	-3.720690e+01	-6.000597e+02
5.300000e-07	-4.968390e-06	-9.076010e-09	-3.715772e+01	-5.995692e+02
5.400000e-07	-4.961738e-06	-9.087547e-09	-3.710797e+01	-5.990779e+02
5.500000e-07	-4.954943e-06	-9.137517e-09	-3.705715e+01	-5.985872e+02
5.600000e-07	-4.947939e-06	-9.091886e-09	-3.700477e+01	-5.980982e+02
5.700000e-07	-4.940748e-06	-9.061960e-09	-3.695099e+01	-5.976119e+02
5.800000e-07	-4.933411e-06	-9.065808e-09	-3.689612e+01	-5.971292e+02
5.900000e-07	-4.925912e-06	-9.087681e-09	-3.684003e+01	-5.966508e+02
6.000000e-07	-4.918199e-06	-9.083855e-09	-3.678235e+01	-5.961773e+02
6.100000e-07	-4.910428e-06	-9.057796e-09	-3.672424e+01	-5.957091e+02
6.200000e-07	-4.902629e-06	-9.036926e-09	-3.666590e+01	-5.952464e+02
6.300000e-07	-4.894655e-06	-9.025248e-09	-3.660627e+01	-5.947894e+02
6.400000e-07	-4.886558e-06	-9.058584e-09	-3.654572e+01	-5.943382e+02
6.500000e-07	-4.878381e-06	-9.034719e-09	-3.648456e+01	-5.938929e+02
6.600000e-07	-4.870158e-06	-8.994094e-09	-3.642306e+01	-5.934533e+02
6.700000e-07	-4.861910e-06	-8.992386e-09	-3.636137e+01	-5.930194e+02
6.800000e-07	-4.853589e-06	-9.008027e-09	-3.629914e+01	-5.925912e+02
6.900000e-07	-4.845135e-06	-9.008763e-09	-3.623592e+01	-5.921685e+02
7.000000e-07	-4.836606e-06	-8.971897e-09	-3.617213e+01	-5.917512e+02
7.100000e-07	-4.828087e-06	-8.964326e-09	-3.610842e+01	-5.913392e+02
7.200000e-07	-4.819537e-06	-8.965283e-09	-3.604447e+01	-5.909324e+02
7.300000e-07	-4.810868e-06	-8.972599e-09	-3.597964e+01	-5.905304e+02
7.400000e-07	-4.801927e-06	-8.957406e-09	-3.591277e+01	-5.901329e+02
7.500000e-07	-4.792720e-06	-8.929899e-09	-3.584391e+01	-5.897395e+02
7.600000e-07	-4.783466e-06	-8.933796e-09	-3.577471e+01	-5.893496e+02
7.700000e-07	-4.774062e-06	-8.937656e-09	-3.570437e+01	-5.889624e+02
7.800000e-07	-4.764464e-06	-8.942169e-09	-3.563260e+01	-5.885769e+02
7.900000e-07	-4.754721e-06	-8.920746e-09	-3.555973e+01	-5.881920e+02
8.000000e-07	-4.744646e-06	-8.905915e-09	-3.548438e+01	-5.878063e+02
8.100000e-07	-4.734236e-06	-8.903768e-09	-3.540652e+01	-5.874182e+02
8.200000e-07	-4.723623e-06	-8.899098e-09	-3.532715e+01	-5.870259e+02
8.300000e-07	-4.712858e-06	-8.889883e-09	-3.524664e+01	-5.866274e+02
8.400000e-07	-4.702002e-06	-8.860938e-09	-3.516545e+01	-5.862207e+02
8.500000e-07	-4.690967e-06	-8.860340e-09	-3.508292e+01	-5.858035e+02
8.600000e-07	-4.679655e-06	-8.865767e-09	-3.499832e+01	-5.853735e+02
8.700000e-07	-4.668207e-06	-8.861596e-09	-3.491270e+01	-5.849285e+02
8.800000e-07	-4.656668e-06	-8.845453e-09	-3.482640e+01	-5.844663e+02
8.900000e-07	-4.644946e-06	-8.827320e-09	-3.473874e+01	-5.839847e+02
9.000000e-07	-4.633062e-06	-8.828176e-09	-3.464986e+01	-5.834819e+02
9.100000e-07	-4.621064e-06	-8.819661e-09	-3.456013e+01	-5.829561e+02
9.200000e-07	-4.608899e-06	-8.808292e-09	-3.446915e+01	-5.824059e+02
9.300000e-07	-4.596593e-06	-8.786472e-09	-3.437711e+01	-5.818303e+02
9.400000e-07	-4.584238e-06	-8.773735e-09	-3.428472e+01	-5.812282e+02
9.500000e-07	-4.571852e-06	-8.769795e-09	-3.419208e+01	-5.805995e+02
9.600000e-07	-4.559417e-06	-8.758832e-09	-3.409908e+01	-5.799438e+02
9.700000e-07	-4.546900e-06	-8.746162e-09	-3.400547e+01	-5.792614e+02
9.800000e-07	-4.534260e-06	-8.725132e-09	-3.391094e+01	-5.785529e+02
9.900000e-07	-4.521470e-06	-8.720117e-09	-3.381528e+01	-5.778191e+02
1.000000e-06	-4.508527e-06	-8.713046e-09	-3.371848e+01	-5.770611e+02
1.010000e-06	-4.495486e-06	-8.697243e-09	-3.362095e+01	-5.762801e+02
1.020000e-06	-4.482298e-06	-8.676292e-09	-3.352232e+01	-5.754776e+02
1.030000e-06	-4.468899e-06	-8.657398e-09	-3.342211e+01	-5.746551e+02
1.040000e-06	-4.455441e-06	-8.652544e-09	-3.332147e+01	-5.738142e+02
1.050000e-06	-4.441885e-06	-8.637060e-09	-3.322008e+01	-5.729566e+02
1.060000e-06	-4.428076e-06	-8.619806e-09	-3.311681e+01	-5.720839e+02
1.070000e-06	-4.414174e-06	-8.603832e-09	-3.301284e+01	-5.711976e+02
1.080000e-06	-4.400204e-06	-8.594709e-09	-3.290836e+01	-5.702991e+02
1.090000e-06	-4.386085e-06	-8.585021e-09	-3.280276e+01	-5.693899e+02
1.100000e-06	-4.371895e-06	-8.563804e-09	-3.269664e+01	-5.684711e+02
1.110000e-06	-4.357665e-06	-8.545124e-09	-3.259022e+01	-5.675441e+02
1.120000e-06	-4.343287e-06	-8.525799e-09	-3.248268e+01	-5.666097e+02
1.130000e-06	-4.328756e-06	-8.511806e-09	-3.237401e+01	-5.656690e+02
1.140000e-06	-4.314082e-06	-8.492712e-09	-3.226426e+01	-5.647229e+02
1.150000e-06	-4.299312e-06	-8.470783e-09	-3.215380e+01	-5.637723e+02
1.160000e-06	-4.284473e-06	-8.454193e-09	-3.204283e+01	-5.628180e+02
1.170000e-06	-4.269369e-06	-8.439436e-09	-3.192986e+01	-5.618607e+02
1.180000e-06	-4.254190e-06	-8.427864e-09	-3.181634e+01	-5.609014e+02
1.190000e-06	-4.238900e-06	-8.409667e-09	-3.170199e+01	-5.599408e+02
1.200000e-06	-4.223435e-06	-8.393740e-09	-3.158633e+01	-5.589798e+02
1.210000e-06	-4.207793e-06	-8.376913e-09	-3.146935e+01	-5.580193e+02
1.220000e-06	-4.191956e-06	-8.359943e-09	-3.135091e+01	-5.570602e+02
1.230000e-06	-4.175954e-06	-8.344523e-09	-3.123123e+01	-5.561033e+02
1.240000e-06	-4.159654e-06	-8.325695e-09	-3.110933e+01	-5.551496e+02
1.250000e-06	-4.143232e-06	-8.312710e-09	-3.098650e+01	-5.541999e+02
1.260000e-06	-4.126679e-06	-8.298926e-09	-3.086271e+01	-5.532550e+02
1.270000e-06	-4.109968e-06	-8.286147e-09	-3.073773e+01	-5.523156e+02
1.280000e-06	-4.093141e-06	-8.269540e-09	-3.061189e+01	-5.513824e+02
1.290000e-06	-4.076158e-06	-8.249911e-09	-3.048487e+01	-5.504557e+02
1.300000e-06	-4.059085e-06	-8.233830e-09	-3.035719e+01	-5.495361e+02
1.310000e-06	-4.041966e-06	-8.218689e-09	-3.022916e+01	-5.486236e+02
1.320000e-06	-4.024770e-06	-8.203264e-09	-3.010055e+01	-5.477183e+02
1.330000e-06	-4.007519e-06	-8.182582e-09	-2.997154e+01	-5.468200e+02
1.340000e-06	-3.990214e-06	-8.166999e-09	-2.984211e+01	-5.459284e+02
1.350000e-06	-3.972747e-06	-8.154955e-09	-2.971148e+01	-5.450430e+02
1.360000e-06	-3.955172e-06	-8.143926e-09	-2.958004e+01	-5.441631e+02
1.370000e-06	-3.937532e-06	-8.133379e-09	-2.944811e+01	-5.432880e+02
1.380000e-06	-3.919839e-06	-8.119570e-09	-2.931579e+01	-5.424166e+02
1.390000e-06	-3.902061e-06	-8.106909e-09	-2.918283e+01	-5.415480e+02
1.400000e-06	-3.884152e-06	-8.088362e-09	-2.904890e+01	-5.406812e+02
1.410000e-06	-3.866243e-06	-8.065163e-09	-2.891496e+01	-5.398148e+02
1.420000e-06	-3.848261e-06	-8.038448e-09	-2.878047e+01	-5.389477e+02
1.430000e-06	-3.830127e-06	-8.015659e-09	-2.864485e+01	-5.380786e+02
1.440000e-06	-3.811993e-06	-8.003551e-09	-2.850923e+01	-5.372062e+02
1.450000e-06	-3.793845e-06	-7.995595e-09	-2.837350e+01	-5.363293e+02
1.460000e-06	-3.775572e-06	-7.991182e-09	-2.823684e+01	-5.354464e+02
1.470000e-06	-3.757190e-06	-7.983700e-09	-2.809937e+01	-5.345564e+02
1.480000e-06	-3.738693e-06	-7.969871e-09	-2.796103e+01	-5.336577e+02
1.490000e-06	-3.720040e-06	-7.945891e-09	-2.782152e+01	-5.327491e+02
1.500000e-06	-3.701308e-06	-7.915154e-09	-2.768143e+01	-5.318291e+02
1.510000e-06	-3.682528e-06	-7.889672e-09	-2.754099e+01	-5.308961e+02
1.520000e-06	-3.663635e-06	-7.873752e-09	-2.739969e+01	-5.299488e+02
1.530000e-06	-3.644685e-06	-7.866683e-09	-2.725796e+01	-5.289855e+02
1.540000e-06	-3.625558e-06	-7.860663e-09	-2.711492e+01	-5.280046e+02
1.550000e-06	-3.606210e-06	-7.851957e-09	-2.697021e+01	-5.270045e+02
1.560000e-06	-3.586726e-06	-7.837770e-09	-2.682450e+01	-5.259835e+02
1.570000e-06	-3.567146e-06	-7.817849e-09	-2.667806e+01	-5.249399e+02
1.580000e-06	-3.547609e-06	-7.792802e-09	-2.653194e+01	-5.238721e+02
1.590000e-06	-3.527997e-06	-7.764266e-09	-2.638528e+01	-5.227785e+02
1.600000e-06	-3.508183e-06	-7.741402e-09	-2.623709e+01	-5.216576e+02
1.610000e-06	-3.488282e-06	-7.724112e-09	-2.608825e+01	-5.205080e+02
1.620000e-06	-3.468339e-06	-7.711317e-09	-2.593910e+01	-5.193286e+02
1.630000e-06	-3.448353e-06	-7.699060e-09	-2.578963e+01	-5.181184e+02
1.640000e-06	-3.428298e-06	-7.683560e-09	-2.563964e+01	-5.168766e+02
1.650000e-06	-3.408228e-06	-7.665995e-09	-2.548954e+01	-5.156028e+02
1.660000e-06	-3.388142e-06	-7.643477e-09	-2.533932e+01	-5.142967e+02
1.670000e-06	-3.367947e-06	-7.618670e-09	-2.518829e+01	-5.129585e+02
1.680000e-06	-3.347686e-06	-7.591179e-09	-2.503676e+01	-5.115886e+02
1.690000e-06	-3.327412e-06	-7.565665e-09	-2.488513e+01	-5.101878e+02
1.700000e-06	-3.307086e-06	-7.546177e-09	-2.473312e+01	-5.087572e+02
1.710000e-06	-3.286678e-06	-7.528516e-09	-2.458049e+01	-5.072980e+02
1.720000e-06	-3.266273e-06	-7.510104e-09	-2.442788e+01	-5.058118e+02
1.730000e-06	-3.245856e-06	-7.489950e-09	-2.427519e+01	-5.043004e+02
1.740000e-06	-3.225420e-06	-7.469771e-09	-2.412235e+01	-5.027657e+02
1.750000e-06	-3.204984e-06	-7.443625e-09	-2.396952e+01	-5.012098e+02
1.760000e-06	-3.184510e-06	-7.413588e-09	-2.381639e+01	-4.996347e+02
1.770000e-06	-3.163991e-06	-7.383570e-09	-2.366293e+01	-4.980424e+02
1.780000e-06	-3.143398e-06	-7.355273e-09	-2.350893e+01	-4.964351e+02
1.790000e-06	-3.122736e-06	-7.333876e-09	-2.335440e+01	-4.948147e+02
1.800000e-06	-3.101946e-06	-7.315611e-09	-2.319891e+01	-4.931829e+02
1.810000e-06	-3.080970e-06	-7.296050e-09	-2.304204e+01	-4.915415e+02
1.820000e-06	-3.059907e-06	-7.273429e-09	-2.288451e+01	-4.898920e+02
1.830000e-06	-3.038832e-06	-7.250000e-09	-2.272690e+01	-4.882355e+02
1.840000e-06	-3.017709e-06	-7.225593e-09	-2.256892e+01	-4.865732e+02
1.850000e-06	-2.996528e-06	-7.197148e-09	-2.241051e+01	-4.849060e+02
1.860000e-06	-2.975267e-06	-7.165955e-09	-2.225150e+01	-4.832346e+02
1.870000e-06	-2.953840e-06	-7.137710e-09	-2.209125e+01	-4.815594e+02
1.880000e-06	-2.932330e-06	-7.116141e-09	-2.193038e+01	-4.798809e+02
1.890000e-06	-2.910716e-06	-7.095510e-09	-2.176874e+01	-4.781994e+02
1.900000e-06	-2.888985e-06	-7.073374e-09	-2.160622e+01	-4.765149e+02
1.910000e-06	-2.867208e-06	-7.050095e-09	-2.144335e+01	-4.748277e+02
1.920000e-06	-2.845289e-06	-7.024562e-09	-2.127942e+01	-4.731376e+02
1.930000e-06	-2.823275e-06	-6.999072e-09	-2.111478e+01	-4.714447e+02
1.940000e-06	-2.801271e-06	-6.972065e-09	-2.095021e+01	-4.697489e+02
1.950000e-06	-2.779334e-06	-6.944568e-09	-2.078615e+01	-4.680501e+02
1.960000e-06	-2.757352e-06	-6.919209e-09	-2.062175e+01	-4.663481e+02
1.970000e-06	-2.735250e-06	-6.897452e-09	-2.045646e+01	-4.646428e+02
1.980000e-06	-2.713050e-06	-6.876341e-09	-2.029043e+01	-4.629339e+02
1.990000e-06	-2.690680e-06	-6.851254e-09	-2.012312e+01	-4.612211e+02
2.000000e-06	-2.668269e-06	-6.826776e-09	-1.995552e+01	-4.595040e+02
2.010000e-06	-2.645870e-06	-6.802072e-09	-1.978800e+01	-4.577821e+02
2.020000e-06	-2.623433e-06	-6.776442e-09	-1.962019e+01	-4.560547e+02
2.030000e-06	-2.600986e-06	-6.749269e-09	-1.945232e+01	-4.543210e+02
2.040000e-06	-2.578459e-06	-6.721101e-09	-1.928384e+01	-4.525800e+02
2.050000e-06	-2.555858e-06	-6.695066e-09	-1.911482e+01	-4.508308e+02
2.060000e-06	-2.533159e-06	-6.670715e-09	-1.894505e+01	-4.490719e+02
2.070000e-06	-2.510384e-06	-6.645895e-09	-1.877472e+01	-4.473021e+02
2.080000e-06	-2.487542e-06	-6.620223e-09	-1.860389e+01	-4.455198e+02
2.090000e-06	-2.464595e-06	-6.594055e-09	-1.843228e+01	-4.437234e+02
2.100000e-06	-2.441584e-06	-6.567168e-09	-1.826018e+01	-4.419113e+02
2.110000e-06	-2.418433e-06	-6.540066e-09	-1.808704e+01	-4.400817e+02
2.120000e-06	-2.395251e-06	-6.512329e-09	-1.791366e+01	-4.382332e+02
2.130000e-06	-2.372116e-06	-6.486493e-09	-1.774064e+01	-4.363639e+02
2.140000e-06	-2.348909e-06	-6.459987e-09	-1.756708e+01	-4.344725e+02
2.150000e-06	-2.325599e-06	-6.432349e-09	-1.739275e+01	-4.325576e+02
2.160000e-06	-2.302268e-06	-6.407624e-09	-1.721826e+01	-4.306179e+02
2.170000e-06	-2.278837e-06	-6.381418e-09	-1.704302e+01	-4.286525e+02
2.180000e-06	-2.255306e-06	-6.352596e-09	-1.686704e+01	-4.266605e+02
2.190000e-06	-2.231668e-06	-6.322952e-09	-1.669025e+01	-4.246413e+02
2.200000e-06	-2.207866e-06	-6.291220e-09	-1.651225e+01	-4.225947e+02
2.210000e-06	-2.184053e-06	-6.260704e-09	-1.633415e+01	-4.205202e+02
2.220000e-06	-2.160257e-06	-6.229650e-09	-1.615618e+01	-4.184180e+02
2.230000e-06	-2.136552e-06	-6.196938e-09	-1.597890e+01	-4.162880e+02
2.240000e-06	-2.112841e-06	-6.165440e-09	-1.580157e+01	-4.141306e+02
2.250000e-06	-2.088937e-06	-6.135282e-09	-1.562279e+01	-4.119460e+02
2.260000e-06	-2.064991e-06	-6.105717e-09	-1.544371e+01	-4.097346e+02
2.270000e-06	-2.041058e-06	-6.077135e-09	-1.526472e+01	-4.074965e+02
2.280000e-06	-2.016987e-06	-6.045433e-09	-1.508469e+01	-4.052322e+02
2.290000e-06	-1.992839e-06	-6.010967e-09	-1.490409e+01	-4.029417e+02
2.300000e-06	-1.968688e-06	-5.975400e-09	-1.472348e+01	-4.006253e+02
2.310000e-06	-1.944538e-06	-5.939561e-09	-1.454286e+01	-3.982829e+02
2.320000e-06	-1.920340e-06	-5.907716e-09	-1.436189e+01	-3.959145e+02
2.330000e-06	-1.896072e-06	-5.875301e-09	-1.418039e+01	-3.935200e+02
2.340000e-06	-1.871786e-06	-5.843497e-09	-1.399876e+01	-3.910991e+02
2.350000e-06	-1.847459e-06	-5.814729e-09	-1.381682e+01	-3.886516e+02
2.360000e-06	-1.823140e-06	-5.784085e-09	-1.363495e+01	-3.861772e+02
2.370000e-06	-1.798833e-06	-5.747166e-09	-1.345316e+01	-3.836758e+02
2.380000e-06	-1.774455e-06	-5.703759e-09	-1.327084e+01	-3.811473e+02
2.390000e-06	-1.750024e-06	-5.657700e-09	-1.308813e+01	-3.785916e+02
2.400000e-06	-1.725585e-06	-5.613655e-09	-1.290535e+01	-3.760091e+02
2.410000e-06	-1.701162e-06	-5.574812e-09	-1.272269e+01	-3.734001e+02
2.420000e-06	-1.676725e-06	-5.539477e-09	-1.253993e+01	-3.707653e+02
2.430000e-06	-1.652173e-06	-5.508933e-09	-1.235631e+01	-3.681056e+02
2.440000e-06	-1.627573e-06	-5.480784e-09	-1.217234e+01	-3.654222e+02
2.450000e-06	-1.603027e-06	-5.448348e-09	-1.198876e+01	-3.627165e+02
2.460000e-06	-1.578458e-06	-5.409535e-09	-1.180501e+01	-3.599902e+02
2.470000e-06	-1.553824e-06	-5.364675e-09	-1.162077e+01	-3.572451e+02
2.480000e-06	-1.529179e-06	-5.320032e-09	-1.143646e+01	-3.544831e+02
2.490000e-06	-1.504519e-06	-5.276772e-09	-1.125203e+01	-3.517065e+02
2.500000e-06	-1.479805e-06	-5.236226e-09	-1.106721e+01	-3.489173e+02
2.510000e-06	-1.455092e-06	-5.200630e-09	-1.088238e+01	-3.461176e+02
2.520000e-06	-1.430434e-06	-5.168350e-09	-1.069796e+01	-3.433095e+02
2.530000e-06	-1.405743e-06	-5.135200e-09	-1.051331e+01	-3.404946e+02
2.540000e-06	-1.381007e-06	-5.096406e-09	-1.032831e+01	-3.376747e+02
2.550000e-06	-1.356209e-06	-5.053714e-09	-1.014285e+01	-3.348509e+02
2.560000e-06	-1.331303e-06	-5.009523e-09	-9.956585e+00	-3.320243e+02
2.570000e-06	-1.306339e-06	-4.966698e-09	-9.769878e+00	-3.291954e+02
2.580000e-06	-1.281372e-06	-4.924629e-09	-9.583157e+00	-3.263644e+02
2.590000e-06	-1.256375e-06	-4.884164e-09	-9.396207e+00	-3.235313e+02
2.600000e-06	-1.231306e-06	-4.846638e-09	-9.208720e+00	-3.206953e+02
2.610000e-06	-1.206116e-06	-4.811453e-09	-9.020331e+00	-3.178557e+02
2.620000e-06	-1.180919e-06	-4.776234e-09	-8.831885e+00	-3.150111e+02
2.630000e-06	-1.155837e-06	-4.736606e-09	-8.644305e+00	-3.121602e+02
2.640000e-06	-1.130653e-06	-4.694066e-09	-8.455956e+00	-3.093011e+02
2.650000e-06	-1.105285e-06	-4.649590e-09	-8.266229e+00	-3.064321e+02
2.660000e-06	-1.079770e-06	-4.605261e-09	-8.075410e+00	-3.035512e+02
2.670000e-06	-1.054303e-06	-4.561711e-09	-7.884946e+00	-3.006564e+02
2.680000e-06	-1.028930e-06	-4.516934e-09	-7.695184e+00	-2.977458e+02
2.690000e-06	-1.003467e-06	-4.476290e-09	-7.504756e+00	-2.948175e+02
2.700000e-06	-9.780213e-07	-4.439697e-09	-7.314450e+00	-2.918696e+02
2.710000e-06	-9.525821e-07	-4.400779e-09	-7.124195e+00	-2.889007e+02
2.720000e-06	-9.269811e-07	-4.356874e-09	-6.932730e+00	-2.859092e+02
2.730000e-06	-9.013312e-07	-4.309141e-09	-6.740898e+00	-2.828938e+02
2.740000e-06	-8.757500e-07	-4.261393e-09	-6.549581e+00	-2.798535e+02
2.750000e-06	-8.500650e-07	-4.214691e-09	-6.357487e+00	-2.767872e+02
2.760000e-06	-8.242200e-07	-4.170585e-09	-6.164197e+00	-2.736941e+02
2.770000e-06	-7.984124e-07	-4.127833e-09	-5.971186e+00	-2.705735e+02
2.780000e-06	-7.726703e-07	-4.084682e-09	-5.778666e+00	-2.674246e+02
2.790000e-06	-7.469478e-07	-4.041096e-09	-5.586292e+00	-2.642468e+02
2.800000e-06	-7.211489e-07	-3.997388e-09	-5.393347e+00	-2.610395e+02
2.810000e-06	-6.951183e-07	-3.951779e-09	-5.198668e+00	-2.578018e+02
2.820000e-06	-6.690383e-07	-3.900254e-09	-5.003620e+00	-2.545331e+02
2.830000e-06	-6.430042e-07	-3.845413e-09	-4.808916e+00	-2.512325e+02
2.840000e-06	-6.169435e-07	-3.791858e-09	-4.614012e+00	-2.478989e+02
