# Temperatura_=_20.0
# Concentracion g/m^3_=_10000.0
# C_Vs_to_Am_M_A/Vsm_=_65563218390.804596
# pendiente_HvsI_1/m_=_3716.3
# ordenada_HvsI_A/m_=_1297.0
# frecuencia_Hz_=_81178.37527044675

Tiempo_(s)	Campo_(V.s)	Magnetizacion_(V.s)	Campo_(kA/m)	Magnetizacion_(A/m)
0.000000e+00	-5.134557e-06	-9.258155e-09	-3.847060e+01	-6.078574e+02
1.000000e-08	-5.134579e-06	-9.217292e-09	-3.847076e+01	-6.079135e+02
2.000000e-08	-5.134464e-06	-9.218140e-09	-3.846990e+01	-6.079866e+02
3.000000e-08	-5.134304e-06	-9.272015e-09	-3.846870e+01	-6.080745e+02
4.000000e-08	-5.134083e-06	-9.373128e-09	-3.846705e+01	-6.081748e+02
5.000000e-08	-5.133789e-06	-9.305810e-09	-3.846485e+01	-6.082848e+02
6.000000e-08	-5.133439e-06	-9.359861e-09	-3.846223e+01	-6.084011e+02
7.000000e-08	-5.133050e-06	-9.447591e-09	-3.845931e+01	-6.085205e+02
8.000000e-08	-5.132633e-06	-9.415598e-09	-3.845619e+01	-6.086398e+02
9.000000e-08	-5.132194e-06	-9.373231e-09	-3.845290e+01	-6.087556e+02
1.000000e-07	-5.131539e-06	-9.155934e-09	-3.844799e+01	-6.088648e+02
1.100000e-07	-5.130554e-06	-9.183411e-09	-3.844061e+01	-6.089648e+02
1.200000e-07	-5.129377e-06	-9.211956e-09	-3.843179e+01	-6.090531e+02
1.300000e-07	-5.128070e-06	-9.287850e-09	-3.842200e+01	-6.091278e+02
1.400000e-07	-5.126725e-06	-9.381162e-09	-3.841192e+01	-6.091874e+02
1.500000e-07	-5.125117e-06	-9.276132e-09	-3.839987e+01	-6.092309e+02
1.600000e-07	-5.123170e-06	-9.332905e-09	-3.838528e+01	-6.092579e+02
1.700000e-07	-5.121054e-06	-9.367652e-09	-3.836943e+01	-6.092684e+02
1.800000e-07	-5.118856e-06	-9.442730e-09	-3.835296e+01	-6.092628e+02
1.900000e-07	-5.116416e-06	-9.356980e-09	-3.833468e+01	-6.092418e+02
2.000000e-07	-5.113698e-06	-9.177608e-09	-3.831432e+01	-6.092064e+02
2.100000e-07	-5.110817e-06	-9.269429e-09	-3.829273e+01	-6.091579e+02
2.200000e-07	-5.107802e-06	-9.359459e-09	-3.827014e+01	-6.090975e+02
2.300000e-07	-5.104665e-06	-9.442151e-09	-3.824663e+01	-6.090267e+02
2.400000e-07	-5.101200e-06	-9.253612e-09	-3.822068e+01	-6.089466e+02
2.500000e-07	-5.097533e-06	-9.187400e-09	-3.819320e+01	-6.088582e+02
2.600000e-07	-5.093753e-06	-9.313152e-09	-3.816488e+01	-6.087623e+02
2.700000e-07	-5.089859e-06	-9.353061e-09	-3.813570e+01	-6.086596e+02
2.800000e-07	-5.085899e-06	-9.372583e-09	-3.810603e+01	-6.085501e+02
2.900000e-07	-5.081830e-06	-9.228858e-09	-3.807555e+01	-6.084338e+02
3.000000e-07	-5.077745e-06	-9.270035e-09	-3.804494e+01	-6.083102e+02
3.100000e-07	-5.073624e-06	-9.283680e-09	-3.801406e+01	-6.081786e+02
3.200000e-07	-5.069360e-06	-9.330259e-09	-3.798211e+01	-6.080378e+02
3.300000e-07	-5.065022e-06	-9.308252e-09	-3.794961e+01	-6.078867e+02
3.400000e-07	-5.060652e-06	-9.185618e-09	-3.791687e+01	-6.077237e+02
3.500000e-07	-5.056230e-06	-9.252487e-09	-3.788374e+01	-6.075475e+02
3.600000e-07	-5.051731e-06	-9.300769e-09	-3.785003e+01	-6.073564e+02
3.700000e-07	-5.047157e-06	-9.361439e-09	-3.781576e+01	-6.071491e+02
3.800000e-07	-5.042469e-06	-9.238133e-09	-3.778064e+01	-6.069242e+02
3.900000e-07	-5.037562e-06	-9.182049e-09	-3.774386e+01	-6.066807e+02
4.000000e-07	-5.032467e-06	-9.253352e-09	-3.770569e+01	-6.064177e+02
4.100000e-07	-5.027203e-06	-9.257496e-09	-3.766625e+01	-6.061347e+02
4.200000e-07	-5.021859e-06	-9.260463e-09	-3.762621e+01	-6.058315e+02
4.300000e-07	-5.016481e-06	-9.166368e-09	-3.758592e+01	-6.055082e+02
4.400000e-07	-5.011007e-06	-9.201813e-09	-3.754491e+01	-6.051653e+02
4.500000e-07	-5.005343e-06	-9.239744e-09	-3.750247e+01	-6.048035e+02
4.600000e-07	-4.999474e-06	-9.257769e-09	-3.745849e+01	-6.044240e+02
4.700000e-07	-4.993434e-06	-9.206534e-09	-3.741324e+01	-6.040280e+02
4.800000e-07	-4.987282e-06	-9.103699e-09	-3.736714e+01	-6.036169e+02
4.900000e-07	-4.981095e-06	-9.167281e-09	-3.732079e+01	-6.031925e+02
5.000000e-07	-4.974871e-06	-9.187346e-09	-3.727416e+01	-6.027563e+02
5.100000e-07	-4.968562e-06	-9.168728e-09	-3.722689e+01	-6.023100e+02
5.200000e-07	-4.962149e-06	-9.097469e-09	-3.717884e+01	-6.018552e+02
5.300000e-07	-4.955596e-06	-9.110527e-09	-3.712974e+01	-6.013933e+02
5.400000e-07	-4.948743e-06	-9.166712e-09	-3.707839e+01	-6.009258e+02
5.500000e-07	-4.941750e-06	-9.125060e-09	-3.702600e+01	-6.004537e+02
5.600000e-07	-4.934717e-06	-9.115308e-09	-3.697330e+01	-5.999781e+02
5.700000e-07	-4.927408e-06	-9.062745e-09	-3.691854e+01	-5.994996e+02
5.800000e-07	-4.919858e-06	-9.080620e-09	-3.686197e+01	-5.990189e+02
5.900000e-07	-4.912265e-06	-9.107761e-09	-3.680508e+01	-5.985362e+02
6.000000e-07	-4.904571e-06	-9.104375e-09	-3.674744e+01	-5.980518e+02
6.100000e-07	-4.896703e-06	-9.070557e-09	-3.668848e+01	-5.975658e+02
6.200000e-07	-4.888745e-06	-9.020192e-09	-3.662886e+01	-5.970782e+02
6.300000e-07	-4.880754e-06	-9.074425e-09	-3.656898e+01	-5.965890e+02
6.400000e-07	-4.872738e-06	-9.059144e-09	-3.650892e+01	-5.960981e+02
6.500000e-07	-4.864629e-06	-9.023082e-09	-3.644817e+01	-5.956057e+02
6.600000e-07	-4.856380e-06	-8.991445e-09	-3.638636e+01	-5.951119e+02
6.700000e-07	-4.848106e-06	-9.006429e-09	-3.632437e+01	-5.946169e+02
6.800000e-07	-4.839808e-06	-9.045191e-09	-3.626220e+01	-5.941210e+02
6.900000e-07	-4.831405e-06	-9.009918e-09	-3.619924e+01	-5.936249e+02
7.000000e-07	-4.822879e-06	-8.994665e-09	-3.613536e+01	-5.931291e+02
7.100000e-07	-4.814272e-06	-8.963848e-09	-3.607087e+01	-5.926345e+02
7.200000e-07	-4.805635e-06	-8.984276e-09	-3.600616e+01	-5.921419e+02
7.300000e-07	-4.796817e-06	-8.981392e-09	-3.594009e+01	-5.916522e+02
7.400000e-07	-4.787760e-06	-8.946604e-09	-3.587223e+01	-5.911663e+02
7.500000e-07	-4.778546e-06	-8.940992e-09	-3.580319e+01	-5.906852e+02
7.600000e-07	-4.769247e-06	-8.930874e-09	-3.573352e+01	-5.902096e+02
7.700000e-07	-4.759689e-06	-8.959217e-09	-3.566191e+01	-5.897401e+02
7.800000e-07	-4.749770e-06	-8.937238e-09	-3.558759e+01	-5.892774e+02
7.900000e-07	-4.739709e-06	-8.918687e-09	-3.551221e+01	-5.888214e+02
8.000000e-07	-4.729549e-06	-8.906421e-09	-3.543609e+01	-5.883722e+02
8.100000e-07	-4.719212e-06	-8.904703e-09	-3.535863e+01	-5.879295e+02
8.200000e-07	-4.708782e-06	-8.914903e-09	-3.528048e+01	-5.874925e+02
8.300000e-07	-4.698131e-06	-8.873190e-09	-3.520068e+01	-5.870601e+02
8.400000e-07	-4.687299e-06	-8.860345e-09	-3.511952e+01	-5.866311e+02
8.500000e-07	-4.676227e-06	-8.854503e-09	-3.503657e+01	-5.862038e+02
8.600000e-07	-4.664801e-06	-8.872409e-09	-3.495096e+01	-5.857763e+02
8.700000e-07	-4.653260e-06	-8.868734e-09	-3.486449e+01	-5.853464e+02
8.800000e-07	-4.641607e-06	-8.841890e-09	-3.477718e+01	-5.849119e+02
8.900000e-07	-4.629759e-06	-8.841159e-09	-3.468841e+01	-5.844703e+02
9.000000e-07	-4.617749e-06	-8.828987e-09	-3.459842e+01	-5.840192e+02
9.100000e-07	-4.605654e-06	-8.828608e-09	-3.450780e+01	-5.835562e+02
9.200000e-07	-4.593494e-06	-8.794537e-09	-3.441669e+01	-5.830787e+02
9.300000e-07	-4.581247e-06	-8.775092e-09	-3.432493e+01	-5.825847e+02
9.400000e-07	-4.568863e-06	-8.776245e-09	-3.423214e+01	-5.820721e+02
9.500000e-07	-4.556402e-06	-8.776992e-09	-3.413878e+01	-5.815391e+02
9.600000e-07	-4.543871e-06	-8.782097e-09	-3.404490e+01	-5.809841e+02
9.700000e-07	-4.531369e-06	-8.755682e-09	-3.395122e+01	-5.804060e+02
9.800000e-07	-4.518796e-06	-8.753216e-09	-3.385702e+01	-5.798039e+02
9.900000e-07	-4.505992e-06	-8.746703e-09	-3.376109e+01	-5.791772e+02
1.000000e-06	-4.493090e-06	-8.738714e-09	-3.366442e+01	-5.785257e+02
1.010000e-06	-4.480010e-06	-8.718278e-09	-3.356641e+01	-5.778493e+02
1.020000e-06	-4.466775e-06	-8.688601e-09	-3.346726e+01	-5.771485e+02
1.030000e-06	-4.453520e-06	-8.687637e-09	-3.336794e+01	-5.764238e+02
1.040000e-06	-4.440077e-06	-8.676470e-09	-3.326722e+01	-5.756760e+02
1.050000e-06	-4.426404e-06	-8.669492e-09	-3.316477e+01	-5.749060e+02
1.060000e-06	-4.412636e-06	-8.647262e-09	-3.306162e+01	-5.741148e+02
1.070000e-06	-4.398783e-06	-8.634924e-09	-3.295783e+01	-5.733036e+02
1.080000e-06	-4.384741e-06	-8.631215e-09	-3.285262e+01	-5.724735e+02
1.090000e-06	-4.370542e-06	-8.614920e-09	-3.274623e+01	-5.716257e+02
1.100000e-06	-4.356127e-06	-8.598720e-09	-3.263822e+01	-5.707614e+02
1.110000e-06	-4.341587e-06	-8.566207e-09	-3.252928e+01	-5.698815e+02
1.120000e-06	-4.327153e-06	-8.549248e-09	-3.242113e+01	-5.689872e+02
1.130000e-06	-4.312717e-06	-8.529092e-09	-3.231298e+01	-5.680794e+02
1.140000e-06	-4.298149e-06	-8.512913e-09	-3.220383e+01	-5.671590e+02
1.150000e-06	-4.283389e-06	-8.498489e-09	-3.209324e+01	-5.662268e+02
1.160000e-06	-4.268433e-06	-8.478243e-09	-3.198118e+01	-5.652834e+02
1.170000e-06	-4.253352e-06	-8.471779e-09	-3.186818e+01	-5.643297e+02
1.180000e-06	-4.238075e-06	-8.455230e-09	-3.175372e+01	-5.633663e+02
1.190000e-06	-4.222586e-06	-8.442055e-09	-3.163767e+01	-5.623938e+02
1.200000e-06	-4.207087e-06	-8.417548e-09	-3.152154e+01	-5.614128e+02
1.210000e-06	-4.191315e-06	-8.394746e-09	-3.140338e+01	-5.604242e+02
1.220000e-06	-4.175291e-06	-8.382574e-09	-3.128332e+01	-5.594285e+02
1.230000e-06	-4.159182e-06	-8.369371e-09	-3.116262e+01	-5.584265e+02
1.240000e-06	-4.142786e-06	-8.360450e-09	-3.103977e+01	-5.574190e+02
1.250000e-06	-4.126341e-06	-8.337394e-09	-3.091656e+01	-5.564070e+02
1.260000e-06	-4.109807e-06	-8.321792e-09	-3.079267e+01	-5.553912e+02
1.270000e-06	-4.093116e-06	-8.305231e-09	-3.066762e+01	-5.543726e+02
1.280000e-06	-4.076333e-06	-8.287844e-09	-3.054187e+01	-5.533522e+02
1.290000e-06	-4.059292e-06	-8.269511e-09	-3.041419e+01	-5.523309e+02
1.300000e-06	-4.042115e-06	-8.246998e-09	-3.028549e+01	-5.513098e+02
1.310000e-06	-4.024842e-06	-8.236392e-09	-3.015608e+01	-5.502896e+02
1.320000e-06	-4.007513e-06	-8.220477e-09	-3.002624e+01	-5.492713e+02
1.330000e-06	-3.990125e-06	-8.206136e-09	-2.989596e+01	-5.482555e+02
1.340000e-06	-3.972618e-06	-8.186044e-09	-2.976479e+01	-5.472430e+02
1.350000e-06	-3.955079e-06	-8.167041e-09	-2.963338e+01	-5.462342e+02
1.360000e-06	-3.937475e-06	-8.153849e-09	-2.950148e+01	-5.452295e+02
1.370000e-06	-3.919844e-06	-8.135874e-09	-2.936938e+01	-5.442290e+02
1.380000e-06	-3.902158e-06	-8.119212e-09	-2.923687e+01	-5.432328e+02
1.390000e-06	-3.884415e-06	-8.095515e-09	-2.910393e+01	-5.422406e+02
1.400000e-06	-3.866619e-06	-8.078912e-09	-2.897059e+01	-5.412522e+02
1.410000e-06	-3.848672e-06	-8.061587e-09	-2.883613e+01	-5.402670e+02
1.420000e-06	-3.830621e-06	-8.040849e-09	-2.870087e+01	-5.392844e+02
1.430000e-06	-3.812558e-06	-8.022594e-09	-2.856554e+01	-5.383033e+02
1.440000e-06	-3.794438e-06	-8.003242e-09	-2.842978e+01	-5.373229e+02
1.450000e-06	-3.776147e-06	-7.992310e-09	-2.829273e+01	-5.363421e+02
1.460000e-06	-3.757741e-06	-7.978059e-09	-2.815482e+01	-5.353596e+02
1.470000e-06	-3.739335e-06	-7.965375e-09	-2.801692e+01	-5.343742e+02
1.480000e-06	-3.720916e-06	-7.948979e-09	-2.787891e+01	-5.333845e+02
1.490000e-06	-3.702409e-06	-7.930752e-09	-2.774025e+01	-5.323893e+02
1.500000e-06	-3.683767e-06	-7.914661e-09	-2.760058e+01	-5.313870e+02
1.510000e-06	-3.664998e-06	-7.894367e-09	-2.745995e+01	-5.303763e+02
1.520000e-06	-3.646127e-06	-7.877480e-09	-2.731856e+01	-5.293558e+02
1.530000e-06	-3.627174e-06	-7.856203e-09	-2.717656e+01	-5.283244e+02
1.540000e-06	-3.608121e-06	-7.840001e-09	-2.703380e+01	-5.272806e+02
1.550000e-06	-3.588858e-06	-7.825374e-09	-2.688947e+01	-5.262232e+02
1.560000e-06	-3.569352e-06	-7.808139e-09	-2.674333e+01	-5.251511e+02
1.570000e-06	-3.549763e-06	-7.791609e-09	-2.659656e+01	-5.240633e+02
1.580000e-06	-3.530133e-06	-7.771106e-09	-2.644948e+01	-5.229585e+02
1.590000e-06	-3.510371e-06	-7.753169e-09	-2.630141e+01	-5.218359e+02
1.600000e-06	-3.490634e-06	-7.734099e-09	-2.615353e+01	-5.206946e+02
1.610000e-06	-3.470806e-06	-7.715313e-09	-2.600497e+01	-5.195336e+02
1.620000e-06	-3.450765e-06	-7.694615e-09	-2.585481e+01	-5.183523e+02
1.630000e-06	-3.430723e-06	-7.673580e-09	-2.570465e+01	-5.171499e+02
1.640000e-06	-3.410678e-06	-7.652993e-09	-2.555446e+01	-5.159258e+02
1.650000e-06	-3.390612e-06	-7.632032e-09	-2.540411e+01	-5.146793e+02
1.660000e-06	-3.370526e-06	-7.612769e-09	-2.525362e+01	-5.134099e+02
1.670000e-06	-3.350398e-06	-7.591434e-09	-2.510282e+01	-5.121171e+02
1.680000e-06	-3.330208e-06	-7.573097e-09	-2.495154e+01	-5.108006e+02
1.690000e-06	-3.309955e-06	-7.553193e-09	-2.479979e+01	-5.094600e+02
1.700000e-06	-3.289687e-06	-7.531294e-09	-2.464794e+01	-5.080951e+02
1.710000e-06	-3.269366e-06	-7.508706e-09	-2.449568e+01	-5.067058e+02
1.720000e-06	-3.248976e-06	-7.486496e-09	-2.434291e+01	-5.052919e+02
1.730000e-06	-3.228501e-06	-7.466530e-09	-2.418950e+01	-5.038535e+02
1.740000e-06	-3.208038e-06	-7.439171e-09	-2.403618e+01	-5.023907e+02
1.750000e-06	-3.187603e-06	-7.409045e-09	-2.388307e+01	-5.009038e+02
1.760000e-06	-3.167093e-06	-7.382146e-09	-2.372940e+01	-4.993930e+02
1.770000e-06	-3.146491e-06	-7.361650e-09	-2.357505e+01	-4.978589e+02
1.780000e-06	-3.125868e-06	-7.343127e-09	-2.342053e+01	-4.963019e+02
1.790000e-06	-3.105245e-06	-7.322009e-09	-2.326601e+01	-4.947227e+02
1.800000e-06	-3.084489e-06	-7.300689e-09	-2.311049e+01	-4.931220e+02
1.810000e-06	-3.063632e-06	-7.276073e-09	-2.295422e+01	-4.915007e+02
1.820000e-06	-3.042709e-06	-7.250805e-09	-2.279746e+01	-4.898596e+02
1.830000e-06	-3.021659e-06	-7.221170e-09	-2.263974e+01	-4.881999e+02
1.840000e-06	-3.000417e-06	-7.189549e-09	-2.248058e+01	-4.865224e+02
1.850000e-06	-2.979071e-06	-7.159211e-09	-2.232065e+01	-4.848285e+02
1.860000e-06	-2.957696e-06	-7.133772e-09	-2.216050e+01	-4.831191e+02
1.870000e-06	-2.936179e-06	-7.114706e-09	-2.199928e+01	-4.813956e+02
1.880000e-06	-2.914534e-06	-7.093343e-09	-2.183711e+01	-4.796591e+02
1.890000e-06	-2.892888e-06	-7.071084e-09	-2.167493e+01	-4.779109e+02
1.900000e-06	-2.871144e-06	-7.045320e-09	-2.151201e+01	-4.761522e+02
1.910000e-06	-2.849286e-06	-7.014687e-09	-2.134824e+01	-4.743842e+02
1.920000e-06	-2.827389e-06	-6.982300e-09	-2.118417e+01	-4.726080e+02
1.930000e-06	-2.805400e-06	-6.950815e-09	-2.101942e+01	-4.708248e+02
1.940000e-06	-2.783330e-06	-6.923714e-09	-2.085406e+01	-4.690354e+02
1.950000e-06	-2.761155e-06	-6.899264e-09	-2.068792e+01	-4.672410e+02
1.960000e-06	-2.739012e-06	-6.877009e-09	-2.052201e+01	-4.654423e+02
1.970000e-06	-2.716943e-06	-6.855671e-09	-2.035666e+01	-4.636400e+02
1.980000e-06	-2.694746e-06	-6.833488e-09	-2.019035e+01	-4.618347e+02
1.990000e-06	-2.672418e-06	-6.807659e-09	-2.002306e+01	-4.600269e+02
2.000000e-06	-2.650058e-06	-6.776716e-09	-1.985552e+01	-4.582169e+02
2.010000e-06	-2.627565e-06	-6.748517e-09	-1.968699e+01	-4.564049e+02
2.020000e-06	-2.605027e-06	-6.722362e-09	-1.951813e+01	-4.545909e+02
2.030000e-06	-2.582571e-06	-6.694729e-09	-1.934988e+01	-4.527747e+02
2.040000e-06	-2.560071e-06	-6.663852e-09	-1.918130e+01	-4.509560e+02
2.050000e-06	-2.537472e-06	-6.636037e-09	-1.901198e+01	-4.491344e+02
2.060000e-06	-2.514787e-06	-6.613526e-09	-1.884201e+01	-4.473091e+02
2.070000e-06	-2.492056e-06	-6.592414e-09	-1.867170e+01	-4.454795e+02
2.080000e-06	-2.469235e-06	-6.570545e-09	-1.850071e+01	-4.436447e+02
2.090000e-06	-2.446271e-06	-6.543283e-09	-1.832865e+01	-4.418036e+02
2.100000e-06	-2.423233e-06	-6.517611e-09	-1.815604e+01	-4.399552e+02
2.110000e-06	-2.400132e-06	-6.492770e-09	-1.798296e+01	-4.380981e+02
2.120000e-06	-2.376886e-06	-6.465722e-09	-1.780879e+01	-4.362311e+02
2.130000e-06	-2.353570e-06	-6.436175e-09	-1.763410e+01	-4.343529e+02
2.140000e-06	-2.330166e-06	-6.405754e-09	-1.745873e+01	-4.324620e+02
2.150000e-06	-2.306675e-06	-6.380649e-09	-1.728273e+01	-4.305572e+02
2.160000e-06	-2.283098e-06	-6.357174e-09	-1.710608e+01	-4.286370e+02
2.170000e-06	-2.259541e-06	-6.330168e-09	-1.692958e+01	-4.267001e+02
2.180000e-06	-2.236125e-06	-6.302942e-09	-1.675414e+01	-4.247451e+02
2.190000e-06	-2.212593e-06	-6.277810e-09	-1.657782e+01	-4.227707e+02
2.200000e-06	-2.188873e-06	-6.256179e-09	-1.640010e+01	-4.207758e+02
2.210000e-06	-2.165088e-06	-6.234145e-09	-1.622189e+01	-4.187592e+02
2.220000e-06	-2.141335e-06	-6.204628e-09	-1.604393e+01	-4.167198e+02
2.230000e-06	-2.117596e-06	-6.174512e-09	-1.586606e+01	-4.146566e+02
2.240000e-06	-2.093711e-06	-6.148876e-09	-1.568711e+01	-4.125689e+02
2.250000e-06	-2.069702e-06	-6.119140e-09	-1.550721e+01	-4.104556e+02
2.260000e-06	-2.045699e-06	-6.083826e-09	-1.532738e+01	-4.083161e+02
2.270000e-06	-2.021690e-06	-6.047734e-09	-1.514748e+01	-4.061498e+02
2.280000e-06	-1.997563e-06	-6.017519e-09	-1.496671e+01	-4.039560e+02
2.290000e-06	-1.973426e-06	-5.990145e-09	-1.478587e+01	-4.017342e+02
2.300000e-06	-1.949379e-06	-5.960566e-09	-1.460570e+01	-3.994840e+02
2.310000e-06	-1.925302e-06	-5.931991e-09	-1.442530e+01	-3.972049e+02
2.320000e-06	-1.901227e-06	-5.902694e-09	-1.424492e+01	-3.948967e+02
2.330000e-06	-1.877055e-06	-5.873024e-09	-1.406381e+01	-3.925589e+02
2.340000e-06	-1.852780e-06	-5.838067e-09	-1.388193e+01	-3.901915e+02
2.350000e-06	-1.828538e-06	-5.798603e-09	-1.370030e+01	-3.877941e+02
2.360000e-06	-1.804278e-06	-5.757649e-09	-1.351853e+01	-3.853668e+02
2.370000e-06	-1.779924e-06	-5.718717e-09	-1.333606e+01	-3.829094e+02
2.380000e-06	-1.755497e-06	-5.685551e-09	-1.315304e+01	-3.804220e+02
2.390000e-06	-1.731090e-06	-5.653357e-09	-1.297017e+01	-3.779047e+02
2.400000e-06	-1.706678e-06	-5.620685e-09	-1.278726e+01	-3.753577e+02
2.410000e-06	-1.682217e-06	-5.585323e-09	-1.260399e+01	-3.727813e+02
2.420000e-06	-1.657786e-06	-5.551147e-09	-1.242094e+01	-3.701759e+02
2.430000e-06	-1.633381e-06	-5.515481e-09	-1.223809e+01	-3.675420e+02
2.440000e-06	-1.608888e-06	-5.472202e-09	-1.205457e+01	-3.648802e+02
2.450000e-06	-1.584372e-06	-5.425852e-09	-1.187089e+01	-3.621913e+02
2.460000e-06	-1.559801e-06	-5.380927e-09	-1.168679e+01	-3.594761e+02
2.470000e-06	-1.535162e-06	-5.340835e-09	-1.150218e+01	-3.567357e+02
2.480000e-06	-1.510520e-06	-5.304327e-09	-1.131755e+01	-3.539710e+02
2.490000e-06	-1.485799e-06	-5.270650e-09	-1.113233e+01	-3.511834e+02
2.500000e-06	-1.460918e-06	-5.237945e-09	-1.094591e+01	-3.483739e+02
2.510000e-06	-1.435992e-06	-5.203629e-09	-1.075915e+01	-3.455440e+02
2.520000e-06	-1.411219e-06	-5.165296e-09	-1.057354e+01	-3.426949e+02
2.530000e-06	-1.386417e-06	-5.122117e-09	-1.038771e+01	-3.398281e+02
2.540000e-06	-1.361518e-06	-5.075905e-09	-1.020116e+01	-3.369449e+02
2.550000e-06	-1.336631e-06	-5.026644e-09	-1.001469e+01	-3.340466e+02
2.560000e-06	-1.311757e-06	-4.981637e-09	-9.828321e+00	-3.311345e+02
2.570000e-06	-1.286810e-06	-4.943312e-09	-9.641404e+00	-3.282097e+02
2.580000e-06	-1.261715e-06	-4.907089e-09	-9.453381e+00	-3.252734e+02
2.590000e-06	-1.236621e-06	-4.870360e-09	-9.265368e+00	-3.223265e+02
2.600000e-06	-1.211442e-06	-4.830948e-09	-9.076714e+00	-3.193698e+02
2.610000e-06	-1.186253e-06	-4.791575e-09	-8.887982e+00	-3.164039e+02
2.620000e-06	-1.161125e-06	-4.749096e-09	-8.699715e+00	-3.134294e+02
2.630000e-06	-1.135907e-06	-4.702108e-09	-8.510768e+00	-3.104465e+02
2.640000e-06	-1.110637e-06	-4.654165e-09	-8.321431e+00	-3.074554e+02
2.650000e-06	-1.085418e-06	-4.607447e-09	-8.132484e+00	-3.044560e+02
2.660000e-06	-1.060156e-06	-4.566144e-09	-7.943202e+00	-3.014482e+02
2.670000e-06	-1.034775e-06	-4.527924e-09	-7.753042e+00	-2.984314e+02
2.680000e-06	-1.009364e-06	-4.490460e-09	-7.562646e+00	-2.954052e+02
2.690000e-06	-9.839172e-07	-4.451853e-09	-7.371987e+00	-2.923689e+02
2.700000e-06	-9.584719e-07	-4.411655e-09	-7.181338e+00	-2.893216e+02
2.710000e-06	-9.330713e-07	-4.368421e-09	-6.991024e+00	-2.862624e+02
2.720000e-06	-9.075498e-07	-4.318996e-09	-6.799805e+00	-2.831904e+02
2.730000e-06	-8.818688e-07	-4.265922e-09	-6.607391e+00	-2.801043e+02
2.740000e-06	-8.561793e-07	-4.213040e-09	-6.414912e+00	-2.770031e+02
2.750000e-06	-8.305569e-07	-4.166914e-09	-6.222936e+00	-2.738854e+02
2.760000e-06	-8.048299e-07	-4.125632e-09	-6.030178e+00	-2.707499e+02
2.770000e-06	-7.789874e-07	-4.083625e-09	-5.836553e+00	-2.675955e+02
2.780000e-06	-7.532847e-07	-4.040331e-09	-5.643976e+00	-2.644207e+02
2.790000e-06	-7.276383e-07	-3.995628e-09	-5.451820e+00	-2.612241e+02
2.800000e-06	-7.018964e-07	-3.949829e-09	-5.258949e+00	-2.580045e+02
2.810000e-06	-6.760657e-07	-3.899963e-09	-5.065413e+00	-2.547605e+02
2.820000e-06	-6.502183e-07	-3.846689e-09	-4.871752e+00	-2.514907e+02
2.830000e-06	-6.242291e-07	-3.793660e-09	-4.677028e+00	-2.481937e+02
2.840000e-06	-5.981296e-07	-3.744379e-09	-4.481478e+00	-2.448682e+02
