# Temperatura_=_20.0
# Concentracion g/m^3_=_10000.0
# C_Vs_to_Am_M_A/Vsm_=_65563218390.804596
# pendiente_HvsI_1/m_=_3716.3
# ordenada_HvsI_A/m_=_1297.0
# frecuencia_Hz_=_81179.28673995838

Tiempo_(s)	Campo_(V.s)	Magnetizacion_(V.s)	Campo_(kA/m)	Magnetizacion_(A/m)
0.000000e+00	-5.122832e-06	-9.323412e-09	-3.847130e+01	-6.077563e+02
1.000000e-08	-5.122879e-06	-9.267206e-09	-3.847166e+01	-6.078104e+02
2.000000e-08	-5.122762e-06	-9.250957e-09	-3.847078e+01	-6.078879e+02
3.000000e-08	-5.122599e-06	-9.199578e-09	-3.846955e+01	-6.079901e+02
4.000000e-08	-5.122424e-06	-9.121362e-09	-3.846824e+01	-6.081175e+02
5.000000e-08	-5.122176e-06	-9.147480e-09	-3.846638e+01	-6.082697e+02
6.000000e-08	-5.121806e-06	-9.213210e-09	-3.846360e+01	-6.084453e+02
7.000000e-08	-5.121370e-06	-9.243779e-09	-3.846033e+01	-6.086418e+02
8.000000e-08	-5.120859e-06	-9.429158e-09	-3.845649e+01	-6.088560e+02
9.000000e-08	-5.120292e-06	-9.630314e-09	-3.845223e+01	-6.090838e+02
1.000000e-07	-5.119686e-06	-9.568562e-09	-3.844768e+01	-6.093205e+02
1.100000e-07	-5.118999e-06	-9.433739e-09	-3.844252e+01	-6.095606e+02
1.200000e-07	-5.118118e-06	-9.426482e-09	-3.843590e+01	-6.097985e+02
1.300000e-07	-5.117119e-06	-9.332780e-09	-3.842840e+01	-6.100282e+02
1.400000e-07	-5.115985e-06	-9.210139e-09	-3.841989e+01	-6.102440e+02
1.500000e-07	-5.114613e-06	-9.142055e-09	-3.840958e+01	-6.104402e+02
1.600000e-07	-5.113020e-06	-9.112954e-09	-3.839761e+01	-6.106116e+02
1.700000e-07	-5.111224e-06	-9.239469e-09	-3.838413e+01	-6.107535e+02
1.800000e-07	-5.109179e-06	-9.297893e-09	-3.836877e+01	-6.108621e+02
1.900000e-07	-5.106869e-06	-9.419386e-09	-3.835143e+01	-6.109343e+02
2.000000e-07	-5.104346e-06	-9.471803e-09	-3.833248e+01	-6.109680e+02
2.100000e-07	-5.101593e-06	-9.370718e-09	-3.831180e+01	-6.109621e+02
2.200000e-07	-5.098706e-06	-9.345125e-09	-3.829012e+01	-6.109164e+02
2.300000e-07	-5.095634e-06	-9.384070e-09	-3.826705e+01	-6.108316e+02
2.400000e-07	-5.092292e-06	-9.438612e-09	-3.824195e+01	-6.107094e+02
2.500000e-07	-5.088752e-06	-9.233933e-09	-3.821537e+01	-6.105522e+02
2.600000e-07	-5.085179e-06	-9.176109e-09	-3.818854e+01	-6.103629e+02
2.700000e-07	-5.081500e-06	-9.324860e-09	-3.816091e+01	-6.101450e+02
2.800000e-07	-5.077666e-06	-9.366558e-09	-3.813211e+01	-6.099024e+02
2.900000e-07	-5.073767e-06	-9.287841e-09	-3.810283e+01	-6.096389e+02
3.000000e-07	-5.069709e-06	-9.229655e-09	-3.807236e+01	-6.093585e+02
3.100000e-07	-5.065472e-06	-9.358076e-09	-3.804054e+01	-6.090649e+02
3.200000e-07	-5.061147e-06	-9.330299e-09	-3.800806e+01	-6.087617e+02
3.300000e-07	-5.056829e-06	-9.257184e-09	-3.797563e+01	-6.084517e+02
3.400000e-07	-5.052518e-06	-9.271246e-09	-3.794326e+01	-6.081376e+02
3.500000e-07	-5.048104e-06	-9.251833e-09	-3.791011e+01	-6.078215e+02
3.600000e-07	-5.043548e-06	-9.193764e-09	-3.787589e+01	-6.075046e+02
3.700000e-07	-5.038914e-06	-9.189474e-09	-3.784110e+01	-6.071880e+02
3.800000e-07	-5.034235e-06	-9.317948e-09	-3.780596e+01	-6.068720e+02
3.900000e-07	-5.029463e-06	-9.257201e-09	-3.777012e+01	-6.065564e+02
4.000000e-07	-5.024560e-06	-9.167036e-09	-3.773330e+01	-6.062408e+02
4.100000e-07	-5.019629e-06	-9.259197e-09	-3.769627e+01	-6.059243e+02
4.200000e-07	-5.014492e-06	-9.313700e-09	-3.765770e+01	-6.056061e+02
4.300000e-07	-5.009067e-06	-9.213175e-09	-3.761695e+01	-6.052850e+02
4.400000e-07	-5.003531e-06	-9.102842e-09	-3.757538e+01	-6.049599e+02
4.500000e-07	-4.997891e-06	-9.189465e-09	-3.753302e+01	-6.046299e+02
4.600000e-07	-4.992088e-06	-9.208944e-09	-3.748944e+01	-6.042940e+02
4.700000e-07	-4.986142e-06	-9.153808e-09	-3.744479e+01	-6.039518e+02
4.800000e-07	-4.980152e-06	-9.167204e-09	-3.739981e+01	-6.036028e+02
4.900000e-07	-4.974041e-06	-9.181412e-09	-3.735392e+01	-6.032469e+02
5.000000e-07	-4.967760e-06	-9.191096e-09	-3.730675e+01	-6.028843e+02
5.100000e-07	-4.961376e-06	-9.169778e-09	-3.725880e+01	-6.025154e+02
5.200000e-07	-4.954896e-06	-9.172732e-09	-3.721014e+01	-6.021409e+02
5.300000e-07	-4.948273e-06	-9.105703e-09	-3.716041e+01	-6.017615e+02
5.400000e-07	-4.941484e-06	-9.078149e-09	-3.710942e+01	-6.013780e+02
5.500000e-07	-4.934544e-06	-9.126992e-09	-3.705730e+01	-6.009916e+02
5.600000e-07	-4.927498e-06	-9.120897e-09	-3.700439e+01	-6.006029e+02
5.700000e-07	-4.920360e-06	-9.111202e-09	-3.695079e+01	-6.002128e+02
5.800000e-07	-4.913032e-06	-9.100854e-09	-3.689576e+01	-5.998221e+02
5.900000e-07	-4.905536e-06	-9.131702e-09	-3.683946e+01	-5.994312e+02
6.000000e-07	-4.897926e-06	-9.125708e-09	-3.678231e+01	-5.990404e+02
6.100000e-07	-4.890222e-06	-9.101820e-09	-3.672446e+01	-5.986500e+02
6.200000e-07	-4.882433e-06	-9.072828e-09	-3.666596e+01	-5.982597e+02
6.300000e-07	-4.874476e-06	-9.040513e-09	-3.660621e+01	-5.978694e+02
6.400000e-07	-4.866437e-06	-9.079487e-09	-3.654584e+01	-5.974786e+02
6.500000e-07	-4.858298e-06	-9.077059e-09	-3.648471e+01	-5.970870e+02
6.600000e-07	-4.850037e-06	-9.049495e-09	-3.642267e+01	-5.966938e+02
6.700000e-07	-4.841752e-06	-9.031628e-09	-3.636045e+01	-5.962986e+02
6.800000e-07	-4.833391e-06	-9.048155e-09	-3.629767e+01	-5.959007e+02
6.900000e-07	-4.824961e-06	-9.056483e-09	-3.623436e+01	-5.954997e+02
7.000000e-07	-4.816506e-06	-9.017721e-09	-3.617086e+01	-5.950952e+02
7.100000e-07	-4.808011e-06	-9.007992e-09	-3.610707e+01	-5.946868e+02
7.200000e-07	-4.799436e-06	-8.994882e-09	-3.604267e+01	-5.942743e+02
7.300000e-07	-4.790695e-06	-9.005423e-09	-3.597703e+01	-5.938579e+02
7.400000e-07	-4.781797e-06	-8.998623e-09	-3.591021e+01	-5.934374e+02
7.500000e-07	-4.772697e-06	-8.974740e-09	-3.584187e+01	-5.930130e+02
7.600000e-07	-4.763369e-06	-8.972514e-09	-3.577182e+01	-5.925849e+02
7.700000e-07	-4.753977e-06	-8.970458e-09	-3.570129e+01	-5.921531e+02
7.800000e-07	-4.744495e-06	-8.982000e-09	-3.563008e+01	-5.917178e+02
7.900000e-07	-4.734785e-06	-8.963039e-09	-3.555716e+01	-5.912790e+02
8.000000e-07	-4.724830e-06	-8.949913e-09	-3.548240e+01	-5.908363e+02
8.100000e-07	-4.714642e-06	-8.939149e-09	-3.540589e+01	-5.903895e+02
8.200000e-07	-4.704270e-06	-8.937049e-09	-3.532799e+01	-5.899378e+02
8.300000e-07	-4.693662e-06	-8.938434e-09	-3.524833e+01	-5.894804e+02
8.400000e-07	-4.682825e-06	-8.906797e-09	-3.516695e+01	-5.890161e+02
8.500000e-07	-4.671849e-06	-8.898041e-09	-3.508452e+01	-5.885436e+02
8.600000e-07	-4.660667e-06	-8.897440e-09	-3.500055e+01	-5.880613e+02
8.700000e-07	-4.649257e-06	-8.900147e-09	-3.491487e+01	-5.875675e+02
8.800000e-07	-4.637674e-06	-8.882342e-09	-3.482788e+01	-5.870602e+02
8.900000e-07	-4.625988e-06	-8.859476e-09	-3.474012e+01	-5.865377e+02
9.000000e-07	-4.614105e-06	-8.857964e-09	-3.465088e+01	-5.859980e+02
9.100000e-07	-4.602088e-06	-8.847714e-09	-3.456063e+01	-5.854394e+02
9.200000e-07	-4.590055e-06	-8.840336e-09	-3.447027e+01	-5.848604e+02
9.300000e-07	-4.577864e-06	-8.816985e-09	-3.437872e+01	-5.842597e+02
9.400000e-07	-4.565520e-06	-8.806124e-09	-3.428602e+01	-5.836362e+02
9.500000e-07	-4.553083e-06	-8.802843e-09	-3.419262e+01	-5.829893e+02
9.600000e-07	-4.540531e-06	-8.796255e-09	-3.409835e+01	-5.823188e+02
9.700000e-07	-4.527893e-06	-8.789324e-09	-3.400344e+01	-5.816249e+02
9.800000e-07	-4.515163e-06	-8.765810e-09	-3.390785e+01	-5.809080e+02
9.900000e-07	-4.502321e-06	-8.758323e-09	-3.381141e+01	-5.801692e+02
1.000000e-06	-4.489402e-06	-8.746375e-09	-3.371439e+01	-5.794096e+02
1.010000e-06	-4.476380e-06	-8.731791e-09	-3.361659e+01	-5.786309e+02
1.020000e-06	-4.463194e-06	-8.710066e-09	-3.351757e+01	-5.778348e+02
1.030000e-06	-4.449857e-06	-8.689320e-09	-3.341741e+01	-5.770232e+02
1.040000e-06	-4.436410e-06	-8.684822e-09	-3.331643e+01	-5.761979e+02
1.050000e-06	-4.422787e-06	-8.669224e-09	-3.321412e+01	-5.753611e+02
1.060000e-06	-4.408952e-06	-8.655118e-09	-3.311022e+01	-5.745144e+02
1.070000e-06	-4.394999e-06	-8.636306e-09	-3.300545e+01	-5.736595e+02
1.080000e-06	-4.380950e-06	-8.627990e-09	-3.289994e+01	-5.727980e+02
1.090000e-06	-4.366741e-06	-8.621498e-09	-3.279323e+01	-5.719309e+02
1.100000e-06	-4.352504e-06	-8.604825e-09	-3.268631e+01	-5.710593e+02
1.110000e-06	-4.338262e-06	-8.588955e-09	-3.257936e+01	-5.701837e+02
1.120000e-06	-4.323811e-06	-8.566441e-09	-3.247084e+01	-5.693044e+02
1.130000e-06	-4.309235e-06	-8.554876e-09	-3.236137e+01	-5.684217e+02
1.140000e-06	-4.294685e-06	-8.538049e-09	-3.225211e+01	-5.675354e+02
1.150000e-06	-4.280010e-06	-8.519244e-09	-3.214190e+01	-5.666452e+02
1.160000e-06	-4.265103e-06	-8.501793e-09	-3.202995e+01	-5.657509e+02
1.170000e-06	-4.250092e-06	-8.483795e-09	-3.191722e+01	-5.648520e+02
1.180000e-06	-4.235030e-06	-8.473611e-09	-3.180411e+01	-5.639482e+02
1.190000e-06	-4.219735e-06	-8.457636e-09	-3.168925e+01	-5.630393e+02
1.200000e-06	-4.204165e-06	-8.443779e-09	-3.157232e+01	-5.621252e+02
1.210000e-06	-4.188394e-06	-8.424089e-09	-3.145389e+01	-5.612059e+02
1.220000e-06	-4.172465e-06	-8.408936e-09	-3.133427e+01	-5.602818e+02
1.230000e-06	-4.156439e-06	-8.397699e-09	-3.121391e+01	-5.593532e+02
1.240000e-06	-4.140325e-06	-8.381401e-09	-3.109290e+01	-5.584209e+02
1.250000e-06	-4.124119e-06	-8.371568e-09	-3.097119e+01	-5.574858e+02
1.260000e-06	-4.107682e-06	-8.359805e-09	-3.084776e+01	-5.565488e+02
1.270000e-06	-4.091067e-06	-8.349337e-09	-3.072298e+01	-5.556110e+02
1.280000e-06	-4.074291e-06	-8.331635e-09	-3.059700e+01	-5.546736e+02
1.290000e-06	-4.057353e-06	-8.310133e-09	-3.046979e+01	-5.537376e+02
1.300000e-06	-4.040338e-06	-8.290271e-09	-3.034202e+01	-5.528041e+02
1.310000e-06	-4.023198e-06	-8.272243e-09	-3.021330e+01	-5.518737e+02
1.320000e-06	-4.006120e-06	-8.258148e-09	-3.008505e+01	-5.509471e+02
1.330000e-06	-3.988978e-06	-8.240591e-09	-2.995632e+01	-5.500246e+02
1.340000e-06	-3.971631e-06	-8.228939e-09	-2.982605e+01	-5.491062e+02
1.350000e-06	-3.954258e-06	-8.214510e-09	-2.969558e+01	-5.481915e+02
1.360000e-06	-3.936773e-06	-8.198219e-09	-2.956427e+01	-5.472799e+02
1.370000e-06	-3.919120e-06	-8.181922e-09	-2.943170e+01	-5.463703e+02
1.380000e-06	-3.901399e-06	-8.163220e-09	-2.929862e+01	-5.454615e+02
1.390000e-06	-3.883623e-06	-8.146801e-09	-2.916513e+01	-5.445519e+02
1.400000e-06	-3.865821e-06	-8.126553e-09	-2.903144e+01	-5.436397e+02
1.410000e-06	-3.847933e-06	-8.110733e-09	-2.889710e+01	-5.427230e+02
1.420000e-06	-3.829906e-06	-8.093883e-09	-2.876172e+01	-5.417998e+02
1.430000e-06	-3.811855e-06	-8.078241e-09	-2.862617e+01	-5.408682e+02
1.440000e-06	-3.793794e-06	-8.067647e-09	-2.849053e+01	-5.399263e+02
1.450000e-06	-3.775669e-06	-8.053624e-09	-2.835441e+01	-5.389723e+02
1.460000e-06	-3.757434e-06	-8.037032e-09	-2.821748e+01	-5.380046e+02
1.470000e-06	-3.739054e-06	-8.015486e-09	-2.807944e+01	-5.370219e+02
1.480000e-06	-3.720597e-06	-7.995650e-09	-2.794084e+01	-5.360231e+02
1.490000e-06	-3.702064e-06	-7.974454e-09	-2.780166e+01	-5.350074e+02
1.500000e-06	-3.683408e-06	-7.952459e-09	-2.766155e+01	-5.339743e+02
1.510000e-06	-3.664701e-06	-7.934556e-09	-2.752107e+01	-5.329234e+02
1.520000e-06	-3.645891e-06	-7.920465e-09	-2.737981e+01	-5.318549e+02
1.530000e-06	-3.627021e-06	-7.911104e-09	-2.723811e+01	-5.307687e+02
1.540000e-06	-3.608037e-06	-7.897252e-09	-2.709554e+01	-5.296653e+02
1.550000e-06	-3.588853e-06	-7.881055e-09	-2.695147e+01	-5.285450e+02
1.560000e-06	-3.569548e-06	-7.860807e-09	-2.680649e+01	-5.274082e+02
1.570000e-06	-3.550149e-06	-7.840267e-09	-2.666081e+01	-5.262553e+02
1.580000e-06	-3.530691e-06	-7.820708e-09	-2.651469e+01	-5.250866e+02
1.590000e-06	-3.511150e-06	-7.798637e-09	-2.636794e+01	-5.239024e+02
1.600000e-06	-3.491444e-06	-7.782296e-09	-2.621995e+01	-5.227026e+02
1.610000e-06	-3.471513e-06	-7.766930e-09	-2.607027e+01	-5.214873e+02
1.620000e-06	-3.451512e-06	-7.750009e-09	-2.592007e+01	-5.202561e+02
1.630000e-06	-3.431519e-06	-7.728947e-09	-2.576992e+01	-5.190086e+02
1.640000e-06	-3.411472e-06	-7.705299e-09	-2.561938e+01	-5.177442e+02
1.650000e-06	-3.391357e-06	-7.681629e-09	-2.546832e+01	-5.164623e+02
1.660000e-06	-3.371180e-06	-7.657900e-09	-2.531680e+01	-5.151620e+02
1.670000e-06	-3.350935e-06	-7.637597e-09	-2.516476e+01	-5.138425e+02
1.680000e-06	-3.330654e-06	-7.614929e-09	-2.501245e+01	-5.125031e+02
1.690000e-06	-3.310377e-06	-7.592118e-09	-2.486018e+01	-5.111431e+02
1.700000e-06	-3.290054e-06	-7.572477e-09	-2.470756e+01	-5.097618e+02
1.710000e-06	-3.269690e-06	-7.553944e-09	-2.455463e+01	-5.083587e+02
1.720000e-06	-3.249318e-06	-7.534196e-09	-2.440164e+01	-5.069337e+02
1.730000e-06	-3.228926e-06	-7.513047e-09	-2.424850e+01	-5.054867e+02
1.740000e-06	-3.208478e-06	-7.493453e-09	-2.409494e+01	-5.040178e+02
1.750000e-06	-3.187992e-06	-7.469803e-09	-2.394109e+01	-5.025275e+02
1.760000e-06	-3.167520e-06	-7.443202e-09	-2.378735e+01	-5.010164e+02
1.770000e-06	-3.147045e-06	-7.414195e-09	-2.363359e+01	-4.994854e+02
1.780000e-06	-3.126518e-06	-7.386382e-09	-2.347944e+01	-4.979356e+02
1.790000e-06	-3.105868e-06	-7.362711e-09	-2.332436e+01	-4.963680e+02
1.800000e-06	-3.085151e-06	-7.338718e-09	-2.316878e+01	-4.947840e+02
1.810000e-06	-3.064375e-06	-7.317695e-09	-2.301276e+01	-4.931849e+02
1.820000e-06	-3.043445e-06	-7.297618e-09	-2.285558e+01	-4.915722e+02
1.830000e-06	-3.022416e-06	-7.278097e-09	-2.269765e+01	-4.899471e+02
1.840000e-06	-3.001386e-06	-7.255519e-09	-2.253973e+01	-4.883109e+02
1.850000e-06	-2.980223e-06	-7.227243e-09	-2.238079e+01	-4.866649e+02
1.860000e-06	-2.958991e-06	-7.194903e-09	-2.222135e+01	-4.850101e+02
1.870000e-06	-2.937765e-06	-7.163042e-09	-2.206195e+01	-4.833474e+02
1.880000e-06	-2.916423e-06	-7.138983e-09	-2.190167e+01	-4.816776e+02
1.890000e-06	-2.894954e-06	-7.119027e-09	-2.174044e+01	-4.800015e+02
1.900000e-06	-2.873352e-06	-7.101236e-09	-2.157822e+01	-4.783194e+02
1.910000e-06	-2.851629e-06	-7.080988e-09	-2.141509e+01	-4.766317e+02
1.920000e-06	-2.829684e-06	-7.055959e-09	-2.125028e+01	-4.749387e+02
1.930000e-06	-2.807625e-06	-7.028729e-09	-2.108462e+01	-4.732404e+02
1.940000e-06	-2.785548e-06	-6.998951e-09	-2.091883e+01	-4.715370e+02
1.950000e-06	-2.763432e-06	-6.967565e-09	-2.075274e+01	-4.698283e+02
1.960000e-06	-2.741200e-06	-6.936909e-09	-2.058579e+01	-4.681142e+02
1.970000e-06	-2.718862e-06	-6.912247e-09	-2.041804e+01	-4.663945e+02
1.980000e-06	-2.696538e-06	-6.890632e-09	-2.025038e+01	-4.646690e+02
1.990000e-06	-2.674302e-06	-6.866747e-09	-2.008340e+01	-4.629372e+02
2.000000e-06	-2.652065e-06	-6.842374e-09	-1.991640e+01	-4.611989e+02
2.010000e-06	-2.629701e-06	-6.819898e-09	-1.974845e+01	-4.594536e+02
2.020000e-06	-2.607321e-06	-6.798881e-09	-1.958039e+01	-4.577006e+02
2.030000e-06	-2.584849e-06	-6.773864e-09	-1.941163e+01	-4.559394e+02
2.040000e-06	-2.562276e-06	-6.744541e-09	-1.924211e+01	-4.541691e+02
2.050000e-06	-2.539745e-06	-6.714358e-09	-1.907291e+01	-4.523888e+02
2.060000e-06	-2.517096e-06	-6.687210e-09	-1.890282e+01	-4.505976e+02
2.070000e-06	-2.494284e-06	-6.662231e-09	-1.873151e+01	-4.487942e+02
2.080000e-06	-2.471478e-06	-6.634015e-09	-1.856024e+01	-4.469773e+02
2.090000e-06	-2.448616e-06	-6.604443e-09	-1.838855e+01	-4.451457e+02
2.100000e-06	-2.425699e-06	-6.578008e-09	-1.821645e+01	-4.432979e+02
2.110000e-06	-2.402747e-06	-6.554339e-09	-1.804408e+01	-4.414323e+02
2.120000e-06	-2.379773e-06	-6.526262e-09	-1.787155e+01	-4.395474e+02
2.130000e-06	-2.356812e-06	-6.493325e-09	-1.769912e+01	-4.376418e+02
2.140000e-06	-2.333743e-06	-6.460108e-09	-1.752588e+01	-4.357140e+02
2.150000e-06	-2.310585e-06	-6.431431e-09	-1.735196e+01	-4.337627e+02
2.160000e-06	-2.287391e-06	-6.408236e-09	-1.717779e+01	-4.317868e+02
2.170000e-06	-2.264141e-06	-6.381983e-09	-1.700319e+01	-4.297853e+02
2.180000e-06	-2.240772e-06	-6.352738e-09	-1.682769e+01	-4.277576e+02
2.190000e-06	-2.217205e-06	-6.325170e-09	-1.665071e+01	-4.257030e+02
2.200000e-06	-2.193551e-06	-6.300141e-09	-1.647307e+01	-4.236215e+02
2.210000e-06	-2.169825e-06	-6.273370e-09	-1.629489e+01	-4.215129e+02
2.220000e-06	-2.146004e-06	-6.239792e-09	-1.611600e+01	-4.193777e+02
2.230000e-06	-2.122246e-06	-6.205393e-09	-1.593759e+01	-4.172162e+02
2.240000e-06	-2.098519e-06	-6.176435e-09	-1.575940e+01	-4.150292e+02
2.250000e-06	-2.074712e-06	-6.149118e-09	-1.558061e+01	-4.128175e+02
2.260000e-06	-2.050793e-06	-6.116844e-09	-1.540099e+01	-4.105820e+02
2.270000e-06	-2.026779e-06	-6.083313e-09	-1.522065e+01	-4.083236e+02
2.280000e-06	-2.002734e-06	-6.052309e-09	-1.504008e+01	-4.060432e+02
2.290000e-06	-1.978672e-06	-6.020632e-09	-1.485938e+01	-4.037418e+02
2.300000e-06	-1.954631e-06	-5.984434e-09	-1.467883e+01	-4.014199e+02
2.310000e-06	-1.930599e-06	-5.946189e-09	-1.449836e+01	-3.990781e+02
2.320000e-06	-1.906496e-06	-5.913161e-09	-1.431735e+01	-3.967169e+02
2.330000e-06	-1.882330e-06	-5.883799e-09	-1.413587e+01	-3.943362e+02
2.340000e-06	-1.858137e-06	-5.856742e-09	-1.395419e+01	-3.919361e+02
2.350000e-06	-1.833947e-06	-5.829280e-09	-1.377252e+01	-3.895163e+02
2.360000e-06	-1.809750e-06	-5.798496e-09	-1.359081e+01	-3.870764e+02
2.370000e-06	-1.785504e-06	-5.763832e-09	-1.340873e+01	-3.846157e+02
2.380000e-06	-1.761221e-06	-5.723093e-09	-1.322637e+01	-3.821336e+02
2.390000e-06	-1.736918e-06	-5.677442e-09	-1.304386e+01	-3.796294e+02
2.400000e-06	-1.712545e-06	-5.631770e-09	-1.286083e+01	-3.771026e+02
2.410000e-06	-1.688124e-06	-5.593091e-09	-1.267743e+01	-3.745526e+02
2.420000e-06	-1.663682e-06	-5.561650e-09	-1.249388e+01	-3.719791e+02
2.430000e-06	-1.639247e-06	-5.535007e-09	-1.231037e+01	-3.693819e+02
2.440000e-06	-1.614831e-06	-5.508502e-09	-1.212701e+01	-3.667613e+02
2.450000e-06	-1.590387e-06	-5.477698e-09	-1.194344e+01	-3.641176e+02
2.460000e-06	-1.565892e-06	-5.440856e-09	-1.175949e+01	-3.614517e+02
2.470000e-06	-1.541336e-06	-5.395836e-09	-1.157508e+01	-3.587647e+02
2.480000e-06	-1.516726e-06	-5.348978e-09	-1.139027e+01	-3.560579e+02
2.490000e-06	-1.492071e-06	-5.306227e-09	-1.120511e+01	-3.533330e+02
2.500000e-06	-1.467418e-06	-5.267439e-09	-1.101998e+01	-3.505917e+02
2.510000e-06	-1.442798e-06	-5.232490e-09	-1.083509e+01	-3.478360e+02
2.520000e-06	-1.418092e-06	-5.200418e-09	-1.064955e+01	-3.450680e+02
2.530000e-06	-1.393342e-06	-5.168291e-09	-1.046368e+01	-3.422895e+02
2.540000e-06	-1.368642e-06	-5.130710e-09	-1.027819e+01	-3.395023e+02
2.550000e-06	-1.343821e-06	-5.087364e-09	-1.009179e+01	-3.367080e+02
2.560000e-06	-1.318877e-06	-5.040891e-09	-9.904464e+00	-3.339079e+02
2.570000e-06	-1.294015e-06	-4.994397e-09	-9.717755e+00	-3.311028e+02
2.580000e-06	-1.269064e-06	-4.949627e-09	-9.530382e+00	-3.282933e+02
2.590000e-06	-1.243965e-06	-4.907476e-09	-9.341897e+00	-3.254793e+02
2.600000e-06	-1.218899e-06	-4.869656e-09	-9.153651e+00	-3.226603e+02
2.610000e-06	-1.193812e-06	-4.835945e-09	-8.965256e+00	-3.198355e+02
2.620000e-06	-1.168690e-06	-4.803144e-09	-8.776595e+00	-3.170033e+02
2.630000e-06	-1.143512e-06	-4.767384e-09	-8.587513e+00	-3.141620e+02
2.640000e-06	-1.118283e-06	-4.727403e-09	-8.398053e+00	-3.113095e+02
2.650000e-06	-1.093054e-06	-4.683955e-09	-8.208584e+00	-3.084433e+02
2.660000e-06	-1.067746e-06	-4.637527e-09	-8.018531e+00	-3.055609e+02
2.670000e-06	-1.042403e-06	-4.589784e-09	-7.828211e+00	-3.026596e+02
2.680000e-06	-1.017131e-06	-4.545042e-09	-7.638419e+00	-2.997368e+02
2.690000e-06	-9.919048e-07	-4.504182e-09	-7.448979e+00	-2.967899e+02
2.700000e-06	-9.667308e-07	-4.464046e-09	-7.259928e+00	-2.938168e+02
2.710000e-06	-9.414342e-07	-4.421468e-09	-7.069957e+00	-2.908152e+02
2.720000e-06	-9.159314e-07	-4.377430e-09	-6.878436e+00	-2.877836e+02
2.730000e-06	-8.902675e-07	-4.332434e-09	-6.685706e+00	-2.847204e+02
2.740000e-06	-8.646399e-07	-4.286583e-09	-6.493249e+00	-2.816248e+02
2.750000e-06	-8.391903e-07	-4.239409e-09	-6.302128e+00	-2.784961e+02
2.760000e-06	-8.137701e-07	-4.192251e-09	-6.111228e+00	-2.753340e+02
2.770000e-06	-7.882838e-07	-4.146997e-09	-5.919832e+00	-2.721386e+02
2.780000e-06	-7.627090e-07	-4.101671e-09	-5.727771e+00	-2.689102e+02
2.790000e-06	-7.370663e-07	-4.055127e-09	-5.535200e+00	-2.656493e+02
2.800000e-06	-7.113331e-07	-4.009068e-09	-5.341950e+00	-2.623563e+02
2.810000e-06	-6.855923e-07	-3.963776e-09	-5.148642e+00	-2.590319e+02
2.820000e-06	-6.598071e-07	-3.914995e-09	-4.955001e+00	-2.556768e+02
2.830000e-06	-6.339076e-07	-3.861643e-09	-4.760502e+00	-2.522912e+02
2.840000e-06	-6.079816e-07	-3.806611e-09	-4.565804e+00	-2.488755e+02
