# Temperatura_=_20.0
# Concentracion g/m^3_=_10000.0
# C_Vs_to_Am_M_A/Vsm_=_65563218390.804596
# pendiente_HvsI_1/m_=_3716.3
# ordenada_HvsI_A/m_=_1297.0
# frecuencia_Hz_=_81173.79557820906

Tiempo_(s)	Campo_(V.s)	Magnetizacion_(V.s)	Campo_(kA/m)	Magnetizacion_(A/m)
0.000000e+00	-5.134453e-06	-3.017084e-10	-3.847027e+01	-1.928936e+01
1.000000e-08	-5.134504e-06	-2.976987e-10	-3.847065e+01	-1.930471e+01
2.000000e-08	-5.134496e-06	-2.696504e-10	-3.847059e+01	-1.933209e+01
3.000000e-08	-5.134440e-06	-3.110228e-10	-3.847017e+01	-1.937009e+01
4.000000e-08	-5.134298e-06	-3.725039e-10	-3.846910e+01	-1.941706e+01
5.000000e-08	-5.134034e-06	-3.559287e-10	-3.846713e+01	-1.947123e+01
6.000000e-08	-5.133695e-06	-1.696905e-10	-3.846459e+01	-1.953072e+01
7.000000e-08	-5.133319e-06	-1.150834e-10	-3.846177e+01	-1.959365e+01
8.000000e-08	-5.132843e-06	-2.748986e-10	-3.845821e+01	-1.965821e+01
9.000000e-08	-5.132162e-06	-3.613077e-10	-3.845310e+01	-1.972269e+01
1.000000e-07	-5.131423e-06	-3.237103e-10	-3.844756e+01	-1.978557e+01
1.100000e-07	-5.130691e-06	-4.452578e-10	-3.844208e+01	-1.984555e+01
1.200000e-07	-5.129815e-06	-4.786654e-10	-3.843552e+01	-1.990158e+01
1.300000e-07	-5.128763e-06	-3.663740e-10	-3.842764e+01	-1.995291e+01
1.400000e-07	-5.127538e-06	-4.069427e-10	-3.841845e+01	-1.999909e+01
1.500000e-07	-5.126096e-06	-2.578148e-10	-3.840765e+01	-2.003993e+01
1.600000e-07	-5.124361e-06	-1.455724e-10	-3.839465e+01	-2.007557e+01
1.700000e-07	-5.122488e-06	-7.755387e-11	-3.838062e+01	-2.010634e+01
1.800000e-07	-5.120473e-06	-2.217962e-10	-3.836552e+01	-2.013284e+01
1.900000e-07	-5.118226e-06	-4.883407e-10	-3.834868e+01	-2.015579e+01
2.000000e-07	-5.115617e-06	-3.891735e-10	-3.832914e+01	-2.017604e+01
2.100000e-07	-5.112848e-06	-2.837723e-10	-3.830839e+01	-2.019451e+01
2.200000e-07	-5.109964e-06	-3.348304e-10	-3.828678e+01	-2.021211e+01
2.300000e-07	-5.106887e-06	-4.600126e-10	-3.826373e+01	-2.022969e+01
2.400000e-07	-5.103620e-06	-3.337066e-10	-3.823925e+01	-2.024802e+01
2.500000e-07	-5.100065e-06	-1.225412e-10	-3.821261e+01	-2.026768e+01
2.600000e-07	-5.096362e-06	-2.875045e-10	-3.818487e+01	-2.028910e+01
2.700000e-07	-5.092563e-06	-3.783106e-10	-3.815640e+01	-2.031249e+01
2.800000e-07	-5.088694e-06	-3.506829e-10	-3.812741e+01	-2.033782e+01
2.900000e-07	-5.084645e-06	-2.818040e-10	-3.809708e+01	-2.036482e+01
3.000000e-07	-5.080524e-06	-3.169321e-10	-3.806620e+01	-2.039301e+01
3.100000e-07	-5.076338e-06	-3.383538e-10	-3.803484e+01	-2.042169e+01
3.200000e-07	-5.072000e-06	-2.517492e-10	-3.800233e+01	-2.044996e+01
3.300000e-07	-5.067657e-06	-3.627783e-10	-3.796979e+01	-2.047677e+01
3.400000e-07	-5.063325e-06	-3.655314e-10	-3.793734e+01	-2.050096e+01
3.500000e-07	-5.058895e-06	-2.831382e-10	-3.790414e+01	-2.052129e+01
3.600000e-07	-5.054310e-06	-2.534847e-10	-3.786979e+01	-2.053650e+01
3.700000e-07	-5.049636e-06	-3.678222e-10	-3.783477e+01	-2.054533e+01
3.800000e-07	-5.044887e-06	-3.692999e-10	-3.779919e+01	-2.054661e+01
3.900000e-07	-5.040074e-06	-1.854900e-10	-3.776312e+01	-2.053925e+01
4.000000e-07	-5.035083e-06	-2.705798e-10	-3.772573e+01	-2.052230e+01
4.100000e-07	-5.029935e-06	-4.004991e-10	-3.768715e+01	-2.049501e+01
4.200000e-07	-5.024713e-06	-3.967277e-10	-3.764803e+01	-2.045678e+01
4.300000e-07	-5.019277e-06	-2.857070e-10	-3.760730e+01	-2.040724e+01
4.400000e-07	-5.013655e-06	-2.861476e-10	-3.756518e+01	-2.034623e+01
4.500000e-07	-5.007885e-06	-3.409344e-10	-3.752195e+01	-2.027380e+01
4.600000e-07	-5.001964e-06	-2.789637e-10	-3.747759e+01	-2.019023e+01
4.700000e-07	-4.995915e-06	-2.893779e-10	-3.743226e+01	-2.009596e+01
4.800000e-07	-4.989796e-06	-2.642245e-10	-3.738642e+01	-1.999163e+01
4.900000e-07	-4.983629e-06	-2.775383e-10	-3.734020e+01	-1.987805e+01
5.000000e-07	-4.977327e-06	-3.237843e-10	-3.729299e+01	-1.975613e+01
5.100000e-07	-4.970790e-06	-3.520812e-10	-3.724401e+01	-1.962694e+01
5.200000e-07	-4.964164e-06	-3.085515e-10	-3.719436e+01	-1.949158e+01
5.300000e-07	-4.957478e-06	-2.337321e-10	-3.714427e+01	-1.935127e+01
5.400000e-07	-4.950615e-06	-2.961846e-10	-3.709285e+01	-1.920722e+01
5.500000e-07	-4.943612e-06	-3.010387e-10	-3.704037e+01	-1.906069e+01
5.600000e-07	-4.936468e-06	-2.735332e-10	-3.698685e+01	-1.891295e+01
5.700000e-07	-4.929260e-06	-2.624203e-10	-3.693285e+01	-1.876525e+01
5.800000e-07	-4.921922e-06	-2.753093e-10	-3.687787e+01	-1.861882e+01
5.900000e-07	-4.914411e-06	-3.105990e-10	-3.682158e+01	-1.847487e+01
6.000000e-07	-4.906726e-06	-3.014377e-10	-3.676401e+01	-1.833457e+01
6.100000e-07	-4.898850e-06	-2.975436e-10	-3.670500e+01	-1.819906e+01
6.200000e-07	-4.890807e-06	-2.443038e-10	-3.664473e+01	-1.806943e+01
6.300000e-07	-4.882751e-06	-2.601347e-10	-3.658437e+01	-1.794672e+01
6.400000e-07	-4.874702e-06	-2.982937e-10	-3.652406e+01	-1.783194e+01
6.500000e-07	-4.866591e-06	-2.697422e-10	-3.646329e+01	-1.772601e+01
6.600000e-07	-4.858420e-06	-2.467226e-10	-3.640207e+01	-1.762982e+01
6.700000e-07	-4.850158e-06	-2.420371e-10	-3.634016e+01	-1.754417e+01
6.800000e-07	-4.841819e-06	-2.910637e-10	-3.627769e+01	-1.746979e+01
6.900000e-07	-4.833357e-06	-2.838514e-10	-3.621428e+01	-1.740732e+01
7.000000e-07	-4.824824e-06	-2.649515e-10	-3.615035e+01	-1.735730e+01
7.100000e-07	-4.816180e-06	-2.577170e-10	-3.608559e+01	-1.732014e+01
7.200000e-07	-4.807360e-06	-2.686719e-10	-3.601950e+01	-1.729614e+01
7.300000e-07	-4.798493e-06	-2.970849e-10	-3.595306e+01	-1.728544e+01
7.400000e-07	-4.789525e-06	-2.603943e-10	-3.588587e+01	-1.728806e+01
7.500000e-07	-4.780390e-06	-2.472020e-10	-3.581742e+01	-1.730382e+01
7.600000e-07	-4.771037e-06	-2.472784e-10	-3.574734e+01	-1.733240e+01
7.700000e-07	-4.761386e-06	-2.668767e-10	-3.567503e+01	-1.737331e+01
7.800000e-07	-4.751668e-06	-2.760314e-10	-3.560222e+01	-1.742588e+01
7.900000e-07	-4.741691e-06	-2.652179e-10	-3.552746e+01	-1.748927e+01
8.000000e-07	-4.731326e-06	-2.749641e-10	-3.544981e+01	-1.756250e+01
8.100000e-07	-4.720929e-06	-2.714502e-10	-3.537190e+01	-1.764443e+01
8.200000e-07	-4.710426e-06	-2.907044e-10	-3.529322e+01	-1.773381e+01
8.300000e-07	-4.699793e-06	-2.746872e-10	-3.521355e+01	-1.782926e+01
8.400000e-07	-4.688947e-06	-2.505951e-10	-3.513228e+01	-1.792934e+01
8.500000e-07	-4.677705e-06	-2.543637e-10	-3.504805e+01	-1.803253e+01
8.600000e-07	-4.666434e-06	-2.680304e-10	-3.496360e+01	-1.813730e+01
8.700000e-07	-4.655068e-06	-2.855986e-10	-3.487844e+01	-1.824209e+01
8.800000e-07	-4.643407e-06	-2.696542e-10	-3.479107e+01	-1.834538e+01
8.900000e-07	-4.631640e-06	-2.745010e-10	-3.470290e+01	-1.844568e+01
9.000000e-07	-4.619723e-06	-2.819752e-10	-3.461361e+01	-1.854159e+01
9.100000e-07	-4.607712e-06	-2.863642e-10	-3.452362e+01	-1.863179e+01
9.200000e-07	-4.595615e-06	-2.745212e-10	-3.443299e+01	-1.871507e+01
9.300000e-07	-4.583388e-06	-2.520476e-10	-3.434137e+01	-1.879035e+01
9.400000e-07	-4.571089e-06	-2.638543e-10	-3.424922e+01	-1.885669e+01
9.500000e-07	-4.558696e-06	-2.725066e-10	-3.415637e+01	-1.891330e+01
9.600000e-07	-4.546187e-06	-2.860880e-10	-3.406264e+01	-1.895952e+01
9.700000e-07	-4.533523e-06	-2.825851e-10	-3.396775e+01	-1.899485e+01
9.800000e-07	-4.520747e-06	-2.804183e-10	-3.387203e+01	-1.901896e+01
9.900000e-07	-4.507889e-06	-2.890988e-10	-3.377569e+01	-1.903163e+01
1.000000e-06	-4.494942e-06	-2.865624e-10	-3.367869e+01	-1.903280e+01
1.010000e-06	-4.481863e-06	-2.855784e-10	-3.358069e+01	-1.902253e+01
1.020000e-06	-4.468591e-06	-2.708792e-10	-3.348124e+01	-1.900101e+01
1.030000e-06	-4.455217e-06	-2.754124e-10	-3.338104e+01	-1.896853e+01
1.040000e-06	-4.441710e-06	-2.817416e-10	-3.327984e+01	-1.892548e+01
1.050000e-06	-4.428049e-06	-2.809569e-10	-3.317748e+01	-1.887235e+01
1.060000e-06	-4.414345e-06	-2.757429e-10	-3.307481e+01	-1.880970e+01
1.070000e-06	-4.400487e-06	-2.652182e-10	-3.297097e+01	-1.873817e+01
1.080000e-06	-4.386487e-06	-2.729657e-10	-3.286608e+01	-1.865844e+01
1.090000e-06	-4.372448e-06	-2.716114e-10	-3.276089e+01	-1.857126e+01
1.100000e-06	-4.358296e-06	-2.707311e-10	-3.265486e+01	-1.847742e+01
1.110000e-06	-4.343918e-06	-2.661318e-10	-3.254712e+01	-1.837776e+01
1.120000e-06	-4.329392e-06	-2.654514e-10	-3.243829e+01	-1.827312e+01
1.130000e-06	-4.314750e-06	-2.707644e-10	-3.232858e+01	-1.816438e+01
1.140000e-06	-4.299987e-06	-2.625305e-10	-3.221797e+01	-1.805243e+01
1.150000e-06	-4.285119e-06	-2.562416e-10	-3.210657e+01	-1.793816e+01
1.160000e-06	-4.270077e-06	-2.480432e-10	-3.199387e+01	-1.782245e+01
1.170000e-06	-4.254840e-06	-2.523427e-10	-3.187970e+01	-1.770618e+01
1.180000e-06	-4.239506e-06	-2.545026e-10	-3.176481e+01	-1.759021e+01
1.190000e-06	-4.224056e-06	-2.522650e-10	-3.164905e+01	-1.747536e+01
1.200000e-06	-4.208432e-06	-2.513511e-10	-3.153198e+01	-1.736242e+01
1.210000e-06	-4.192640e-06	-2.433476e-10	-3.141367e+01	-1.725212e+01
1.220000e-06	-4.176631e-06	-2.425298e-10	-3.129372e+01	-1.714516e+01
1.230000e-06	-4.160583e-06	-2.370915e-10	-3.117347e+01	-1.704217e+01
1.240000e-06	-4.144439e-06	-2.369870e-10	-3.105251e+01	-1.694372e+01
1.250000e-06	-4.128038e-06	-2.372741e-10	-3.092963e+01	-1.685032e+01
1.260000e-06	-4.111429e-06	-2.390556e-10	-3.080518e+01	-1.676242e+01
1.270000e-06	-4.094789e-06	-2.457434e-10	-3.068051e+01	-1.668039e+01
1.280000e-06	-4.078053e-06	-2.420139e-10	-3.055511e+01	-1.660457e+01
1.290000e-06	-4.061217e-06	-2.383068e-10	-3.042897e+01	-1.653522e+01
1.300000e-06	-4.044217e-06	-2.322567e-10	-3.030159e+01	-1.647257e+01
1.310000e-06	-4.027015e-06	-2.327591e-10	-3.017271e+01	-1.641680e+01
1.320000e-06	-4.009819e-06	-2.320351e-10	-3.004387e+01	-1.636806e+01
1.330000e-06	-3.992593e-06	-2.296902e-10	-2.991480e+01	-1.632648e+01
1.340000e-06	-3.975186e-06	-2.340428e-10	-2.978438e+01	-1.629216e+01
1.350000e-06	-3.957717e-06	-2.358628e-10	-2.965349e+01	-1.626521e+01
1.360000e-06	-3.940200e-06	-2.401840e-10	-2.952224e+01	-1.624572e+01
1.370000e-06	-3.922514e-06	-2.361448e-10	-2.938972e+01	-1.623378e+01
1.380000e-06	-3.904788e-06	-2.299951e-10	-2.925691e+01	-1.622947e+01
1.390000e-06	-3.886905e-06	-2.238919e-10	-2.912292e+01	-1.623289e+01
1.400000e-06	-3.869047e-06	-2.198319e-10	-2.898912e+01	-1.624412e+01
1.410000e-06	-3.851223e-06	-2.224374e-10	-2.885557e+01	-1.626321e+01
1.420000e-06	-3.833224e-06	-2.246837e-10	-2.872071e+01	-1.629021e+01
1.430000e-06	-3.815184e-06	-2.304677e-10	-2.858555e+01	-1.632512e+01
1.440000e-06	-3.797132e-06	-2.335691e-10	-2.845029e+01	-1.636789e+01
1.450000e-06	-3.778977e-06	-2.356079e-10	-2.831426e+01	-1.641842e+01
1.460000e-06	-3.760671e-06	-2.350295e-10	-2.817710e+01	-1.647652e+01
1.470000e-06	-3.742291e-06	-2.326154e-10	-2.803939e+01	-1.654189e+01
1.480000e-06	-3.723862e-06	-2.320361e-10	-2.790131e+01	-1.661417e+01
1.490000e-06	-3.705308e-06	-2.278354e-10	-2.776229e+01	-1.669284e+01
1.500000e-06	-3.686623e-06	-2.263289e-10	-2.762230e+01	-1.677729e+01
1.510000e-06	-3.667862e-06	-2.290179e-10	-2.748173e+01	-1.686674e+01
1.520000e-06	-3.648985e-06	-2.355613e-10	-2.734029e+01	-1.696032e+01
1.530000e-06	-3.629911e-06	-2.432838e-10	-2.719737e+01	-1.705700e+01
1.540000e-06	-3.610671e-06	-2.483768e-10	-2.705322e+01	-1.715566e+01
1.550000e-06	-3.591356e-06	-2.510335e-10	-2.690850e+01	-1.725506e+01
1.560000e-06	-3.571966e-06	-2.500274e-10	-2.676322e+01	-1.735385e+01
1.570000e-06	-3.552483e-06	-2.473627e-10	-2.661724e+01	-1.745063e+01
1.580000e-06	-3.532968e-06	-2.422291e-10	-2.647102e+01	-1.754395e+01
1.590000e-06	-3.513345e-06	-2.412028e-10	-2.632400e+01	-1.763232e+01
1.600000e-06	-3.493563e-06	-2.452310e-10	-2.617577e+01	-1.771428e+01
1.610000e-06	-3.473778e-06	-2.541530e-10	-2.602753e+01	-1.778837e+01
1.620000e-06	-3.453937e-06	-2.616004e-10	-2.587887e+01	-1.785322e+01
1.630000e-06	-3.433929e-06	-2.627637e-10	-2.572896e+01	-1.790754e+01
1.640000e-06	-3.413900e-06	-2.641147e-10	-2.557890e+01	-1.795013e+01
1.650000e-06	-3.393845e-06	-2.618514e-10	-2.542863e+01	-1.797997e+01
1.660000e-06	-3.373727e-06	-2.595707e-10	-2.527790e+01	-1.799616e+01
1.670000e-06	-3.353598e-06	-2.526438e-10	-2.512708e+01	-1.799799e+01
1.680000e-06	-3.333395e-06	-2.454612e-10	-2.497571e+01	-1.798495e+01
1.690000e-06	-3.313116e-06	-2.444966e-10	-2.482377e+01	-1.795669e+01
1.700000e-06	-3.292830e-06	-2.462210e-10	-2.467177e+01	-1.791310e+01
1.710000e-06	-3.272500e-06	-2.530562e-10	-2.451945e+01	-1.785425e+01
1.720000e-06	-3.252097e-06	-2.581286e-10	-2.436658e+01	-1.778041e+01
1.730000e-06	-3.231664e-06	-2.636789e-10	-2.421348e+01	-1.769206e+01
1.740000e-06	-3.211193e-06	-2.640475e-10	-2.406010e+01	-1.758982e+01
1.750000e-06	-3.190638e-06	-2.558360e-10	-2.390609e+01	-1.747454e+01
1.760000e-06	-3.169981e-06	-2.448422e-10	-2.375132e+01	-1.734716e+01
1.770000e-06	-3.149321e-06	-2.345287e-10	-2.359652e+01	-1.720882e+01
1.780000e-06	-3.128677e-06	-2.325456e-10	-2.344185e+01	-1.706075e+01
1.790000e-06	-3.107902e-06	-2.323550e-10	-2.328619e+01	-1.690428e+01
1.800000e-06	-3.086989e-06	-2.359168e-10	-2.312949e+01	-1.674085e+01
1.810000e-06	-3.066064e-06	-2.430006e-10	-2.297271e+01	-1.657196e+01
1.820000e-06	-3.045063e-06	-2.478112e-10	-2.281536e+01	-1.639916e+01
1.830000e-06	-3.023993e-06	-2.478907e-10	-2.265749e+01	-1.622404e+01
1.840000e-06	-3.002800e-06	-2.391264e-10	-2.249870e+01	-1.604818e+01
1.850000e-06	-2.981419e-06	-2.284665e-10	-2.233850e+01	-1.587320e+01
1.860000e-06	-2.959916e-06	-2.191590e-10	-2.217739e+01	-1.570067e+01
1.870000e-06	-2.938306e-06	-2.162798e-10	-2.201547e+01	-1.553212e+01
1.880000e-06	-2.916636e-06	-2.176718e-10	-2.185311e+01	-1.536904e+01
1.890000e-06	-2.894996e-06	-2.208860e-10	-2.169097e+01	-1.521284e+01
1.900000e-06	-2.873343e-06	-2.287426e-10	-2.152874e+01	-1.506484e+01
1.910000e-06	-2.851554e-06	-2.329260e-10	-2.136548e+01	-1.492626e+01
1.920000e-06	-2.829685e-06	-2.318384e-10	-2.120162e+01	-1.479818e+01
1.930000e-06	-2.807828e-06	-2.242803e-10	-2.103786e+01	-1.468156e+01
1.940000e-06	-2.785902e-06	-2.151475e-10	-2.087357e+01	-1.457720e+01
1.950000e-06	-2.763817e-06	-2.079423e-10	-2.070810e+01	-1.448571e+01
1.960000e-06	-2.741625e-06	-2.054600e-10	-2.054183e+01	-1.440757e+01
1.970000e-06	-2.719391e-06	-2.093408e-10	-2.037524e+01	-1.434304e+01
1.980000e-06	-2.697125e-06	-2.111533e-10	-2.020841e+01	-1.429220e+01
1.990000e-06	-2.674791e-06	-2.114127e-10	-2.004107e+01	-1.425493e+01
2.000000e-06	-2.652417e-06	-2.106234e-10	-1.987343e+01	-1.423095e+01
2.010000e-06	-2.629886e-06	-2.122221e-10	-1.970462e+01	-1.421976e+01
2.020000e-06	-2.607233e-06	-2.145615e-10	-1.953489e+01	-1.422071e+01
2.030000e-06	-2.584652e-06	-2.146469e-10	-1.936569e+01	-1.423299e+01
2.040000e-06	-2.562096e-06	-2.149600e-10	-1.919669e+01	-1.425562e+01
2.050000e-06	-2.539466e-06	-2.146866e-10	-1.902714e+01	-1.428754e+01
2.060000e-06	-2.516696e-06	-2.146982e-10	-1.885653e+01	-1.432755e+01
2.070000e-06	-2.493852e-06	-2.163872e-10	-1.868537e+01	-1.437441e+01
2.080000e-06	-2.470997e-06	-2.168644e-10	-1.851413e+01	-1.442681e+01
2.090000e-06	-2.448161e-06	-2.165632e-10	-1.834303e+01	-1.448342e+01
2.100000e-06	-2.425282e-06	-2.165461e-10	-1.817160e+01	-1.454290e+01
2.110000e-06	-2.402309e-06	-2.181427e-10	-1.799947e+01	-1.460397e+01
2.120000e-06	-2.379348e-06	-2.204166e-10	-1.782744e+01	-1.466536e+01
2.130000e-06	-2.356271e-06	-2.210787e-10	-1.765454e+01	-1.472588e+01
2.140000e-06	-2.333006e-06	-2.195599e-10	-1.748022e+01	-1.478442e+01
2.150000e-06	-2.309782e-06	-2.213003e-10	-1.730621e+01	-1.483995e+01
2.160000e-06	-2.286459e-06	-2.266903e-10	-1.713146e+01	-1.489153e+01
2.170000e-06	-2.262891e-06	-2.287347e-10	-1.695487e+01	-1.493835e+01
2.180000e-06	-2.239237e-06	-2.276910e-10	-1.677765e+01	-1.497964e+01
2.190000e-06	-2.215642e-06	-2.252786e-10	-1.660086e+01	-1.501475e+01
2.200000e-06	-2.192088e-06	-2.270599e-10	-1.642438e+01	-1.504311e+01
2.210000e-06	-2.168459e-06	-2.312435e-10	-1.624734e+01	-1.506420e+01
2.220000e-06	-2.144741e-06	-2.342023e-10	-1.606963e+01	-1.507755e+01
2.230000e-06	-2.120896e-06	-2.371892e-10	-1.589097e+01	-1.508275e+01
2.240000e-06	-2.097043e-06	-2.427672e-10	-1.571225e+01	-1.507942e+01
2.250000e-06	-2.073201e-06	-2.461930e-10	-1.553361e+01	-1.506717e+01
2.260000e-06	-2.049308e-06	-2.423056e-10	-1.535459e+01	-1.504564e+01
2.270000e-06	-2.025364e-06	-2.356726e-10	-1.517519e+01	-1.501448e+01
2.280000e-06	-2.001306e-06	-2.278782e-10	-1.499493e+01	-1.497333e+01
2.290000e-06	-1.977183e-06	-2.235428e-10	-1.481419e+01	-1.492186e+01
2.300000e-06	-1.953074e-06	-2.246215e-10	-1.463355e+01	-1.485972e+01
2.310000e-06	-1.928868e-06	-2.284842e-10	-1.445219e+01	-1.478661e+01
2.320000e-06	-1.904627e-06	-2.319118e-10	-1.427056e+01	-1.470227e+01
2.330000e-06	-1.880430e-06	-2.340711e-10	-1.408926e+01	-1.460647e+01
2.340000e-06	-1.856245e-06	-2.369268e-10	-1.390805e+01	-1.449907e+01
2.350000e-06	-1.832073e-06	-2.354866e-10	-1.372695e+01	-1.438002e+01
2.360000e-06	-1.807832e-06	-2.293664e-10	-1.354531e+01	-1.424936e+01
2.370000e-06	-1.783598e-06	-2.235409e-10	-1.336374e+01	-1.410729e+01
2.380000e-06	-1.759293e-06	-2.195413e-10	-1.318163e+01	-1.395409e+01
2.390000e-06	-1.734912e-06	-2.171520e-10	-1.299896e+01	-1.379025e+01
2.400000e-06	-1.710545e-06	-2.148242e-10	-1.281639e+01	-1.361637e+01
2.410000e-06	-1.686166e-06	-2.116425e-10	-1.263372e+01	-1.343320e+01
2.420000e-06	-1.661725e-06	-2.083635e-10	-1.245059e+01	-1.324166e+01
2.430000e-06	-1.637223e-06	-2.094946e-10	-1.226702e+01	-1.304279e+01
2.440000e-06	-1.612755e-06	-2.103454e-10	-1.208369e+01	-1.283774e+01
2.450000e-06	-1.588266e-06	-2.054173e-10	-1.190020e+01	-1.262777e+01
2.460000e-06	-1.563733e-06	-1.973344e-10	-1.171638e+01	-1.241419e+01
2.470000e-06	-1.539149e-06	-1.899285e-10	-1.153219e+01	-1.219837e+01
2.480000e-06	-1.514508e-06	-1.900380e-10	-1.134756e+01	-1.198166e+01
2.490000e-06	-1.489842e-06	-1.922837e-10	-1.116275e+01	-1.176540e+01
2.500000e-06	-1.465162e-06	-1.918106e-10	-1.097783e+01	-1.155090e+01
2.510000e-06	-1.440466e-06	-1.902444e-10	-1.079280e+01	-1.133935e+01
2.520000e-06	-1.415759e-06	-1.880215e-10	-1.060768e+01	-1.113184e+01
2.530000e-06	-1.391003e-06	-1.857169e-10	-1.042219e+01	-1.092936e+01
2.540000e-06	-1.366123e-06	-1.788882e-10	-1.023578e+01	-1.073271e+01
2.550000e-06	-1.341251e-06	-1.717456e-10	-1.004942e+01	-1.054258e+01
2.560000e-06	-1.316417e-06	-1.663495e-10	-9.863351e+00	-1.035949e+01
2.570000e-06	-1.291480e-06	-1.629298e-10	-9.676512e+00	-1.018382e+01
2.580000e-06	-1.266441e-06	-1.639798e-10	-9.488904e+00	-1.001580e+01
2.590000e-06	-1.241419e-06	-1.630752e-10	-9.301426e+00	-9.855566e+00
2.600000e-06	-1.216416e-06	-1.604354e-10	-9.114089e+00	-9.703126e+00
2.610000e-06	-1.191343e-06	-1.591237e-10	-8.926223e+00	-9.558433e+00
2.620000e-06	-1.166243e-06	-1.588893e-10	-8.738164e+00	-9.421388e+00
2.630000e-06	-1.141171e-06	-1.556171e-10	-8.550307e+00	-9.291869e+00
2.640000e-06	-1.116059e-06	-1.508265e-10	-8.362156e+00	-9.169759e+00
2.650000e-06	-1.090718e-06	-1.468115e-10	-8.172288e+00	-9.054964e+00
2.660000e-06	-1.065345e-06	-1.434253e-10	-7.982179e+00	-8.947433e+00
2.670000e-06	-1.040004e-06	-1.442204e-10	-7.792310e+00	-8.847170e+00
2.680000e-06	-1.014615e-06	-1.438628e-10	-7.602081e+00	-8.754238e+00
2.690000e-06	-9.891798e-07	-1.442867e-10	-7.411503e+00	-8.668757e+00
2.700000e-06	-9.635943e-07	-1.457940e-10	-7.219801e+00	-8.590896e+00
2.710000e-06	-9.379932e-07	-1.436702e-10	-7.027983e+00	-8.520859e+00
2.720000e-06	-9.124444e-07	-1.401697e-10	-6.836557e+00	-8.458859e+00
2.730000e-06	-8.869281e-07	-1.369164e-10	-6.645374e+00	-8.405094e+00
2.740000e-06	-8.613843e-07	-1.344102e-10	-6.453985e+00	-8.359715e+00
2.750000e-06	-8.357899e-07	-1.302796e-10	-6.262218e+00	-8.322790e+00
2.760000e-06	-8.101121e-07	-1.253907e-10	-6.069825e+00	-8.294273e+00
2.770000e-06	-7.843177e-07	-1.240952e-10	-5.876558e+00	-8.273972e+00
2.780000e-06	-7.587057e-07	-1.281169e-10	-5.684658e+00	-8.261515e+00
2.790000e-06	-7.330678e-07	-1.333266e-10	-5.492564e+00	-8.256328e+00
2.800000e-06	-7.071551e-07	-1.369598e-10	-5.298412e+00	-8.257622e+00
2.810000e-06	-6.813415e-07	-1.391458e-10	-5.105002e+00	-8.264376e+00
2.820000e-06	-6.555095e-07	-1.360488e-10	-4.911453e+00	-8.275340e+00
2.830000e-06	-6.295042e-07	-1.301751e-10	-4.716607e+00	-8.289046e+00
2.840000e-06	-6.034686e-07	-1.270474e-10	-4.521533e+00	-8.303825e+00
