# Temperatura_=_20.0
# Concentracion g/m^3_=_10000.0
# C_Vs_to_Am_M_A/Vsm_=_65563218390.804596
# pendiente_HvsI_1/m_=_3716.3
# ordenada_HvsI_A/m_=_1297.0
# frecuencia_Hz_=_81179.63991185455

Tiempo_(s)	Campo_(V.s)	Magnetizacion_(V.s)	Campo_(kA/m)	Magnetizacion_(A/m)
0.000000e+00	-5.122751e-06	-9.319034e-09	-3.845155e+01	-6.109590e+02
1.000000e-08	-5.123047e-06	-9.310179e-09	-3.845378e+01	-6.110160e+02
2.000000e-08	-5.123160e-06	-9.314744e-09	-3.845463e+01	-6.110872e+02
3.000000e-08	-5.123085e-06	-9.279316e-09	-3.845406e+01	-6.111718e+02
4.000000e-08	-5.122958e-06	-9.240970e-09	-3.845311e+01	-6.112683e+02
5.000000e-08	-5.122762e-06	-9.340807e-09	-3.845164e+01	-6.113752e+02
6.000000e-08	-5.122476e-06	-9.260972e-09	-3.844949e+01	-6.114903e+02
7.000000e-08	-5.122182e-06	-9.264340e-09	-3.844728e+01	-6.116112e+02
8.000000e-08	-5.121775e-06	-9.476981e-09	-3.844423e+01	-6.117353e+02
9.000000e-08	-5.121194e-06	-9.566086e-09	-3.843987e+01	-6.118599e+02
1.000000e-07	-5.120595e-06	-9.575983e-09	-3.843537e+01	-6.119820e+02
1.100000e-07	-5.119967e-06	-9.494887e-09	-3.843066e+01	-6.120990e+02
1.200000e-07	-5.119153e-06	-9.428085e-09	-3.842455e+01	-6.122083e+02
1.300000e-07	-5.118120e-06	-9.326177e-09	-3.841679e+01	-6.123072e+02
1.400000e-07	-5.117029e-06	-9.316247e-09	-3.840861e+01	-6.123937e+02
1.500000e-07	-5.115711e-06	-9.265351e-09	-3.839871e+01	-6.124657e+02
1.600000e-07	-5.114073e-06	-9.223566e-09	-3.838642e+01	-6.125216e+02
1.700000e-07	-5.112233e-06	-9.223673e-09	-3.837261e+01	-6.125602e+02
1.800000e-07	-5.110190e-06	-9.265826e-09	-3.835727e+01	-6.125805e+02
1.900000e-07	-5.107951e-06	-9.501051e-09	-3.834047e+01	-6.125820e+02
2.000000e-07	-5.105437e-06	-9.498188e-09	-3.832159e+01	-6.125643e+02
2.100000e-07	-5.102785e-06	-9.334925e-09	-3.830169e+01	-6.125274e+02
2.200000e-07	-5.100064e-06	-9.305686e-09	-3.828127e+01	-6.124716e+02
2.300000e-07	-5.097181e-06	-9.448883e-09	-3.825962e+01	-6.123973e+02
2.400000e-07	-5.093919e-06	-9.511872e-09	-3.823514e+01	-6.123051e+02
2.500000e-07	-5.090369e-06	-9.297076e-09	-3.820849e+01	-6.121956e+02
2.600000e-07	-5.086725e-06	-9.235353e-09	-3.818115e+01	-6.120697e+02
2.700000e-07	-5.082904e-06	-9.309673e-09	-3.815246e+01	-6.119280e+02
2.800000e-07	-5.078958e-06	-9.376532e-09	-3.812284e+01	-6.117712e+02
2.900000e-07	-5.074932e-06	-9.352182e-09	-3.809262e+01	-6.116000e+02
3.000000e-07	-5.070849e-06	-9.288271e-09	-3.806198e+01	-6.114150e+02
3.100000e-07	-5.066711e-06	-9.321076e-09	-3.803092e+01	-6.112167e+02
3.200000e-07	-5.062513e-06	-9.281667e-09	-3.799941e+01	-6.110054e+02
3.300000e-07	-5.058257e-06	-9.354655e-09	-3.796746e+01	-6.107814e+02
3.400000e-07	-5.053950e-06	-9.376616e-09	-3.793513e+01	-6.105450e+02
3.500000e-07	-5.049574e-06	-9.252950e-09	-3.790228e+01	-6.102963e+02
3.600000e-07	-5.045029e-06	-9.175809e-09	-3.786817e+01	-6.100354e+02
3.700000e-07	-5.040386e-06	-9.262710e-09	-3.783332e+01	-6.097625e+02
3.800000e-07	-5.035712e-06	-9.398374e-09	-3.779824e+01	-6.094775e+02
3.900000e-07	-5.030910e-06	-9.265574e-09	-3.776220e+01	-6.091806e+02
4.000000e-07	-5.025975e-06	-9.201073e-09	-3.772515e+01	-6.088720e+02
4.100000e-07	-5.020920e-06	-9.288059e-09	-3.768721e+01	-6.085518e+02
4.200000e-07	-5.015744e-06	-9.338964e-09	-3.764836e+01	-6.082202e+02
4.300000e-07	-5.010410e-06	-9.266826e-09	-3.760832e+01	-6.078776e+02
4.400000e-07	-5.004937e-06	-9.163181e-09	-3.756724e+01	-6.075242e+02
4.500000e-07	-4.999358e-06	-9.202500e-09	-3.752536e+01	-6.071605e+02
4.600000e-07	-4.993638e-06	-9.215413e-09	-3.748243e+01	-6.067869e+02
4.700000e-07	-4.987781e-06	-9.257162e-09	-3.743847e+01	-6.064037e+02
4.800000e-07	-4.981781e-06	-9.234239e-09	-3.739343e+01	-6.060116e+02
4.900000e-07	-4.975630e-06	-9.169068e-09	-3.734726e+01	-6.056110e+02
5.000000e-07	-4.969350e-06	-9.182038e-09	-3.730012e+01	-6.052023e+02
5.100000e-07	-4.962986e-06	-9.217677e-09	-3.725235e+01	-6.047858e+02
5.200000e-07	-4.956453e-06	-9.221481e-09	-3.720332e+01	-6.043621e+02
5.300000e-07	-4.949736e-06	-9.127113e-09	-3.715290e+01	-6.039315e+02
5.400000e-07	-4.943006e-06	-9.131487e-09	-3.710238e+01	-6.034943e+02
5.500000e-07	-4.936189e-06	-9.181409e-09	-3.705121e+01	-6.030509e+02
5.600000e-07	-4.929172e-06	-9.189234e-09	-3.699854e+01	-6.026015e+02
5.700000e-07	-4.921929e-06	-9.168072e-09	-3.694418e+01	-6.021464e+02
5.800000e-07	-4.914543e-06	-9.113534e-09	-3.688874e+01	-6.016859e+02
5.900000e-07	-4.907095e-06	-9.125734e-09	-3.683283e+01	-6.012205e+02
6.000000e-07	-4.899501e-06	-9.145715e-09	-3.677583e+01	-6.007506e+02
6.100000e-07	-4.891756e-06	-9.150968e-09	-3.671770e+01	-6.002766e+02
6.200000e-07	-4.883895e-06	-9.091706e-09	-3.665870e+01	-5.997991e+02
6.300000e-07	-4.875970e-06	-9.062738e-09	-3.659921e+01	-5.993188e+02
6.400000e-07	-4.867957e-06	-9.116548e-09	-3.653906e+01	-5.988366e+02
6.500000e-07	-4.859894e-06	-9.117963e-09	-3.647854e+01	-5.983531e+02
6.600000e-07	-4.851776e-06	-9.087563e-09	-3.641761e+01	-5.978694e+02
6.700000e-07	-4.843564e-06	-9.040160e-09	-3.635596e+01	-5.973865e+02
6.800000e-07	-4.835332e-06	-9.055919e-09	-3.629418e+01	-5.969053e+02
6.900000e-07	-4.826969e-06	-9.081190e-09	-3.623141e+01	-5.964269e+02
7.000000e-07	-4.818499e-06	-9.063958e-09	-3.616783e+01	-5.959521e+02
7.100000e-07	-4.810054e-06	-9.035659e-09	-3.610444e+01	-5.954819e+02
7.200000e-07	-4.801535e-06	-9.012903e-09	-3.604050e+01	-5.950171e+02
7.300000e-07	-4.792875e-06	-9.044667e-09	-3.597549e+01	-5.945581e+02
7.400000e-07	-4.783998e-06	-9.032598e-09	-3.590887e+01	-5.941053e+02
7.500000e-07	-4.774914e-06	-8.998137e-09	-3.584067e+01	-5.936588e+02
7.600000e-07	-4.765729e-06	-8.969571e-09	-3.577173e+01	-5.932185e+02
7.700000e-07	-4.756448e-06	-8.967291e-09	-3.570207e+01	-5.927838e+02
7.800000e-07	-4.746969e-06	-8.995014e-09	-3.563092e+01	-5.923540e+02
7.900000e-07	-4.737212e-06	-8.982871e-09	-3.555768e+01	-5.919281e+02
8.000000e-07	-4.727395e-06	-8.966491e-09	-3.548400e+01	-5.915047e+02
8.100000e-07	-4.717382e-06	-8.946454e-09	-3.540884e+01	-5.910821e+02
8.200000e-07	-4.706946e-06	-8.960779e-09	-3.533051e+01	-5.906587e+02
8.300000e-07	-4.696284e-06	-8.963377e-09	-3.525048e+01	-5.902322e+02
8.400000e-07	-4.685460e-06	-8.928716e-09	-3.516924e+01	-5.898007e+02
8.500000e-07	-4.674508e-06	-8.914652e-09	-3.508703e+01	-5.893618e+02
8.600000e-07	-4.663323e-06	-8.913446e-09	-3.500307e+01	-5.889134e+02
8.700000e-07	-4.651971e-06	-8.933523e-09	-3.491786e+01	-5.884532e+02
8.800000e-07	-4.640486e-06	-8.918380e-09	-3.483165e+01	-5.879791e+02
8.900000e-07	-4.628863e-06	-8.889877e-09	-3.474442e+01	-5.874892e+02
9.000000e-07	-4.617123e-06	-8.874160e-09	-3.465629e+01	-5.869818e+02
9.100000e-07	-4.605210e-06	-8.868280e-09	-3.456687e+01	-5.864554e+02
9.200000e-07	-4.593137e-06	-8.863659e-09	-3.447625e+01	-5.859086e+02
9.300000e-07	-4.580951e-06	-8.830701e-09	-3.438479e+01	-5.853406e+02
9.400000e-07	-4.568765e-06	-8.819150e-09	-3.429331e+01	-5.847507e+02
9.500000e-07	-4.556469e-06	-8.817669e-09	-3.420102e+01	-5.841385e+02
9.600000e-07	-4.544100e-06	-8.825517e-09	-3.410818e+01	-5.835039e+02
9.700000e-07	-4.531688e-06	-8.818159e-09	-3.401502e+01	-5.828470e+02
9.800000e-07	-4.519162e-06	-8.790287e-09	-3.392100e+01	-5.821683e+02
9.900000e-07	-4.506524e-06	-8.781971e-09	-3.382614e+01	-5.814683e+02
1.000000e-06	-4.493705e-06	-8.772992e-09	-3.372991e+01	-5.807477e+02
1.010000e-06	-4.480679e-06	-8.767796e-09	-3.363214e+01	-5.800074e+02
1.020000e-06	-4.467551e-06	-8.742596e-09	-3.353360e+01	-5.792481e+02
1.030000e-06	-4.454226e-06	-8.722057e-09	-3.343359e+01	-5.784708e+02
1.040000e-06	-4.440650e-06	-8.718528e-09	-3.333168e+01	-5.776765e+02
1.050000e-06	-4.427017e-06	-8.710011e-09	-3.322935e+01	-5.768659e+02
1.060000e-06	-4.413325e-06	-8.698044e-09	-3.312658e+01	-5.760399e+02
1.070000e-06	-4.399513e-06	-8.671589e-09	-3.302290e+01	-5.751992e+02
1.080000e-06	-4.385594e-06	-8.660643e-09	-3.291843e+01	-5.743446e+02
1.090000e-06	-4.371590e-06	-8.652869e-09	-3.281331e+01	-5.734765e+02
1.100000e-06	-4.357424e-06	-8.641830e-09	-3.270698e+01	-5.725955e+02
1.110000e-06	-4.343077e-06	-8.623307e-09	-3.259930e+01	-5.717022e+02
1.120000e-06	-4.328736e-06	-8.597982e-09	-3.249165e+01	-5.707968e+02
1.130000e-06	-4.314340e-06	-8.587037e-09	-3.238359e+01	-5.698800e+02
1.140000e-06	-4.299753e-06	-8.571594e-09	-3.227410e+01	-5.689520e+02
1.150000e-06	-4.285055e-06	-8.557798e-09	-3.216378e+01	-5.680134e+02
1.160000e-06	-4.270266e-06	-8.539058e-09	-3.205277e+01	-5.670646e+02
1.170000e-06	-4.255316e-06	-8.525755e-09	-3.194055e+01	-5.661064e+02
1.180000e-06	-4.240279e-06	-8.518556e-09	-3.182769e+01	-5.651392e+02
1.190000e-06	-4.225130e-06	-8.503324e-09	-3.171398e+01	-5.641639e+02
1.200000e-06	-4.209748e-06	-8.485966e-09	-3.159852e+01	-5.631814e+02
1.210000e-06	-4.194166e-06	-8.456528e-09	-3.148156e+01	-5.621925e+02
1.220000e-06	-4.178358e-06	-8.433291e-09	-3.136290e+01	-5.611981e+02
1.230000e-06	-4.162467e-06	-8.413400e-09	-3.124363e+01	-5.601995e+02
1.240000e-06	-4.146544e-06	-8.398972e-09	-3.112411e+01	-5.591976e+02
1.250000e-06	-4.130403e-06	-8.391253e-09	-3.100296e+01	-5.581934e+02
1.260000e-06	-4.114080e-06	-8.382750e-09	-3.088043e+01	-5.571881e+02
1.270000e-06	-4.097542e-06	-8.379877e-09	-3.075630e+01	-5.561827e+02
1.280000e-06	-4.080800e-06	-8.364840e-09	-3.063063e+01	-5.551781e+02
1.290000e-06	-4.063912e-06	-8.341952e-09	-3.050387e+01	-5.541751e+02
1.300000e-06	-4.047009e-06	-8.311647e-09	-3.037700e+01	-5.531743e+02
1.310000e-06	-4.030081e-06	-8.287513e-09	-3.024993e+01	-5.521764e+02
1.320000e-06	-4.012972e-06	-8.273829e-09	-3.012152e+01	-5.511817e+02
1.330000e-06	-3.995718e-06	-8.258641e-09	-2.999200e+01	-5.501904e+02
1.340000e-06	-3.978391e-06	-8.250574e-09	-2.986195e+01	-5.492024e+02
1.350000e-06	-3.961016e-06	-8.238575e-09	-2.973153e+01	-5.482177e+02
1.360000e-06	-3.943480e-06	-8.224748e-09	-2.959990e+01	-5.472359e+02
1.370000e-06	-3.925904e-06	-8.204149e-09	-2.946798e+01	-5.462564e+02
1.380000e-06	-3.908275e-06	-8.177409e-09	-2.933565e+01	-5.452786e+02
1.390000e-06	-3.890534e-06	-8.152417e-09	-2.920249e+01	-5.443016e+02
1.400000e-06	-3.872788e-06	-8.127011e-09	-2.906929e+01	-5.433246e+02
1.410000e-06	-3.854993e-06	-8.109203e-09	-2.893572e+01	-5.423466e+02
1.420000e-06	-3.837139e-06	-8.094800e-09	-2.880171e+01	-5.413663e+02
1.430000e-06	-3.819155e-06	-8.084307e-09	-2.866672e+01	-5.403828e+02
1.440000e-06	-3.801025e-06	-8.070559e-09	-2.853063e+01	-5.393949e+02
1.450000e-06	-3.782831e-06	-8.056594e-09	-2.839407e+01	-5.384013e+02
1.460000e-06	-3.764630e-06	-8.041319e-09	-2.825745e+01	-5.374010e+02
1.470000e-06	-3.746429e-06	-8.018609e-09	-2.812083e+01	-5.363927e+02
1.480000e-06	-3.728100e-06	-7.995611e-09	-2.798326e+01	-5.353754e+02
1.490000e-06	-3.709636e-06	-7.971885e-09	-2.784466e+01	-5.343479e+02
1.500000e-06	-3.691081e-06	-7.955597e-09	-2.770539e+01	-5.333093e+02
1.510000e-06	-3.672358e-06	-7.938607e-09	-2.756486e+01	-5.322586e+02
1.520000e-06	-3.653512e-06	-7.922776e-09	-2.742339e+01	-5.311947e+02
1.530000e-06	-3.634509e-06	-7.907780e-09	-2.728076e+01	-5.301169e+02
1.540000e-06	-3.615385e-06	-7.890850e-09	-2.713721e+01	-5.290243e+02
1.550000e-06	-3.596215e-06	-7.873664e-09	-2.699332e+01	-5.279160e+02
1.560000e-06	-3.576921e-06	-7.851226e-09	-2.684850e+01	-5.267912e+02
1.570000e-06	-3.557565e-06	-7.834953e-09	-2.670321e+01	-5.256493e+02
1.580000e-06	-3.538024e-06	-7.821000e-09	-2.655654e+01	-5.244895e+02
1.590000e-06	-3.518312e-06	-7.807819e-09	-2.640858e+01	-5.233112e+02
1.600000e-06	-3.498633e-06	-7.791001e-09	-2.626087e+01	-5.221135e+02
1.610000e-06	-3.478840e-06	-7.766663e-09	-2.611230e+01	-5.208960e+02
1.620000e-06	-3.458916e-06	-7.743555e-09	-2.596275e+01	-5.196579e+02
1.630000e-06	-3.438961e-06	-7.718452e-09	-2.581297e+01	-5.183987e+02
1.640000e-06	-3.418941e-06	-7.695628e-09	-2.566270e+01	-5.171177e+02
1.650000e-06	-3.398846e-06	-7.675281e-09	-2.551186e+01	-5.158145e+02
1.660000e-06	-3.378727e-06	-7.660227e-09	-2.536085e+01	-5.144885e+02
1.670000e-06	-3.358627e-06	-7.646390e-09	-2.520998e+01	-5.131393e+02
1.680000e-06	-3.338482e-06	-7.626103e-09	-2.505877e+01	-5.117664e+02
1.690000e-06	-3.318280e-06	-7.601102e-09	-2.490713e+01	-5.103694e+02
1.700000e-06	-3.298032e-06	-7.569933e-09	-2.475515e+01	-5.089482e+02
1.710000e-06	-3.277717e-06	-7.541652e-09	-2.460266e+01	-5.075024e+02
1.720000e-06	-3.257376e-06	-7.516009e-09	-2.444998e+01	-5.060319e+02
1.730000e-06	-3.237061e-06	-7.498212e-09	-2.429749e+01	-5.045368e+02
1.740000e-06	-3.216746e-06	-7.487317e-09	-2.414501e+01	-5.030170e+02
1.750000e-06	-3.196372e-06	-7.471330e-09	-2.399208e+01	-5.014730e+02
1.760000e-06	-3.175878e-06	-7.448367e-09	-2.383826e+01	-4.999050e+02
1.770000e-06	-3.155310e-06	-7.418550e-09	-2.368387e+01	-4.983135e+02
1.780000e-06	-3.134709e-06	-7.388571e-09	-2.352924e+01	-4.966992e+02
1.790000e-06	-3.114098e-06	-7.357222e-09	-2.337453e+01	-4.950630e+02
1.800000e-06	-3.093412e-06	-7.327019e-09	-2.321926e+01	-4.934060e+02
1.810000e-06	-3.072641e-06	-7.301073e-09	-2.306336e+01	-4.917292e+02
1.820000e-06	-3.051798e-06	-7.278205e-09	-2.290691e+01	-4.900340e+02
1.830000e-06	-3.030880e-06	-7.258909e-09	-2.274990e+01	-4.883220e+02
1.840000e-06	-3.009858e-06	-7.237456e-09	-2.259211e+01	-4.865948e+02
1.850000e-06	-2.988725e-06	-7.211328e-09	-2.243348e+01	-4.848541e+02
1.860000e-06	-2.967498e-06	-7.177736e-09	-2.227415e+01	-4.831018e+02
1.870000e-06	-2.946098e-06	-7.144059e-09	-2.211352e+01	-4.813399e+02
1.880000e-06	-2.924684e-06	-7.116383e-09	-2.195278e+01	-4.795701e+02
1.890000e-06	-2.903199e-06	-7.093607e-09	-2.179151e+01	-4.777945e+02
1.900000e-06	-2.881567e-06	-7.074847e-09	-2.162915e+01	-4.760149e+02
1.910000e-06	-2.859782e-06	-7.054125e-09	-2.146563e+01	-4.742330e+02
1.920000e-06	-2.837887e-06	-7.031390e-09	-2.130129e+01	-4.724504e+02
1.930000e-06	-2.815977e-06	-7.004317e-09	-2.113683e+01	-4.706685e+02
1.940000e-06	-2.793981e-06	-6.972572e-09	-2.097173e+01	-4.688884e+02
1.950000e-06	-2.771936e-06	-6.936593e-09	-2.080626e+01	-4.671110e+02
1.960000e-06	-2.749879e-06	-6.904972e-09	-2.064069e+01	-4.653369e+02
1.970000e-06	-2.727773e-06	-6.882650e-09	-2.047476e+01	-4.635662e+02
1.980000e-06	-2.705555e-06	-6.860754e-09	-2.030799e+01	-4.617989e+02
1.990000e-06	-2.683233e-06	-6.837153e-09	-2.014044e+01	-4.600344e+02
2.000000e-06	-2.660879e-06	-6.810163e-09	-1.997265e+01	-4.582720e+02
2.010000e-06	-2.638443e-06	-6.782865e-09	-1.980425e+01	-4.565105e+02
2.020000e-06	-2.615973e-06	-6.758374e-09	-1.963559e+01	-4.547486e+02
2.030000e-06	-2.593545e-06	-6.735770e-09	-1.946724e+01	-4.529844e+02
2.040000e-06	-2.570952e-06	-6.712678e-09	-1.929766e+01	-4.512161e+02
2.050000e-06	-2.548293e-06	-6.685943e-09	-1.912758e+01	-4.494417e+02
2.060000e-06	-2.525693e-06	-6.659988e-09	-1.895794e+01	-4.476590e+02
2.070000e-06	-2.503026e-06	-6.635382e-09	-1.878780e+01	-4.458658e+02
2.080000e-06	-2.480310e-06	-6.609705e-09	-1.861730e+01	-4.440600e+02
2.090000e-06	-2.457539e-06	-6.580079e-09	-1.844637e+01	-4.422393e+02
2.100000e-06	-2.434631e-06	-6.551445e-09	-1.827443e+01	-4.404020e+02
2.110000e-06	-2.411663e-06	-6.527549e-09	-1.810203e+01	-4.385461e+02
2.120000e-06	-2.388690e-06	-6.502152e-09	-1.792959e+01	-4.366702e+02
2.130000e-06	-2.365567e-06	-6.474882e-09	-1.775603e+01	-4.347729e+02
2.140000e-06	-2.342302e-06	-6.442090e-09	-1.758141e+01	-4.328532e+02
2.150000e-06	-2.318949e-06	-6.409809e-09	-1.740612e+01	-4.309103e+02
2.160000e-06	-2.295547e-06	-6.383195e-09	-1.723046e+01	-4.289437e+02
2.170000e-06	-2.272117e-06	-6.355483e-09	-1.705459e+01	-4.269531e+02
2.180000e-06	-2.248661e-06	-6.324836e-09	-1.687853e+01	-4.249385e+02
2.190000e-06	-2.225157e-06	-6.295100e-09	-1.670211e+01	-4.229000e+02
2.200000e-06	-2.201570e-06	-6.269578e-09	-1.652506e+01	-4.208380e+02
2.210000e-06	-2.177966e-06	-6.245654e-09	-1.634789e+01	-4.187527e+02
2.220000e-06	-2.154304e-06	-6.218195e-09	-1.617029e+01	-4.166447e+02
2.230000e-06	-2.130590e-06	-6.182813e-09	-1.599229e+01	-4.145142e+02
2.240000e-06	-2.106808e-06	-6.147732e-09	-1.581378e+01	-4.123617e+02
2.250000e-06	-2.082903e-06	-6.118244e-09	-1.563435e+01	-4.101876e+02
2.260000e-06	-2.058948e-06	-6.087696e-09	-1.545454e+01	-4.079918e+02
2.270000e-06	-2.035008e-06	-6.057469e-09	-1.527485e+01	-4.057745e+02
2.280000e-06	-2.011057e-06	-6.025204e-09	-1.509507e+01	-4.035356e+02
2.290000e-06	-1.987083e-06	-5.992912e-09	-1.491512e+01	-4.012748e+02
2.300000e-06	-1.963036e-06	-5.958886e-09	-1.473462e+01	-3.989916e+02
2.310000e-06	-1.938963e-06	-5.920030e-09	-1.455393e+01	-3.966856e+02
2.320000e-06	-1.914915e-06	-5.883126e-09	-1.437342e+01	-3.943562e+02
2.330000e-06	-1.890811e-06	-5.847161e-09	-1.419250e+01	-3.920027e+02
2.340000e-06	-1.866636e-06	-5.817289e-09	-1.401103e+01	-3.896244e+02
2.350000e-06	-1.842379e-06	-5.791809e-09	-1.382896e+01	-3.872207e+02
2.360000e-06	-1.818134e-06	-5.765464e-09	-1.364698e+01	-3.847910e+02
2.370000e-06	-1.793911e-06	-5.734345e-09	-1.346516e+01	-3.823349e+02
2.380000e-06	-1.769614e-06	-5.695981e-09	-1.328279e+01	-3.798521e+02
2.390000e-06	-1.745252e-06	-5.652977e-09	-1.309992e+01	-3.773426e+02
2.400000e-06	-1.720882e-06	-5.606988e-09	-1.291700e+01	-3.748064e+02
2.410000e-06	-1.696534e-06	-5.564091e-09	-1.273425e+01	-3.722440e+02
2.420000e-06	-1.672151e-06	-5.525187e-09	-1.255122e+01	-3.696558e+02
2.430000e-06	-1.647718e-06	-5.491968e-09	-1.236783e+01	-3.670427e+02
2.440000e-06	-1.623310e-06	-5.462838e-09	-1.218462e+01	-3.644057e+02
2.450000e-06	-1.598834e-06	-5.432132e-09	-1.200091e+01	-3.617459e+02
2.460000e-06	-1.574318e-06	-5.396996e-09	-1.181689e+01	-3.590647e+02
2.470000e-06	-1.549803e-06	-5.355215e-09	-1.163288e+01	-3.563634e+02
2.480000e-06	-1.525285e-06	-5.311551e-09	-1.144885e+01	-3.536435e+02
2.490000e-06	-1.500784e-06	-5.268318e-09	-1.126494e+01	-3.509065e+02
2.500000e-06	-1.476217e-06	-5.228004e-09	-1.108053e+01	-3.481536e+02
2.510000e-06	-1.451556e-06	-5.190396e-09	-1.089543e+01	-3.453862e+02
2.520000e-06	-1.426771e-06	-5.154552e-09	-1.070940e+01	-3.426054e+02
2.530000e-06	-1.401925e-06	-5.121504e-09	-1.052290e+01	-3.398123e+02
2.540000e-06	-1.377144e-06	-5.085902e-09	-1.033690e+01	-3.370076e+02
2.550000e-06	-1.352346e-06	-5.048258e-09	-1.015076e+01	-3.341919e+02
2.560000e-06	-1.327619e-06	-5.006226e-09	-9.965154e+00	-3.313656e+02
2.570000e-06	-1.302978e-06	-4.961482e-09	-9.780201e+00	-3.285290e+02
2.580000e-06	-1.278210e-06	-4.917915e-09	-9.594293e+00	-3.256819e+02
2.590000e-06	-1.253320e-06	-4.873507e-09	-9.407462e+00	-3.228243e+02
2.600000e-06	-1.228269e-06	-4.830210e-09	-9.219430e+00	-3.199557e+02
2.610000e-06	-1.203156e-06	-4.790047e-09	-9.030935e+00	-3.170759e+02
2.620000e-06	-1.178007e-06	-4.755732e-09	-8.842164e+00	-3.141842e+02
2.630000e-06	-1.152840e-06	-4.722194e-09	-8.653262e+00	-3.112801e+02
2.640000e-06	-1.127778e-06	-4.683625e-09	-8.465145e+00	-3.083630e+02
2.650000e-06	-1.102659e-06	-4.639913e-09	-8.276600e+00	-3.054324e+02
2.660000e-06	-1.077530e-06	-4.594296e-09	-8.087979e+00	-3.024878e+02
2.670000e-06	-1.052412e-06	-4.548917e-09	-7.899445e+00	-2.995286e+02
2.680000e-06	-1.027105e-06	-4.503608e-09	-7.709488e+00	-2.965543e+02
2.690000e-06	-1.001687e-06	-4.460619e-09	-7.518696e+00	-2.935647e+02
2.700000e-06	-9.761783e-07	-4.420060e-09	-7.327230e+00	-2.905592e+02
2.710000e-06	-9.506750e-07	-4.381705e-09	-7.135801e+00	-2.875376e+02
2.720000e-06	-9.253349e-07	-4.339460e-09	-6.945597e+00	-2.844994e+02
2.730000e-06	-9.000096e-07	-4.292632e-09	-6.755505e+00	-2.814442e+02
2.740000e-06	-8.746705e-07	-4.244647e-09	-6.565308e+00	-2.783716e+02
2.750000e-06	-8.492781e-07	-4.195975e-09	-6.374712e+00	-2.752810e+02
2.760000e-06	-8.237351e-07	-4.148712e-09	-6.182985e+00	-2.721716e+02
2.770000e-06	-7.980713e-07	-4.103480e-09	-5.990352e+00	-2.690426e+02
2.780000e-06	-7.723138e-07	-4.058335e-09	-5.797015e+00	-2.658929e+02
2.790000e-06	-7.465916e-07	-4.012025e-09	-5.603944e+00	-2.627215e+02
2.800000e-06	-7.208613e-07	-3.968217e-09	-5.410811e+00	-2.595268e+02
2.810000e-06	-6.950470e-07	-3.924259e-09	-5.217048e+00	-2.563073e+02
2.820000e-06	-6.693043e-07	-3.878176e-09	-5.023822e+00	-2.530613e+02
2.830000e-06	-6.435853e-07	-3.827782e-09	-4.830775e+00	-2.497870e+02
2.840000e-06	-6.177980e-07	-3.775066e-09	-4.637214e+00	-2.464825e+02
