# Temperatura_=_20.0
# Concentracion g/m^3_=_10000.0
# C_Vs_to_Am_M_A/Vsm_=_65563218390.804596
# pendiente_HvsI_1/m_=_3716.3
# ordenada_HvsI_A/m_=_1297.0
# frecuencia_Hz_=_81176.157319046

Tiempo_(s)	Campo_(V.s)	Magnetizacion_(V.s)	Campo_(kA/m)	Magnetizacion_(A/m)
0.000000e+00	-5.140825e-06	-9.215765e-09	-3.845855e+01	-6.064511e+02
1.000000e-08	-5.140946e-06	-9.182077e-09	-3.845946e+01	-6.064483e+02
2.000000e-08	-5.140977e-06	-9.166816e-09	-3.845969e+01	-6.064735e+02
3.000000e-08	-5.140874e-06	-9.172104e-09	-3.845892e+01	-6.065266e+02
4.000000e-08	-5.140695e-06	-9.276657e-09	-3.845758e+01	-6.066061e+02
5.000000e-08	-5.140521e-06	-9.260263e-09	-3.845628e+01	-6.067099e+02
6.000000e-08	-5.140257e-06	-9.210377e-09	-3.845431e+01	-6.068349e+02
7.000000e-08	-5.139795e-06	-9.333950e-09	-3.845085e+01	-6.069771e+02
8.000000e-08	-5.139270e-06	-9.514676e-09	-3.844692e+01	-6.071319e+02
9.000000e-08	-5.138730e-06	-9.555232e-09	-3.844288e+01	-6.072943e+02
1.000000e-07	-5.138065e-06	-9.439869e-09	-3.843790e+01	-6.074589e+02
1.100000e-07	-5.137335e-06	-9.361193e-09	-3.843244e+01	-6.076205e+02
1.200000e-07	-5.136409e-06	-9.266425e-09	-3.842551e+01	-6.077739e+02
1.300000e-07	-5.135340e-06	-9.241275e-09	-3.841752e+01	-6.079141e+02
1.400000e-07	-5.134083e-06	-9.247924e-09	-3.840812e+01	-6.080369e+02
1.500000e-07	-5.132494e-06	-9.197243e-09	-3.839623e+01	-6.081387e+02
1.600000e-07	-5.130703e-06	-9.162773e-09	-3.838283e+01	-6.082166e+02
1.700000e-07	-5.128629e-06	-9.205494e-09	-3.836731e+01	-6.082685e+02
1.800000e-07	-5.126469e-06	-9.423816e-09	-3.835115e+01	-6.082935e+02
1.900000e-07	-5.124240e-06	-9.557552e-09	-3.833448e+01	-6.082913e+02
2.000000e-07	-5.121622e-06	-9.392893e-09	-3.831489e+01	-6.082625e+02
2.100000e-07	-5.118847e-06	-9.289922e-09	-3.829413e+01	-6.082086e+02
2.200000e-07	-5.115908e-06	-9.373153e-09	-3.827215e+01	-6.081315e+02
2.300000e-07	-5.112613e-06	-9.474231e-09	-3.824750e+01	-6.080339e+02
2.400000e-07	-5.109164e-06	-9.320390e-09	-3.822169e+01	-6.079186e+02
2.500000e-07	-5.105547e-06	-9.189959e-09	-3.819464e+01	-6.077886e+02
2.600000e-07	-5.101731e-06	-9.284694e-09	-3.816609e+01	-6.076469e+02
2.700000e-07	-5.097849e-06	-9.366760e-09	-3.813705e+01	-6.074966e+02
2.800000e-07	-5.093943e-06	-9.371233e-09	-3.810783e+01	-6.073400e+02
2.900000e-07	-5.089916e-06	-9.293025e-09	-3.807770e+01	-6.071793e+02
3.000000e-07	-5.085742e-06	-9.297546e-09	-3.804647e+01	-6.070162e+02
3.100000e-07	-5.081438e-06	-9.266455e-09	-3.801428e+01	-6.068515e+02
3.200000e-07	-5.077101e-06	-9.302416e-09	-3.798183e+01	-6.066856e+02
3.300000e-07	-5.072792e-06	-9.379278e-09	-3.794959e+01	-6.065183e+02
3.400000e-07	-5.068362e-06	-9.295680e-09	-3.791645e+01	-6.063488e+02
3.500000e-07	-5.063830e-06	-9.193621e-09	-3.788255e+01	-6.061756e+02
3.600000e-07	-5.059314e-06	-9.229622e-09	-3.784877e+01	-6.059971e+02
3.700000e-07	-5.054695e-06	-9.375780e-09	-3.781421e+01	-6.058111e+02
3.800000e-07	-5.049849e-06	-9.299837e-09	-3.777796e+01	-6.056154e+02
3.900000e-07	-5.044842e-06	-9.171095e-09	-3.774050e+01	-6.054079e+02
4.000000e-07	-5.039779e-06	-9.238995e-09	-3.770263e+01	-6.051864e+02
4.100000e-07	-5.034676e-06	-9.332333e-09	-3.766445e+01	-6.049488e+02
4.200000e-07	-5.029398e-06	-9.293266e-09	-3.762497e+01	-6.046937e+02
4.300000e-07	-5.024021e-06	-9.183007e-09	-3.758474e+01	-6.044199e+02
4.400000e-07	-5.018533e-06	-9.195013e-09	-3.754369e+01	-6.041265e+02
4.500000e-07	-5.012758e-06	-9.217231e-09	-3.750048e+01	-6.038135e+02
4.600000e-07	-5.006790e-06	-9.223356e-09	-3.745584e+01	-6.034812e+02
4.700000e-07	-5.000754e-06	-9.225221e-09	-3.741068e+01	-6.031302e+02
4.800000e-07	-4.994621e-06	-9.174774e-09	-3.736480e+01	-6.027619e+02
4.900000e-07	-4.988302e-06	-9.161201e-09	-3.731753e+01	-6.023778e+02
5.000000e-07	-4.981914e-06	-9.198241e-09	-3.726974e+01	-6.019796e+02
5.100000e-07	-4.975458e-06	-9.229895e-09	-3.722144e+01	-6.015696e+02
5.200000e-07	-4.968875e-06	-9.151614e-09	-3.717219e+01	-6.011496e+02
5.300000e-07	-4.962193e-06	-9.089100e-09	-3.712221e+01	-6.007218e+02
5.400000e-07	-4.955251e-06	-9.136876e-09	-3.707027e+01	-6.002880e+02
5.500000e-07	-4.948159e-06	-9.163604e-09	-3.701722e+01	-5.998498e+02
5.600000e-07	-4.941031e-06	-9.139100e-09	-3.696389e+01	-5.994087e+02
5.700000e-07	-4.933835e-06	-9.086392e-09	-3.691006e+01	-5.989656e+02
5.800000e-07	-4.926550e-06	-9.097112e-09	-3.685556e+01	-5.985212e+02
5.900000e-07	-4.919056e-06	-9.133161e-09	-3.679950e+01	-5.980757e+02
6.000000e-07	-4.911363e-06	-9.128789e-09	-3.674195e+01	-5.976293e+02
6.100000e-07	-4.903411e-06	-9.084238e-09	-3.668246e+01	-5.971814e+02
6.200000e-07	-4.895334e-06	-9.040488e-09	-3.662203e+01	-5.967315e+02
6.300000e-07	-4.887254e-06	-9.074021e-09	-3.656159e+01	-5.962790e+02
6.400000e-07	-4.879170e-06	-9.094702e-09	-3.650111e+01	-5.958230e+02
6.500000e-07	-4.871053e-06	-9.075293e-09	-3.644038e+01	-5.953627e+02
6.600000e-07	-4.862807e-06	-9.036244e-09	-3.637870e+01	-5.948976e+02
6.700000e-07	-4.854470e-06	-9.024901e-09	-3.631633e+01	-5.944271e+02
6.800000e-07	-4.846091e-06	-9.049757e-09	-3.625365e+01	-5.939511e+02
6.900000e-07	-4.837670e-06	-9.040344e-09	-3.619065e+01	-5.934695e+02
7.000000e-07	-4.829204e-06	-9.008584e-09	-3.612731e+01	-5.929828e+02
7.100000e-07	-4.820664e-06	-8.973837e-09	-3.606343e+01	-5.924917e+02
7.200000e-07	-4.812055e-06	-8.987888e-09	-3.599902e+01	-5.919973e+02
7.300000e-07	-4.803284e-06	-9.003637e-09	-3.593340e+01	-5.915009e+02
7.400000e-07	-4.794294e-06	-8.975772e-09	-3.586615e+01	-5.910040e+02
7.500000e-07	-4.785207e-06	-8.945910e-09	-3.579817e+01	-5.905083e+02
7.600000e-07	-4.775900e-06	-8.937695e-09	-3.572855e+01	-5.900155e+02
7.700000e-07	-4.766361e-06	-8.961835e-09	-3.565718e+01	-5.895273e+02
7.800000e-07	-4.756649e-06	-8.956227e-09	-3.558453e+01	-5.890452e+02
7.900000e-07	-4.746750e-06	-8.927892e-09	-3.551047e+01	-5.885705e+02
8.000000e-07	-4.736601e-06	-8.907026e-09	-3.543455e+01	-5.881042e+02
8.100000e-07	-4.726212e-06	-8.909888e-09	-3.535683e+01	-5.876470e+02
8.200000e-07	-4.715660e-06	-8.920376e-09	-3.527789e+01	-5.871989e+02
8.300000e-07	-4.704808e-06	-8.893296e-09	-3.519671e+01	-5.867596e+02
8.400000e-07	-4.693729e-06	-8.871934e-09	-3.511382e+01	-5.863284e+02
8.500000e-07	-4.682621e-06	-8.871440e-09	-3.503072e+01	-5.859039e+02
8.600000e-07	-4.671372e-06	-8.888454e-09	-3.494657e+01	-5.854842e+02
8.700000e-07	-4.659816e-06	-8.887506e-09	-3.486012e+01	-5.850674e+02
8.800000e-07	-4.648042e-06	-8.860250e-09	-3.477204e+01	-5.846507e+02
8.900000e-07	-4.636166e-06	-8.847703e-09	-3.468319e+01	-5.842316e+02
9.000000e-07	-4.624172e-06	-8.848255e-09	-3.459347e+01	-5.838070e+02
9.100000e-07	-4.612032e-06	-8.853132e-09	-3.450265e+01	-5.833741e+02
9.200000e-07	-4.599821e-06	-8.831990e-09	-3.441130e+01	-5.829299e+02
9.300000e-07	-4.587599e-06	-8.807510e-09	-3.431987e+01	-5.824715e+02
9.400000e-07	-4.575226e-06	-8.802819e-09	-3.422730e+01	-5.819966e+02
9.500000e-07	-4.562733e-06	-8.809213e-09	-3.413384e+01	-5.815027e+02
9.600000e-07	-4.550275e-06	-8.810124e-09	-3.404064e+01	-5.809880e+02
9.700000e-07	-4.537695e-06	-8.787732e-09	-3.394653e+01	-5.804510e+02
9.800000e-07	-4.524905e-06	-8.776372e-09	-3.385085e+01	-5.798906e+02
9.900000e-07	-4.511925e-06	-8.773608e-09	-3.375375e+01	-5.793061e+02
1.000000e-06	-4.498881e-06	-8.767017e-09	-3.365617e+01	-5.786972e+02
1.010000e-06	-4.485749e-06	-8.746843e-09	-3.355792e+01	-5.780640e+02
1.020000e-06	-4.472408e-06	-8.723190e-09	-3.345812e+01	-5.774070e+02
1.030000e-06	-4.458891e-06	-8.717679e-09	-3.335700e+01	-5.767267e+02
1.040000e-06	-4.445280e-06	-8.710788e-09	-3.325517e+01	-5.760241e+02
1.050000e-06	-4.431551e-06	-8.701031e-09	-3.315247e+01	-5.753002e+02
1.060000e-06	-4.417649e-06	-8.681780e-09	-3.304846e+01	-5.745559e+02
1.070000e-06	-4.403731e-06	-8.665037e-09	-3.294435e+01	-5.737925e+02
1.080000e-06	-4.389745e-06	-8.656759e-09	-3.283972e+01	-5.730108e+02
1.090000e-06	-4.375594e-06	-8.647157e-09	-3.273385e+01	-5.722118e+02
1.100000e-06	-4.361311e-06	-8.633990e-09	-3.262700e+01	-5.713963e+02
1.110000e-06	-4.346783e-06	-8.610303e-09	-3.251832e+01	-5.705650e+02
1.120000e-06	-4.332192e-06	-8.591332e-09	-3.240916e+01	-5.697182e+02
1.130000e-06	-4.317683e-06	-8.575406e-09	-3.230062e+01	-5.688564e+02
1.140000e-06	-4.302962e-06	-8.561736e-09	-3.219049e+01	-5.679798e+02
1.150000e-06	-4.288051e-06	-8.544683e-09	-3.207894e+01	-5.670885e+02
1.160000e-06	-4.273052e-06	-8.523032e-09	-3.196674e+01	-5.661825e+02
1.170000e-06	-4.257865e-06	-8.509061e-09	-3.185312e+01	-5.652620e+02
1.180000e-06	-4.242587e-06	-8.494963e-09	-3.173883e+01	-5.643269e+02
1.190000e-06	-4.227020e-06	-8.478493e-09	-3.162237e+01	-5.633775e+02
1.200000e-06	-4.211315e-06	-8.453971e-09	-3.150488e+01	-5.624139e+02
1.210000e-06	-4.195472e-06	-8.431702e-09	-3.138636e+01	-5.614365e+02
1.220000e-06	-4.179403e-06	-8.420045e-09	-3.126615e+01	-5.604458e+02
1.230000e-06	-4.163376e-06	-8.411197e-09	-3.114625e+01	-5.594425e+02
1.240000e-06	-4.147219e-06	-8.402036e-09	-3.102538e+01	-5.584275e+02
1.250000e-06	-4.130881e-06	-8.385289e-09	-3.090315e+01	-5.574017e+02
1.260000e-06	-4.114279e-06	-8.370212e-09	-3.077895e+01	-5.563663e+02
1.270000e-06	-4.097530e-06	-8.355967e-09	-3.065365e+01	-5.553227e+02
1.280000e-06	-4.080626e-06	-8.336390e-09	-3.052719e+01	-5.542720e+02
1.290000e-06	-4.063535e-06	-8.311098e-09	-3.039934e+01	-5.532158e+02
1.300000e-06	-4.046401e-06	-8.285342e-09	-3.027116e+01	-5.521556e+02
1.310000e-06	-4.029110e-06	-8.270114e-09	-3.014181e+01	-5.510926e+02
1.320000e-06	-4.011704e-06	-8.256002e-09	-3.001159e+01	-5.500283e+02
1.330000e-06	-3.994374e-06	-8.239979e-09	-2.988194e+01	-5.489639e+02
1.340000e-06	-3.976978e-06	-8.219907e-09	-2.975180e+01	-5.479005e+02
1.350000e-06	-3.959497e-06	-8.199845e-09	-2.962103e+01	-5.468390e+02
1.360000e-06	-3.941957e-06	-8.185612e-09	-2.948981e+01	-5.457803e+02
1.370000e-06	-3.924371e-06	-8.170268e-09	-2.935825e+01	-5.447249e+02
1.380000e-06	-3.906734e-06	-8.151499e-09	-2.922631e+01	-5.436732e+02
1.390000e-06	-3.888961e-06	-8.127547e-09	-2.909334e+01	-5.426254e+02
1.400000e-06	-3.871010e-06	-8.108750e-09	-2.895906e+01	-5.415816e+02
1.410000e-06	-3.852934e-06	-8.093237e-09	-2.882383e+01	-5.405415e+02
1.420000e-06	-3.834897e-06	-8.075786e-09	-2.868890e+01	-5.395048e+02
1.430000e-06	-3.816765e-06	-8.058019e-09	-2.855325e+01	-5.384712e+02
1.440000e-06	-3.798476e-06	-8.037841e-09	-2.841643e+01	-5.374399e+02
1.450000e-06	-3.780186e-06	-8.020354e-09	-2.827960e+01	-5.364102e+02
1.460000e-06	-3.761839e-06	-8.001559e-09	-2.814235e+01	-5.353815e+02
1.470000e-06	-3.743480e-06	-7.982059e-09	-2.800500e+01	-5.343527e+02
1.480000e-06	-3.724987e-06	-7.961126e-09	-2.786666e+01	-5.333228e+02
1.490000e-06	-3.706207e-06	-7.941647e-09	-2.772617e+01	-5.322909e+02
1.500000e-06	-3.687300e-06	-7.927671e-09	-2.758472e+01	-5.312558e+02
1.510000e-06	-3.668310e-06	-7.913277e-09	-2.744266e+01	-5.302163e+02
1.520000e-06	-3.649226e-06	-7.899099e-09	-2.729989e+01	-5.291712e+02
1.530000e-06	-3.629991e-06	-7.882319e-09	-2.715599e+01	-5.281192e+02
1.540000e-06	-3.610664e-06	-7.865867e-09	-2.701141e+01	-5.270588e+02
1.550000e-06	-3.591382e-06	-7.848016e-09	-2.686715e+01	-5.259887e+02
1.560000e-06	-3.572062e-06	-7.828385e-09	-2.672262e+01	-5.249074e+02
1.570000e-06	-3.552501e-06	-7.812129e-09	-2.657629e+01	-5.238133e+02
1.580000e-06	-3.532850e-06	-7.796301e-09	-2.642928e+01	-5.227048e+02
1.590000e-06	-3.513110e-06	-7.779857e-09	-2.628160e+01	-5.215804e+02
1.600000e-06	-3.493201e-06	-7.759482e-09	-2.613266e+01	-5.204384e+02
1.610000e-06	-3.473303e-06	-7.738327e-09	-2.598381e+01	-5.192774e+02
1.620000e-06	-3.453344e-06	-7.719688e-09	-2.583450e+01	-5.180957e+02
1.630000e-06	-3.433276e-06	-7.700637e-09	-2.568437e+01	-5.168920e+02
1.640000e-06	-3.413170e-06	-7.677365e-09	-2.553395e+01	-5.156649e+02
1.650000e-06	-3.393024e-06	-7.652212e-09	-2.538324e+01	-5.144132e+02
1.660000e-06	-3.372894e-06	-7.632344e-09	-2.523264e+01	-5.131358e+02
1.670000e-06	-3.352698e-06	-7.614691e-09	-2.508156e+01	-5.118318e+02
1.680000e-06	-3.332409e-06	-7.594720e-09	-2.492977e+01	-5.105006e+02
1.690000e-06	-3.312094e-06	-7.573009e-09	-2.477780e+01	-5.091417e+02
1.700000e-06	-3.291767e-06	-7.553368e-09	-2.462573e+01	-5.077547e+02
1.710000e-06	-3.271408e-06	-7.534417e-09	-2.447343e+01	-5.063396e+02
1.720000e-06	-3.250972e-06	-7.513408e-09	-2.432055e+01	-5.048967e+02
1.730000e-06	-3.230510e-06	-7.488939e-09	-2.416747e+01	-5.034261e+02
1.740000e-06	-3.210037e-06	-7.458368e-09	-2.401431e+01	-5.019285e+02
1.750000e-06	-3.189484e-06	-7.429934e-09	-2.386055e+01	-5.004045e+02
1.760000e-06	-3.168846e-06	-7.404172e-09	-2.370616e+01	-4.988550e+02
1.770000e-06	-3.148206e-06	-7.377790e-09	-2.355175e+01	-4.972810e+02
1.780000e-06	-3.127539e-06	-7.353420e-09	-2.339714e+01	-4.956835e+02
1.790000e-06	-3.106751e-06	-7.330594e-09	-2.324163e+01	-4.940637e+02
1.800000e-06	-3.085903e-06	-7.311534e-09	-2.308566e+01	-4.924227e+02
1.810000e-06	-3.064927e-06	-7.291441e-09	-2.292874e+01	-4.907619e+02
1.820000e-06	-3.043862e-06	-7.268445e-09	-2.277115e+01	-4.890824e+02
1.830000e-06	-3.022753e-06	-7.240512e-09	-2.261324e+01	-4.873855e+02
1.840000e-06	-3.001521e-06	-7.208470e-09	-2.245440e+01	-4.856724e+02
1.850000e-06	-2.980246e-06	-7.178345e-09	-2.229524e+01	-4.839444e+02
1.860000e-06	-2.958907e-06	-7.150194e-09	-2.213561e+01	-4.822027e+02
1.870000e-06	-2.937323e-06	-7.127830e-09	-2.197414e+01	-4.804484e+02
1.880000e-06	-2.915631e-06	-7.105547e-09	-2.181186e+01	-4.786827e+02
1.890000e-06	-2.893947e-06	-7.082416e-09	-2.164964e+01	-4.769067e+02
1.900000e-06	-2.872156e-06	-7.060576e-09	-2.148662e+01	-4.751215e+02
1.910000e-06	-2.850283e-06	-7.033903e-09	-2.132299e+01	-4.733283e+02
1.920000e-06	-2.828342e-06	-7.002298e-09	-2.115885e+01	-4.715279e+02
1.930000e-06	-2.806322e-06	-6.967497e-09	-2.099411e+01	-4.697213e+02
1.940000e-06	-2.784238e-06	-6.933588e-09	-2.082890e+01	-4.679095e+02
1.950000e-06	-2.762076e-06	-6.900424e-09	-2.066311e+01	-4.660932e+02
1.960000e-06	-2.739783e-06	-6.870620e-09	-2.049634e+01	-4.642733e+02
1.970000e-06	-2.717515e-06	-6.850105e-09	-2.032975e+01	-4.624503e+02
1.980000e-06	-2.695336e-06	-6.831392e-09	-2.016383e+01	-4.606247e+02
1.990000e-06	-2.673074e-06	-6.810705e-09	-1.999729e+01	-4.587969e+02
2.000000e-06	-2.650712e-06	-6.785267e-09	-1.983000e+01	-4.569671e+02
2.010000e-06	-2.628268e-06	-6.759771e-09	-1.966209e+01	-4.551352e+02
2.020000e-06	-2.605718e-06	-6.734973e-09	-1.949340e+01	-4.533012e+02
2.030000e-06	-2.583099e-06	-6.704938e-09	-1.932418e+01	-4.514647e+02
2.040000e-06	-2.560405e-06	-6.672775e-09	-1.915441e+01	-4.496251e+02
2.050000e-06	-2.537672e-06	-6.641366e-09	-1.898435e+01	-4.477819e+02
2.060000e-06	-2.514871e-06	-6.616561e-09	-1.881377e+01	-4.459340e+02
2.070000e-06	-2.492028e-06	-6.593320e-09	-1.864288e+01	-4.440807e+02
2.080000e-06	-2.469136e-06	-6.565272e-09	-1.847163e+01	-4.422207e+02
2.090000e-06	-2.446155e-06	-6.538242e-09	-1.829970e+01	-4.403530e+02
2.100000e-06	-2.423052e-06	-6.515144e-09	-1.812687e+01	-4.384764e+02
2.110000e-06	-2.399995e-06	-6.493155e-09	-1.795438e+01	-4.365896e+02
2.120000e-06	-2.376972e-06	-6.466976e-09	-1.778215e+01	-4.346917e+02
2.130000e-06	-2.353763e-06	-6.436043e-09	-1.760852e+01	-4.327814e+02
2.140000e-06	-2.330467e-06	-6.405987e-09	-1.743424e+01	-4.308578e+02
2.150000e-06	-2.307130e-06	-6.380726e-09	-1.725966e+01	-4.289201e+02
2.160000e-06	-2.283789e-06	-6.356840e-09	-1.708504e+01	-4.269674e+02
2.170000e-06	-2.260328e-06	-6.331079e-09	-1.690953e+01	-4.249993e+02
2.180000e-06	-2.236766e-06	-6.308720e-09	-1.673326e+01	-4.230152e+02
2.190000e-06	-2.213108e-06	-6.287819e-09	-1.655628e+01	-4.210148e+02
2.200000e-06	-2.189449e-06	-6.265881e-09	-1.637929e+01	-4.189978e+02
2.210000e-06	-2.165785e-06	-6.237884e-09	-1.620225e+01	-4.169641e+02
2.220000e-06	-2.141959e-06	-6.202545e-09	-1.602401e+01	-4.149135e+02
2.230000e-06	-2.118125e-06	-6.166536e-09	-1.584571e+01	-4.128459e+02
2.240000e-06	-2.094337e-06	-6.132091e-09	-1.566775e+01	-4.107610e+02
2.250000e-06	-2.070499e-06	-6.098551e-09	-1.548942e+01	-4.086587e+02
2.260000e-06	-2.046515e-06	-6.067933e-09	-1.531000e+01	-4.065385e+02
2.270000e-06	-2.022473e-06	-6.041353e-09	-1.513013e+01	-4.043999e+02
2.280000e-06	-1.998421e-06	-6.017291e-09	-1.495020e+01	-4.022422e+02
2.290000e-06	-1.974369e-06	-5.990998e-09	-1.477027e+01	-4.000646e+02
2.300000e-06	-1.950318e-06	-5.959156e-09	-1.459035e+01	-3.978660e+02
2.310000e-06	-1.926199e-06	-5.926738e-09	-1.440991e+01	-3.956452e+02
2.320000e-06	-1.902068e-06	-5.894329e-09	-1.422939e+01	-3.934009e+02
2.330000e-06	-1.877843e-06	-5.862703e-09	-1.404815e+01	-3.911318e+02
2.340000e-06	-1.853562e-06	-5.831586e-09	-1.386651e+01	-3.888362e+02
2.350000e-06	-1.829361e-06	-5.798772e-09	-1.368547e+01	-3.865127e+02
2.360000e-06	-1.805147e-06	-5.765295e-09	-1.350432e+01	-3.841599e+02
2.370000e-06	-1.780842e-06	-5.731629e-09	-1.332249e+01	-3.817764e+02
2.380000e-06	-1.756402e-06	-5.695977e-09	-1.313965e+01	-3.793612e+02
2.390000e-06	-1.731955e-06	-5.659387e-09	-1.295677e+01	-3.769133e+02
2.400000e-06	-1.707652e-06	-5.621482e-09	-1.277496e+01	-3.744322e+02
2.410000e-06	-1.683357e-06	-5.581207e-09	-1.259320e+01	-3.719174e+02
2.420000e-06	-1.658903e-06	-5.542633e-09	-1.241027e+01	-3.693691e+02
2.430000e-06	-1.634328e-06	-5.506919e-09	-1.222642e+01	-3.667877e+02
2.440000e-06	-1.609746e-06	-5.472015e-09	-1.204252e+01	-3.641741e+02
2.450000e-06	-1.585128e-06	-5.435247e-09	-1.185836e+01	-3.615292e+02
2.460000e-06	-1.560525e-06	-5.395911e-09	-1.167430e+01	-3.588547e+02
2.470000e-06	-1.535982e-06	-5.357711e-09	-1.149069e+01	-3.561521e+02
2.480000e-06	-1.511396e-06	-5.321643e-09	-1.130676e+01	-3.534236e+02
2.490000e-06	-1.486699e-06	-5.285763e-09	-1.112201e+01	-3.506711e+02
2.500000e-06	-1.461899e-06	-5.247109e-09	-1.093648e+01	-3.478969e+02
2.510000e-06	-1.437038e-06	-5.206320e-09	-1.075049e+01	-3.451031e+02
2.520000e-06	-1.412183e-06	-5.167151e-09	-1.056455e+01	-3.422918e+02
2.530000e-06	-1.387276e-06	-5.127826e-09	-1.037822e+01	-3.394650e+02
2.540000e-06	-1.362269e-06	-5.085134e-09	-1.019115e+01	-3.366246e+02
2.550000e-06	-1.337408e-06	-5.041862e-09	-1.000516e+01	-3.337719e+02
2.560000e-06	-1.312693e-06	-5.002103e-09	-9.820267e+00	-3.309082e+02
2.570000e-06	-1.287856e-06	-4.962428e-09	-9.634463e+00	-3.280344e+02
2.580000e-06	-1.262937e-06	-4.918657e-09	-9.448044e+00	-3.251511e+02
2.590000e-06	-1.237995e-06	-4.874735e-09	-9.261447e+00	-3.222585e+02
2.600000e-06	-1.212869e-06	-4.836148e-09	-9.073481e+00	-3.193565e+02
2.610000e-06	-1.187544e-06	-4.800847e-09	-8.884025e+00	-3.164449e+02
2.620000e-06	-1.162218e-06	-4.759965e-09	-8.694561e+00	-3.135231e+02
2.630000e-06	-1.136968e-06	-4.712032e-09	-8.505664e+00	-3.105903e+02
2.640000e-06	-1.111696e-06	-4.666069e-09	-8.316608e+00	-3.076457e+02
2.650000e-06	-1.086463e-06	-4.626050e-09	-8.127838e+00	-3.046884e+02
2.660000e-06	-1.061233e-06	-4.585503e-09	-7.939093e+00	-3.017175e+02
2.670000e-06	-1.035957e-06	-4.542201e-09	-7.750006e+00	-2.987322e+02
2.680000e-06	-1.010504e-06	-4.498529e-09	-7.559585e+00	-2.957316e+02
2.690000e-06	-9.849336e-07	-4.457172e-09	-7.368296e+00	-2.927153e+02
2.700000e-06	-9.594076e-07	-4.415769e-09	-7.177336e+00	-2.896827e+02
2.710000e-06	-9.338613e-07	-4.368125e-09	-6.986224e+00	-2.866335e+02
2.720000e-06	-9.082433e-07	-4.316567e-09	-6.794575e+00	-2.835676e+02
2.730000e-06	-8.825085e-07	-4.268148e-09	-6.602053e+00	-2.804848e+02
2.740000e-06	-8.566722e-07	-4.224716e-09	-6.408772e+00	-2.773854e+02
2.750000e-06	-8.307993e-07	-4.181922e-09	-6.215216e+00	-2.742694e+02
2.760000e-06	-8.050288e-07	-4.136346e-09	-6.022427e+00	-2.711369e+02
2.770000e-06	-7.793190e-07	-4.090017e-09	-5.830092e+00	-2.679880e+02
2.780000e-06	-7.535480e-07	-4.043968e-09	-5.637298e+00	-2.648227e+02
2.790000e-06	-7.277032e-07	-3.997545e-09	-5.443953e+00	-2.616408e+02
2.800000e-06	-7.017614e-07	-3.950544e-09	-5.249882e+00	-2.584419e+02
2.810000e-06	-6.756929e-07	-3.904229e-09	-5.054864e+00	-2.552253e+02
2.820000e-06	-6.495580e-07	-3.860669e-09	-4.859348e+00	-2.519902e+02
2.830000e-06	-6.234932e-07	-3.816588e-09	-4.664357e+00	-2.487353e+02
2.840000e-06	-5.974943e-07	-3.769920e-09	-4.469860e+00	-2.454591e+02
2.850000e-06	-5.714493e-07	-3.719114e-09	-4.275017e+00	-2.421598e+02
