# Temperatura_=_20.0
# Concentracion g/m^3_=_10000.0
# C_Vs_to_Am_M_A/Vsm_=_65563218390.804596
# pendiente_HvsI_1/m_=_3716.3
# ordenada_HvsI_A/m_=_1297.0
# frecuencia_Hz_=_135299.33526663223

Tiempo_(s)	Campo_(V.s)	Magnetizacion_(V.s)	Campo_(kA/m)	Magnetizacion_(A/m)
0.000000e+00	-4.192274e-06	-8.527720e-09	-3.095519e+01	-5.573819e+02
1.000000e-08	-4.192231e-06	-8.523079e-09	-3.095487e+01	-5.573859e+02
2.000000e-08	-4.191907e-06	-8.521132e-09	-3.095248e+01	-5.573825e+02
3.000000e-08	-4.191227e-06	-8.522180e-09	-3.094746e+01	-5.573753e+02
4.000000e-08	-4.190179e-06	-8.523387e-09	-3.093972e+01	-5.573641e+02
5.000000e-08	-4.188788e-06	-8.523064e-09	-3.092945e+01	-5.573442e+02
6.000000e-08	-4.187128e-06	-8.518701e-09	-3.091719e+01	-5.573064e+02
7.000000e-08	-4.185189e-06	-8.516288e-09	-3.090287e+01	-5.572367e+02
8.000000e-08	-4.182809e-06	-8.539014e-09	-3.088530e+01	-5.571175e+02
9.000000e-08	-4.179910e-06	-8.546885e-09	-3.086389e+01	-5.569293e+02
1.000000e-07	-4.176803e-06	-8.505150e-09	-3.084095e+01	-5.566523e+02
1.100000e-07	-4.173712e-06	-8.482034e-09	-3.081813e+01	-5.562688e+02
1.200000e-07	-4.170308e-06	-8.510173e-09	-3.079300e+01	-5.557654e+02
1.300000e-07	-4.166433e-06	-8.441870e-09	-3.076438e+01	-5.551351e+02
1.400000e-07	-4.162384e-06	-8.440075e-09	-3.073449e+01	-5.543782e+02
1.500000e-07	-4.158090e-06	-8.510343e-09	-3.070278e+01	-5.535038e+02
1.600000e-07	-4.153314e-06	-8.474263e-09	-3.066752e+01	-5.525288e+02
1.700000e-07	-4.148083e-06	-8.441383e-09	-3.062889e+01	-5.514774e+02
1.800000e-07	-4.142567e-06	-8.454753e-09	-3.058816e+01	-5.503793e+02
1.900000e-07	-4.136845e-06	-8.448861e-09	-3.054591e+01	-5.492667e+02
2.000000e-07	-4.130741e-06	-8.434901e-09	-3.050084e+01	-5.481724e+02
2.100000e-07	-4.124168e-06	-8.411776e-09	-3.045230e+01	-5.471259e+02
2.200000e-07	-4.117311e-06	-8.410100e-09	-3.040167e+01	-5.461518e+02
2.300000e-07	-4.110234e-06	-8.409255e-09	-3.034942e+01	-5.452670e+02
2.400000e-07	-4.102804e-06	-8.403243e-09	-3.029456e+01	-5.444801e+02
2.500000e-07	-4.095024e-06	-8.383164e-09	-3.023711e+01	-5.437903e+02
2.600000e-07	-4.087040e-06	-8.393767e-09	-3.017816e+01	-5.431886e+02
2.700000e-07	-4.078892e-06	-8.374810e-09	-3.011800e+01	-5.426588e+02
2.800000e-07	-4.070486e-06	-8.336149e-09	-3.005593e+01	-5.421795e+02
2.900000e-07	-4.061796e-06	-8.341730e-09	-2.999176e+01	-5.417271e+02
3.000000e-07	-4.052829e-06	-8.351294e-09	-2.992555e+01	-5.412776e+02
3.100000e-07	-4.043576e-06	-8.338330e-09	-2.985723e+01	-5.408094e+02
3.200000e-07	-4.034079e-06	-8.310354e-09	-2.978710e+01	-5.403054e+02
3.300000e-07	-4.024385e-06	-8.311164e-09	-2.971552e+01	-5.397538e+02
3.400000e-07	-4.014421e-06	-8.295865e-09	-2.964195e+01	-5.391490e+02
3.500000e-07	-4.004015e-06	-8.280003e-09	-2.956511e+01	-5.384911e+02
3.600000e-07	-3.993169e-06	-8.255650e-09	-2.948503e+01	-5.377852e+02
3.700000e-07	-3.982041e-06	-8.258479e-09	-2.940286e+01	-5.370400e+02
3.800000e-07	-3.970672e-06	-8.249612e-09	-2.931891e+01	-5.362659e+02
3.900000e-07	-3.959036e-06	-8.245819e-09	-2.923299e+01	-5.354735e+02
4.000000e-07	-3.947128e-06	-8.223471e-09	-2.914507e+01	-5.346716e+02
4.100000e-07	-3.934966e-06	-8.204623e-09	-2.905526e+01	-5.338668e+02
4.200000e-07	-3.922556e-06	-8.184118e-09	-2.896363e+01	-5.330622e+02
4.300000e-07	-3.909925e-06	-8.178612e-09	-2.887036e+01	-5.322575e+02
4.400000e-07	-3.897117e-06	-8.158591e-09	-2.877579e+01	-5.314494e+02
4.500000e-07	-3.884092e-06	-8.140794e-09	-2.867962e+01	-5.306324e+02
4.600000e-07	-3.870671e-06	-8.130771e-09	-2.858052e+01	-5.298000e+02
4.700000e-07	-3.856814e-06	-8.122231e-09	-2.847820e+01	-5.289459e+02
4.800000e-07	-3.842611e-06	-8.108947e-09	-2.837333e+01	-5.280647e+02
4.900000e-07	-3.828180e-06	-8.092110e-09	-2.826677e+01	-5.271532e+02
5.000000e-07	-3.813572e-06	-8.074340e-09	-2.815890e+01	-5.262105e+02
5.100000e-07	-3.798714e-06	-8.052348e-09	-2.804919e+01	-5.252382e+02
5.200000e-07	-3.783537e-06	-8.036428e-09	-2.793713e+01	-5.242398e+02
5.300000e-07	-3.768027e-06	-8.011376e-09	-2.782261e+01	-5.232202e+02
5.400000e-07	-3.752261e-06	-7.992702e-09	-2.770619e+01	-5.221848e+02
5.500000e-07	-3.736329e-06	-7.980871e-09	-2.758856e+01	-5.211386e+02
5.600000e-07	-3.720216e-06	-7.980049e-09	-2.746958e+01	-5.200852e+02
5.700000e-07	-3.703832e-06	-7.965344e-09	-2.734860e+01	-5.190261e+02
5.800000e-07	-3.687085e-06	-7.943953e-09	-2.722495e+01	-5.179608e+02
5.900000e-07	-3.669948e-06	-7.918123e-09	-2.709841e+01	-5.168865e+02
6.000000e-07	-3.652515e-06	-7.901261e-09	-2.696968e+01	-5.157984e+02
6.100000e-07	-3.634860e-06	-7.876535e-09	-2.683932e+01	-5.146907e+02
6.200000e-07	-3.616969e-06	-7.851211e-09	-2.670722e+01	-5.135572e+02
6.300000e-07	-3.598830e-06	-7.832658e-09	-2.657328e+01	-5.123921e+02
6.400000e-07	-3.580424e-06	-7.826536e-09	-2.643737e+01	-5.111906e+02
6.500000e-07	-3.561735e-06	-7.814108e-09	-2.629937e+01	-5.099501e+02
6.600000e-07	-3.542802e-06	-7.788654e-09	-2.615957e+01	-5.086697e+02
6.700000e-07	-3.523652e-06	-7.757669e-09	-2.601818e+01	-5.073508e+02
6.800000e-07	-3.504264e-06	-7.728424e-09	-2.587502e+01	-5.059967e+02
6.900000e-07	-3.484559e-06	-7.704146e-09	-2.572952e+01	-5.046117e+02
7.000000e-07	-3.464467e-06	-7.679215e-09	-2.558116e+01	-5.032009e+02
7.100000e-07	-3.444025e-06	-7.656409e-09	-2.543022e+01	-5.017694e+02
7.200000e-07	-3.423302e-06	-7.636056e-09	-2.527721e+01	-5.003215e+02
7.300000e-07	-3.402323e-06	-7.621527e-09	-2.512230e+01	-4.988602e+02
7.400000e-07	-3.381064e-06	-7.602938e-09	-2.496532e+01	-4.973873e+02
7.500000e-07	-3.359551e-06	-7.577766e-09	-2.480647e+01	-4.959025e+02
7.600000e-07	-3.337855e-06	-7.547953e-09	-2.464628e+01	-4.944047e+02
7.700000e-07	-3.315953e-06	-7.521497e-09	-2.448455e+01	-4.928914e+02
7.800000e-07	-3.293792e-06	-7.494696e-09	-2.432092e+01	-4.913597e+02
7.900000e-07	-3.271447e-06	-7.467047e-09	-2.415592e+01	-4.898066e+02
8.000000e-07	-3.248937e-06	-7.439517e-09	-2.398972e+01	-4.882296e+02
8.100000e-07	-3.226186e-06	-7.418959e-09	-2.382173e+01	-4.866268e+02
8.200000e-07	-3.203122e-06	-7.399723e-09	-2.365143e+01	-4.849975e+02
8.300000e-07	-3.179703e-06	-7.377183e-09	-2.347850e+01	-4.833418e+02
8.400000e-07	-3.155993e-06	-7.348764e-09	-2.330343e+01	-4.816607e+02
8.500000e-07	-3.132089e-06	-7.318784e-09	-2.312693e+01	-4.799557e+02
8.600000e-07	-3.108029e-06	-7.290751e-09	-2.294927e+01	-4.782283e+02
8.700000e-07	-3.083767e-06	-7.261796e-09	-2.277013e+01	-4.764799e+02
8.800000e-07	-3.059285e-06	-7.230835e-09	-2.258935e+01	-4.747116e+02
8.900000e-07	-3.034588e-06	-7.199175e-09	-2.240700e+01	-4.729235e+02
9.000000e-07	-3.009666e-06	-7.171168e-09	-2.222297e+01	-4.711150e+02
9.100000e-07	-2.984525e-06	-7.145401e-09	-2.203733e+01	-4.692851e+02
9.200000e-07	-2.959153e-06	-7.117509e-09	-2.184999e+01	-4.674322e+02
9.300000e-07	-2.933623e-06	-7.088159e-09	-2.166148e+01	-4.655544e+02
9.400000e-07	-2.907976e-06	-7.057958e-09	-2.147211e+01	-4.636504e+02
9.500000e-07	-2.882186e-06	-7.026498e-09	-2.128167e+01	-4.617190e+02
9.600000e-07	-2.856199e-06	-6.995379e-09	-2.108979e+01	-4.597598e+02
9.700000e-07	-2.829921e-06	-6.962389e-09	-2.089576e+01	-4.577731e+02
9.800000e-07	-2.803363e-06	-6.927805e-09	-2.069966e+01	-4.557598e+02
9.900000e-07	-2.776558e-06	-6.894899e-09	-2.050173e+01	-4.537213e+02
1.000000e-06	-2.749534e-06	-6.863340e-09	-2.030219e+01	-4.516591e+02
1.010000e-06	-2.722370e-06	-6.829397e-09	-2.010162e+01	-4.495743e+02
1.020000e-06	-2.695058e-06	-6.793073e-09	-1.989995e+01	-4.474674e+02
1.030000e-06	-2.667556e-06	-6.758097e-09	-1.969687e+01	-4.453382e+02
1.040000e-06	-2.639857e-06	-6.727648e-09	-1.949235e+01	-4.431851e+02
1.050000e-06	-2.611969e-06	-6.698088e-09	-1.928643e+01	-4.410055e+02
1.060000e-06	-2.583901e-06	-6.665372e-09	-1.907918e+01	-4.387960e+02
1.070000e-06	-2.555630e-06	-6.627893e-09	-1.887043e+01	-4.365523e+02
1.080000e-06	-2.527157e-06	-6.590512e-09	-1.866019e+01	-4.342699e+02
1.090000e-06	-2.498519e-06	-6.554629e-09	-1.844873e+01	-4.319445e+02
1.100000e-06	-2.469766e-06	-6.514480e-09	-1.823642e+01	-4.295724e+02
1.110000e-06	-2.440895e-06	-6.469777e-09	-1.802324e+01	-4.271512e+02
1.120000e-06	-2.411871e-06	-6.427532e-09	-1.780893e+01	-4.246796e+02
1.130000e-06	-2.382644e-06	-6.391806e-09	-1.759313e+01	-4.221579e+02
1.140000e-06	-2.353120e-06	-6.358254e-09	-1.737512e+01	-4.195877e+02
1.150000e-06	-2.323332e-06	-6.320091e-09	-1.715517e+01	-4.169719e+02
1.160000e-06	-2.293326e-06	-6.278851e-09	-1.693361e+01	-4.143139e+02
1.170000e-06	-2.263106e-06	-6.240819e-09	-1.671047e+01	-4.116179e+02
1.180000e-06	-2.232726e-06	-6.201864e-09	-1.648615e+01	-4.088877e+02
1.190000e-06	-2.202207e-06	-6.155695e-09	-1.626080e+01	-4.061267e+02
1.200000e-06	-2.171553e-06	-6.105125e-09	-1.603446e+01	-4.033373e+02
1.210000e-06	-2.140717e-06	-6.056500e-09	-1.580677e+01	-4.005212e+02
1.220000e-06	-2.109722e-06	-6.012582e-09	-1.557791e+01	-3.976787e+02
1.230000e-06	-2.078600e-06	-5.972322e-09	-1.534810e+01	-3.948095e+02
1.240000e-06	-2.047342e-06	-5.931501e-09	-1.511730e+01	-3.919124e+02
1.250000e-06	-2.015919e-06	-5.892225e-09	-1.488528e+01	-3.889860e+02
1.260000e-06	-1.984280e-06	-5.854314e-09	-1.465165e+01	-3.860287e+02
1.270000e-06	-1.952424e-06	-5.810562e-09	-1.441643e+01	-3.830396e+02
1.280000e-06	-1.920341e-06	-5.758753e-09	-1.417954e+01	-3.800179e+02
1.290000e-06	-1.888079e-06	-5.704143e-09	-1.394132e+01	-3.769638e+02
1.300000e-06	-1.855684e-06	-5.654114e-09	-1.370213e+01	-3.738781e+02
1.310000e-06	-1.823172e-06	-5.609313e-09	-1.346206e+01	-3.707620e+02
1.320000e-06	-1.790608e-06	-5.566086e-09	-1.322161e+01	-3.676170e+02
1.330000e-06	-1.757963e-06	-5.521246e-09	-1.298056e+01	-3.644446e+02
1.340000e-06	-1.725179e-06	-5.477382e-09	-1.273849e+01	-3.612459e+02
1.350000e-06	-1.692271e-06	-5.433302e-09	-1.249550e+01	-3.580213e+02
1.360000e-06	-1.659247e-06	-5.386562e-09	-1.225166e+01	-3.547705e+02
1.370000e-06	-1.626082e-06	-5.334433e-09	-1.200678e+01	-3.514922e+02
1.380000e-06	-1.592788e-06	-5.279316e-09	-1.176093e+01	-3.481843e+02
1.390000e-06	-1.559392e-06	-5.226639e-09	-1.151435e+01	-3.448442e+02
1.400000e-06	-1.525920e-06	-5.175725e-09	-1.126719e+01	-3.414688e+02
1.410000e-06	-1.492394e-06	-5.123007e-09	-1.101964e+01	-3.380553e+02
1.420000e-06	-1.458816e-06	-5.068239e-09	-1.077171e+01	-3.346011e+02
1.430000e-06	-1.425192e-06	-5.014308e-09	-1.052343e+01	-3.311044e+02
1.440000e-06	-1.391517e-06	-4.961847e-09	-1.027478e+01	-3.275643e+02
1.450000e-06	-1.357756e-06	-4.908570e-09	-1.002549e+01	-3.239806e+02
1.460000e-06	-1.323865e-06	-4.852820e-09	-9.775241e+00	-3.203542e+02
1.470000e-06	-1.289874e-06	-4.795838e-09	-9.524260e+00	-3.166866e+02
1.480000e-06	-1.255814e-06	-4.738371e-09	-9.272761e+00	-3.129795e+02
1.490000e-06	-1.221684e-06	-4.680935e-09	-9.020749e+00	-3.092343e+02
1.500000e-06	-1.187467e-06	-4.621349e-09	-8.768099e+00	-3.054522e+02
1.510000e-06	-1.153153e-06	-4.559462e-09	-8.514724e+00	-3.016335e+02
1.520000e-06	-1.118778e-06	-4.496886e-09	-8.260905e+00	-2.977774e+02
1.530000e-06	-1.084353e-06	-4.436174e-09	-8.006718e+00	-2.938821e+02
1.540000e-06	-1.049850e-06	-4.375267e-09	-7.751952e+00	-2.899449e+02
1.550000e-06	-1.015233e-06	-4.314276e-09	-7.496348e+00	-2.859625e+02
1.560000e-06	-9.805012e-07	-4.250407e-09	-7.239890e+00	-2.819311e+02
1.570000e-06	-9.456830e-07	-4.183972e-09	-6.982797e+00	-2.778474e+02
1.580000e-06	-9.108070e-07	-4.118362e-09	-6.725277e+00	-2.737084e+02
1.590000e-06	-8.758747e-07	-4.053937e-09	-6.467342e+00	-2.695125e+02
1.600000e-06	-8.408652e-07	-3.989171e-09	-6.208836e+00	-2.652593e+02
1.610000e-06	-8.057938e-07	-3.921364e-09	-5.949874e+00	-2.609499e+02
1.620000e-06	-7.706925e-07	-3.852769e-09	-5.690691e+00	-2.565865e+02
1.630000e-06	-7.355845e-07	-3.784997e-09	-5.431457e+00	-2.521726e+02
1.640000e-06	-7.004665e-07	-3.716961e-09	-5.172151e+00	-2.477123e+02
1.650000e-06	-6.653199e-07	-3.647918e-09	-4.912633e+00	-2.432095e+02
1.660000e-06	-6.301595e-07	-3.578923e-09	-4.653014e+00	-2.386679e+02
1.670000e-06	-5.950108e-07	-3.507284e-09	-4.393480e+00	-2.340901e+02
1.680000e-06	-5.598550e-07	-3.432816e-09	-4.133895e+00	-2.294771e+02
1.690000e-06	-5.246664e-07	-3.356798e-09	-3.874067e+00	-2.248283e+02
1.700000e-06	-4.894526e-07	-3.282763e-09	-3.614053e+00	-2.201417e+02
1.710000e-06	-4.542033e-07	-3.210752e-09	-3.353777e+00	-2.154134e+02
1.720000e-06	-4.189125e-07	-3.138449e-09	-3.093194e+00	-2.106385e+02
1.730000e-06	-3.836104e-07	-3.062084e-09	-2.832528e+00	-2.058118e+02
1.740000e-06	-3.483007e-07	-2.981839e-09	-2.571806e+00	-2.009278e+02
1.750000e-06	-3.129778e-07	-2.901770e-09	-2.310986e+00	-1.959817e+02
1.760000e-06	-2.776367e-07	-2.821521e-09	-2.050033e+00	-1.909698e+02
1.770000e-06	-2.422511e-07	-2.740844e-09	-1.788750e+00	-1.858899e+02
1.780000e-06	-2.068478e-07	-2.660460e-09	-1.527336e+00	-1.807414e+02
1.790000e-06	-1.714528e-07	-2.582777e-09	-1.265984e+00	-1.755252e+02
1.800000e-06	-1.360592e-07	-2.507610e-09	-1.004643e+00	-1.702432e+02
1.810000e-06	-1.006646e-07	-2.430737e-09	-7.432940e-01	-1.648985e+02
1.820000e-06	-6.526934e-08	-2.346996e-09	-4.819401e-01	-1.594942e+02
1.830000e-06	-2.982677e-08	-2.258606e-09	-2.202369e-01	-1.540331e+02
1.840000e-06	5.654581e-09	-2.170994e-09	4.175267e-02	-1.485170e+02
1.850000e-06	4.112724e-08	-2.085042e-09	3.036780e-01	-1.429468e+02
1.860000e-06	7.661245e-08	-1.999104e-09	5.656961e-01	-1.373216e+02
1.870000e-06	1.120874e-07	-1.911544e-09	8.276385e-01	-1.316393e+02
1.880000e-06	1.475690e-07	-1.823785e-09	1.089630e+00	-1.258963e+02
1.890000e-06	1.830425e-07	-1.737969e-09	1.351561e+00	-1.200884e+02
1.900000e-06	2.184687e-07	-1.650051e-09	1.613144e+00	-1.142107e+02
1.910000e-06	2.538617e-07	-1.556709e-09	1.874481e+00	-1.082587e+02
1.920000e-06	2.892362e-07	-1.461683e-09	2.135681e+00	-1.022283e+02
1.930000e-06	3.245951e-07	-1.368296e-09	2.396767e+00	-9.611671e+01
1.940000e-06	3.599197e-07	-1.273428e-09	2.657599e+00	-8.992221e+01
1.950000e-06	3.951826e-07	-1.174608e-09	2.917975e+00	-8.364465e+01
1.960000e-06	4.304233e-07	-1.075362e-09	3.178188e+00	-7.728514e+01
1.970000e-06	4.656982e-07	-9.809040e-10	3.438653e+00	-7.084580e+01
1.980000e-06	5.009786e-07	-8.897815e-10	3.699159e+00	-6.432947e+01
1.990000e-06	5.362414e-07	-7.945720e-10	3.959535e+00	-5.773919e+01
2.000000e-06	5.714587e-07	-6.943435e-10	4.219575e+00	-5.107788e+01
2.010000e-06	6.066326e-07	-5.933962e-10	4.479294e+00	-4.434797e+01
2.020000e-06	6.417865e-07	-4.924839e-10	4.738866e+00	-3.755124e+01
2.030000e-06	6.769181e-07	-3.871235e-10	4.998273e+00	-3.068877e+01
2.040000e-06	7.120178e-07	-2.761713e-10	5.257444e+00	-2.376108e+01
2.050000e-06	7.470726e-07	-1.675365e-10	5.516285e+00	-1.676838e+01
2.060000e-06	7.820697e-07	-6.340759e-11	5.774698e+00	-9.710937e+00
2.070000e-06	8.170263e-07	4.073428e-11	6.032813e+00	-2.589435e+00
2.080000e-06	8.519734e-07	1.488733e-10	6.290858e+00	4.594673e+00
2.090000e-06	8.868467e-07	2.576652e-10	6.548358e+00	1.183892e+01
2.100000e-06	9.216436e-07	3.614723e-10	6.805293e+00	1.913971e+01
2.110000e-06	9.564277e-07	4.657692e-10	7.062135e+00	2.649237e+01
2.120000e-06	9.911337e-07	5.775845e-10	7.318399e+00	3.389135e+01
2.130000e-06	1.025736e-06	6.929315e-10	7.573897e+00	4.133058e+01
2.140000e-06	1.060295e-06	8.048300e-10	7.829080e+00	4.880383e+01
2.150000e-06	1.094783e-06	9.141778e-10	8.083734e+00	5.630517e+01
2.160000e-06	1.129158e-06	1.025606e-09	8.337555e+00	6.382930e+01
2.170000e-06	1.163458e-06	1.140050e-09	8.590821e+00	7.137184e+01
2.180000e-06	1.197686e-06	1.253573e-09	8.843552e+00	7.892941e+01
2.190000e-06	1.231818e-06	1.366144e-09	9.095581e+00	8.649955e+01
2.200000e-06	1.265852e-06	1.480507e-09	9.346886e+00	9.408048e+01
2.210000e-06	1.299801e-06	1.598166e-09	9.597554e+00	1.016707e+02
2.220000e-06	1.333674e-06	1.717605e-09	9.847673e+00	1.092685e+02
2.230000e-06	1.367466e-06	1.832585e-09	1.009719e+01	1.168716e+02
2.240000e-06	1.401178e-06	1.943116e-09	1.034611e+01	1.244764e+02
2.250000e-06	1.434827e-06	2.056525e-09	1.059457e+01	1.320783e+02
2.260000e-06	1.468417e-06	2.170881e-09	1.084260e+01	1.396707e+02
2.270000e-06	1.501930e-06	2.282339e-09	1.109005e+01	1.472459e+02
2.280000e-06	1.535357e-06	2.392765e-09	1.133687e+01	1.547949e+02
2.290000e-06	1.568656e-06	2.505770e-09	1.158275e+01	1.623079e+02
2.300000e-06	1.601855e-06	2.622819e-09	1.182788e+01	1.697749e+02
2.310000e-06	1.634974e-06	2.738627e-09	1.207243e+01	1.771865e+02
2.320000e-06	1.667902e-06	2.846747e-09	1.231556e+01	1.845340e+02
2.330000e-06	1.700646e-06	2.950230e-09	1.255734e+01	1.918103e+02
2.340000e-06	1.733264e-06	3.056896e-09	1.279819e+01	1.990101e+02
2.350000e-06	1.765791e-06	3.165846e-09	1.303836e+01	2.061300e+02
2.360000e-06	1.798252e-06	3.272235e-09	1.327805e+01	2.131682e+02
2.370000e-06	1.830609e-06	3.377204e-09	1.351697e+01	2.201247e+02
2.380000e-06	1.862862e-06	3.483463e-09	1.375512e+01	2.270003e+02
2.390000e-06	1.894974e-06	3.588889e-09	1.399223e+01	2.337967e+02
2.400000e-06	1.926915e-06	3.690259e-09	1.422808e+01	2.405155e+02
2.410000e-06	1.958665e-06	3.788843e-09	1.446252e+01	2.471578e+02
2.420000e-06	1.990239e-06	3.887852e-09	1.469566e+01	2.537240e+02
2.430000e-06	2.021674e-06	3.987674e-09	1.492777e+01	2.602135e+02
2.440000e-06	2.052941e-06	4.084480e-09	1.515864e+01	2.666244e+02
2.450000e-06	2.084050e-06	4.174251e-09	1.538835e+01	2.729540e+02
2.460000e-06	2.115020e-06	4.263177e-09	1.561703e+01	2.791987e+02
2.470000e-06	2.145833e-06	4.354203e-09	1.584454e+01	2.853545e+02
2.480000e-06	2.176462e-06	4.446993e-09	1.607070e+01	2.914176e+02
2.490000e-06	2.206943e-06	4.540042e-09	1.629577e+01	2.973841e+02
2.500000e-06	2.237316e-06	4.634305e-09	1.652004e+01	3.032514e+02
2.510000e-06	2.267569e-06	4.729679e-09	1.674343e+01	3.090173e+02
2.520000e-06	2.297623e-06	4.823108e-09	1.696534e+01	3.146810e+02
2.530000e-06	2.327432e-06	4.908431e-09	1.718544e+01	3.202426e+02
2.540000e-06	2.356979e-06	4.983734e-09	1.740362e+01	3.257032e+02
2.550000e-06	2.386245e-06	5.057565e-09	1.761972e+01	3.310646e+02
2.560000e-06	2.415300e-06	5.133733e-09	1.783425e+01	3.363292e+02
2.570000e-06	2.444203e-06	5.214626e-09	1.804767e+01	3.414993e+02
2.580000e-06	2.472971e-06	5.295219e-09	1.826009e+01	3.465776e+02
2.590000e-06	2.501589e-06	5.374593e-09	1.847140e+01	3.515660e+02
2.600000e-06	2.530048e-06	5.454814e-09	1.868154e+01	3.564664e+02
2.610000e-06	2.558346e-06	5.530236e-09	1.889049e+01	3.612802e+02
2.620000e-06	2.586491e-06	5.598149e-09	1.909830e+01	3.660082e+02
2.630000e-06	2.614436e-06	5.660294e-09	1.930465e+01	3.706510e+02
2.640000e-06	2.642165e-06	5.723544e-09	1.950939e+01	3.752088e+02
2.650000e-06	2.669726e-06	5.792790e-09	1.971290e+01	3.796817e+02
2.660000e-06	2.697111e-06	5.862455e-09	1.991511e+01	3.840700e+02
2.670000e-06	2.724345e-06	5.931841e-09	2.011620e+01	3.883739e+02
2.680000e-06	2.751443e-06	5.998761e-09	2.031629e+01	3.925939e+02
2.690000e-06	2.778394e-06	6.063593e-09	2.051529e+01	3.967306e+02
2.700000e-06	2.805099e-06	6.121996e-09	2.071247e+01	4.007851e+02
2.710000e-06	2.831497e-06	6.174963e-09	2.090740e+01	4.047585e+02
2.720000e-06	2.857595e-06	6.229014e-09	2.110010e+01	4.086524e+02
2.730000e-06	2.883429e-06	6.284853e-09	2.129086e+01	4.124683e+02
2.740000e-06	2.909112e-06	6.341904e-09	2.148050e+01	4.162080e+02
2.750000e-06	2.934649e-06	6.397620e-09	2.166906e+01	4.198733e+02
2.760000e-06	2.960022e-06	6.452343e-09	2.185641e+01	4.234661e+02
2.770000e-06	2.985211e-06	6.505789e-09	2.204240e+01	4.269882e+02
2.780000e-06	3.010187e-06	6.555452e-09	2.222682e+01	4.304414e+02
2.790000e-06	3.034962e-06	6.600897e-09	2.240975e+01	4.338275e+02
2.800000e-06	3.059528e-06	6.645472e-09	2.259114e+01	4.371479e+02
2.810000e-06	3.083879e-06	6.692628e-09	2.277095e+01	4.404043e+02
2.820000e-06	3.108049e-06	6.744287e-09	2.294942e+01	4.435979e+02
2.830000e-06	3.132061e-06	6.795528e-09	2.312672e+01	4.467296e+02
2.840000e-06	3.155892e-06	6.846529e-09	2.330269e+01	4.498004e+02
2.850000e-06	3.179487e-06	6.894266e-09	2.347690e+01	4.528108e+02
2.860000e-06	3.202783e-06	6.937471e-09	2.364892e+01	4.557615e+02
2.870000e-06	3.225722e-06	6.972356e-09	2.381830e+01	4.586527e+02
2.880000e-06	3.248320e-06	7.003057e-09	2.398516e+01	4.614847e+02
2.890000e-06	3.270717e-06	7.037168e-09	2.415054e+01	4.642579e+02
2.900000e-06	3.293008e-06	7.075960e-09	2.431513e+01	4.669728e+02
