# Temperatura_=_20.0
# Concentracion g/m^3_=_10000.0
# C_Vs_to_Am_M_A/Vsm_=_65563218390.804596
# pendiente_HvsI_1/m_=_3716.3
# ordenada_HvsI_A/m_=_1297.0
# frecuencia_Hz_=_135304.250017742

Tiempo_(s)	Campo_(V.s)	Magnetizacion_(V.s)	Campo_(kA/m)	Magnetizacion_(A/m)
0.000000e+00	-4.201191e-06	-8.487409e-09	-3.095737e+01	-5.541484e+02
1.000000e-08	-4.201085e-06	-8.480674e-09	-3.095659e+01	-5.541926e+02
2.000000e-08	-4.200665e-06	-8.480010e-09	-3.095349e+01	-5.542276e+02
3.000000e-08	-4.199888e-06	-8.486781e-09	-3.094777e+01	-5.542519e+02
4.000000e-08	-4.198752e-06	-8.494312e-09	-3.093940e+01	-5.542612e+02
5.000000e-08	-4.197310e-06	-8.498516e-09	-3.092877e+01	-5.542485e+02
6.000000e-08	-4.195611e-06	-8.496751e-09	-3.091625e+01	-5.542045e+02
7.000000e-08	-4.193557e-06	-8.486937e-09	-3.090112e+01	-5.541189e+02
8.000000e-08	-4.190976e-06	-8.493939e-09	-3.088210e+01	-5.539807e+02
9.000000e-08	-4.187946e-06	-8.472271e-09	-3.085977e+01	-5.537801e+02
1.000000e-07	-4.184819e-06	-8.448637e-09	-3.083673e+01	-5.535090e+02
1.100000e-07	-4.181622e-06	-8.463584e-09	-3.081317e+01	-5.531624e+02
1.200000e-07	-4.178007e-06	-8.428315e-09	-3.078653e+01	-5.527386e+02
1.300000e-07	-4.174035e-06	-8.390341e-09	-3.075726e+01	-5.522399e+02
1.400000e-07	-4.169928e-06	-8.420347e-09	-3.072700e+01	-5.516723e+02
1.500000e-07	-4.165491e-06	-8.442090e-09	-3.069431e+01	-5.510451e+02
1.600000e-07	-4.160554e-06	-8.410365e-09	-3.065792e+01	-5.503705e+02
1.700000e-07	-4.155239e-06	-8.398745e-09	-3.061876e+01	-5.496620e+02
1.800000e-07	-4.149694e-06	-8.387839e-09	-3.057791e+01	-5.489341e+02
1.900000e-07	-4.143876e-06	-8.390970e-09	-3.053503e+01	-5.482005e+02
2.000000e-07	-4.137606e-06	-8.383906e-09	-3.048883e+01	-5.474734e+02
2.100000e-07	-4.130934e-06	-8.360357e-09	-3.043967e+01	-5.467629e+02
2.200000e-07	-4.124018e-06	-8.356198e-09	-3.038870e+01	-5.460759e+02
2.300000e-07	-4.116822e-06	-8.346576e-09	-3.033568e+01	-5.454162e+02
2.400000e-07	-4.109272e-06	-8.342854e-09	-3.028005e+01	-5.447846e+02
2.500000e-07	-4.101447e-06	-8.337289e-09	-3.022238e+01	-5.441791e+02
2.600000e-07	-4.093458e-06	-8.338973e-09	-3.016352e+01	-5.435951e+02
2.700000e-07	-4.085246e-06	-8.315810e-09	-3.010300e+01	-5.430267e+02
2.800000e-07	-4.076718e-06	-8.305695e-09	-3.004016e+01	-5.424670e+02
2.900000e-07	-4.067902e-06	-8.292848e-09	-2.997520e+01	-5.419090e+02
3.000000e-07	-4.058822e-06	-8.280198e-09	-2.990829e+01	-5.413461e+02
3.100000e-07	-4.049468e-06	-8.253190e-09	-2.983937e+01	-5.407727e+02
3.200000e-07	-4.039890e-06	-8.243538e-09	-2.976879e+01	-5.401846e+02
3.300000e-07	-4.030108e-06	-8.239847e-09	-2.969671e+01	-5.395789e+02
3.400000e-07	-4.019990e-06	-8.233708e-09	-2.962215e+01	-5.389539e+02
3.500000e-07	-4.009413e-06	-8.223804e-09	-2.954421e+01	-5.383094e+02
3.600000e-07	-3.998450e-06	-8.218024e-09	-2.946343e+01	-5.376458e+02
3.700000e-07	-3.987218e-06	-8.214074e-09	-2.938066e+01	-5.369642e+02
3.800000e-07	-3.975786e-06	-8.194527e-09	-2.929642e+01	-5.362657e+02
3.900000e-07	-3.964093e-06	-8.175569e-09	-2.921026e+01	-5.355515e+02
4.000000e-07	-3.952075e-06	-8.153239e-09	-2.912170e+01	-5.348222e+02
4.100000e-07	-3.939776e-06	-8.143412e-09	-2.903108e+01	-5.340780e+02
4.200000e-07	-3.927266e-06	-8.130979e-09	-2.893890e+01	-5.333185e+02
4.300000e-07	-3.914557e-06	-8.122617e-09	-2.884525e+01	-5.325430e+02
4.400000e-07	-3.901616e-06	-8.105796e-09	-2.874989e+01	-5.317501e+02
4.500000e-07	-3.888384e-06	-8.099326e-09	-2.865238e+01	-5.309384e+02
4.600000e-07	-3.874805e-06	-8.082155e-09	-2.855233e+01	-5.301066e+02
4.700000e-07	-3.860851e-06	-8.064809e-09	-2.844950e+01	-5.292533e+02
4.800000e-07	-3.846589e-06	-8.044897e-09	-2.834441e+01	-5.283775e+02
4.900000e-07	-3.832101e-06	-8.034645e-09	-2.823765e+01	-5.274786e+02
5.000000e-07	-3.817362e-06	-8.019240e-09	-2.812904e+01	-5.265564e+02
5.100000e-07	-3.802346e-06	-8.003863e-09	-2.801839e+01	-5.256110e+02
5.200000e-07	-3.787039e-06	-7.985243e-09	-2.790560e+01	-5.246429e+02
5.300000e-07	-3.771431e-06	-7.968256e-09	-2.779059e+01	-5.236526e+02
5.400000e-07	-3.755584e-06	-7.954041e-09	-2.767382e+01	-5.226409e+02
5.500000e-07	-3.739562e-06	-7.943105e-09	-2.755576e+01	-5.216083e+02
5.600000e-07	-3.723347e-06	-7.932034e-09	-2.743627e+01	-5.205553e+02
5.700000e-07	-3.706784e-06	-7.915386e-09	-2.731423e+01	-5.194823e+02
5.800000e-07	-3.689832e-06	-7.897807e-09	-2.718931e+01	-5.183892e+02
5.900000e-07	-3.672602e-06	-7.876412e-09	-2.706235e+01	-5.172760e+02
6.000000e-07	-3.655099e-06	-7.854494e-09	-2.693337e+01	-5.161425e+02
6.100000e-07	-3.637321e-06	-7.829140e-09	-2.680238e+01	-5.149883e+02
6.200000e-07	-3.619288e-06	-7.810849e-09	-2.666949e+01	-5.138130e+02
6.300000e-07	-3.600977e-06	-7.797594e-09	-2.653456e+01	-5.126164e+02
6.400000e-07	-3.582396e-06	-7.786819e-09	-2.639764e+01	-5.113981e+02
6.500000e-07	-3.563582e-06	-7.766988e-09	-2.625901e+01	-5.101578e+02
6.600000e-07	-3.544522e-06	-7.745697e-09	-2.611857e+01	-5.088955e+02
6.700000e-07	-3.525262e-06	-7.720077e-09	-2.597664e+01	-5.076107e+02
6.800000e-07	-3.505746e-06	-7.692008e-09	-2.583283e+01	-5.063034e+02
6.900000e-07	-3.485883e-06	-7.661375e-09	-2.568647e+01	-5.049729e+02
7.000000e-07	-3.465658e-06	-7.636081e-09	-2.553744e+01	-5.036189e+02
7.100000e-07	-3.445092e-06	-7.617036e-09	-2.538589e+01	-5.022408e+02
7.200000e-07	-3.424243e-06	-7.601585e-09	-2.523226e+01	-5.008380e+02
7.300000e-07	-3.403152e-06	-7.582307e-09	-2.507685e+01	-4.994098e+02
7.400000e-07	-3.381830e-06	-7.560324e-09	-2.491973e+01	-4.979560e+02
7.500000e-07	-3.360263e-06	-7.537400e-09	-2.476081e+01	-4.964765e+02
7.600000e-07	-3.338438e-06	-7.512651e-09	-2.459999e+01	-4.949716e+02
7.700000e-07	-3.316373e-06	-7.486048e-09	-2.443740e+01	-4.934420e+02
7.800000e-07	-3.294120e-06	-7.457156e-09	-2.427342e+01	-4.918890e+02
7.900000e-07	-3.271672e-06	-7.429502e-09	-2.410801e+01	-4.903142e+02
8.000000e-07	-3.249015e-06	-7.401693e-09	-2.394105e+01	-4.887195e+02
8.100000e-07	-3.226116e-06	-7.374386e-09	-2.377232e+01	-4.871069e+02
8.200000e-07	-3.202917e-06	-7.347281e-09	-2.360137e+01	-4.854782e+02
8.300000e-07	-3.179410e-06	-7.324918e-09	-2.342816e+01	-4.838350e+02
8.400000e-07	-3.155650e-06	-7.305432e-09	-2.325308e+01	-4.821783e+02
8.500000e-07	-3.131686e-06	-7.284922e-09	-2.307649e+01	-4.805081e+02
8.600000e-07	-3.107508e-06	-7.257479e-09	-2.289834e+01	-4.788240e+02
8.700000e-07	-3.083096e-06	-7.226791e-09	-2.271845e+01	-4.771244e+02
8.800000e-07	-3.058494e-06	-7.193026e-09	-2.253717e+01	-4.754071e+02
8.900000e-07	-3.033704e-06	-7.156747e-09	-2.235449e+01	-4.736695e+02
9.000000e-07	-3.008675e-06	-7.121276e-09	-2.217006e+01	-4.719088e+02
9.100000e-07	-2.983421e-06	-7.093447e-09	-2.198397e+01	-4.701222e+02
9.200000e-07	-2.957985e-06	-7.073783e-09	-2.179654e+01	-4.683072e+02
9.300000e-07	-2.932404e-06	-7.054491e-09	-2.160805e+01	-4.664621e+02
9.400000e-07	-2.906661e-06	-7.028810e-09	-2.141835e+01	-4.645860e+02
9.500000e-07	-2.880707e-06	-6.997794e-09	-2.122710e+01	-4.626788e+02
9.600000e-07	-2.854483e-06	-6.964307e-09	-2.103386e+01	-4.607412e+02
9.700000e-07	-2.827944e-06	-6.927474e-09	-2.083831e+01	-4.587746e+02
9.800000e-07	-2.801164e-06	-6.888599e-09	-2.064097e+01	-4.567805e+02
9.900000e-07	-2.774220e-06	-6.853665e-09	-2.044243e+01	-4.547607e+02
1.000000e-06	-2.747110e-06	-6.825435e-09	-2.024266e+01	-4.527162e+02
1.010000e-06	-2.719855e-06	-6.799423e-09	-2.004183e+01	-4.506475e+02
1.020000e-06	-2.692463e-06	-6.771875e-09	-1.983999e+01	-4.485543e+02
1.030000e-06	-2.664875e-06	-6.743203e-09	-1.963670e+01	-4.464351e+02
1.040000e-06	-2.637074e-06	-6.714228e-09	-1.943184e+01	-4.442874e+02
1.050000e-06	-2.609073e-06	-6.679852e-09	-1.922551e+01	-4.421081e+02
1.060000e-06	-2.580863e-06	-6.640371e-09	-1.901763e+01	-4.398937e+02
1.070000e-06	-2.552460e-06	-6.600529e-09	-1.880834e+01	-4.376405e+02
1.080000e-06	-2.523886e-06	-6.564378e-09	-1.859779e+01	-4.353453e+02
1.090000e-06	-2.495169e-06	-6.530596e-09	-1.838618e+01	-4.330057e+02
1.100000e-06	-2.466311e-06	-6.496789e-09	-1.817354e+01	-4.306205e+02
1.110000e-06	-2.437344e-06	-6.461783e-09	-1.796008e+01	-4.281895e+02
1.120000e-06	-2.408211e-06	-6.428540e-09	-1.774542e+01	-4.257141e+02
1.130000e-06	-2.378849e-06	-6.395675e-09	-1.752905e+01	-4.231966e+02
1.140000e-06	-2.349221e-06	-6.359105e-09	-1.731073e+01	-4.206401e+02
1.150000e-06	-2.319313e-06	-6.317678e-09	-1.709035e+01	-4.180482e+02
1.160000e-06	-2.289202e-06	-6.275257e-09	-1.686847e+01	-4.154242e+02
1.170000e-06	-2.258895e-06	-6.235551e-09	-1.664515e+01	-4.127709e+02
1.180000e-06	-2.228407e-06	-6.195369e-09	-1.642049e+01	-4.100904e+02
1.190000e-06	-2.197801e-06	-6.153090e-09	-1.619497e+01	-4.073832e+02
1.200000e-06	-2.167079e-06	-6.111608e-09	-1.596858e+01	-4.046488e+02
1.210000e-06	-2.136177e-06	-6.072821e-09	-1.574087e+01	-4.018856e+02
1.220000e-06	-2.105116e-06	-6.034842e-09	-1.551200e+01	-3.990907e+02
1.230000e-06	-2.073913e-06	-5.994590e-09	-1.528207e+01	-3.962612e+02
1.240000e-06	-2.042539e-06	-5.953009e-09	-1.505088e+01	-3.933939e+02
1.250000e-06	-2.010949e-06	-5.911682e-09	-1.481810e+01	-3.904858e+02
1.260000e-06	-1.979169e-06	-5.867171e-09	-1.458393e+01	-3.875352e+02
1.270000e-06	-1.947222e-06	-5.817987e-09	-1.434852e+01	-3.845413e+02
1.280000e-06	-1.915060e-06	-5.764932e-09	-1.411153e+01	-3.815046e+02
1.290000e-06	-1.882742e-06	-5.714406e-09	-1.387338e+01	-3.784268e+02
1.300000e-06	-1.850294e-06	-5.667391e-09	-1.363428e+01	-3.753109e+02
1.310000e-06	-1.817731e-06	-5.622910e-09	-1.339434e+01	-3.721605e+02
1.320000e-06	-1.785075e-06	-5.579113e-09	-1.315370e+01	-3.689793e+02
1.330000e-06	-1.752307e-06	-5.534573e-09	-1.291224e+01	-3.657712e+02
1.340000e-06	-1.719407e-06	-5.488304e-09	-1.266982e+01	-3.625392e+02
1.350000e-06	-1.686378e-06	-5.437512e-09	-1.242643e+01	-3.592854e+02
1.360000e-06	-1.653245e-06	-5.384056e-09	-1.218229e+01	-3.560107e+02
1.370000e-06	-1.620013e-06	-5.330167e-09	-1.193741e+01	-3.527149e+02
1.380000e-06	-1.586674e-06	-5.277070e-09	-1.169174e+01	-3.493965e+02
1.390000e-06	-1.553238e-06	-5.224476e-09	-1.144537e+01	-3.460530e+02
1.400000e-06	-1.519736e-06	-5.173723e-09	-1.119850e+01	-3.426814e+02
1.410000e-06	-1.486176e-06	-5.122915e-09	-1.095120e+01	-3.392783e+02
1.420000e-06	-1.452546e-06	-5.071322e-09	-1.070339e+01	-3.358405e+02
1.430000e-06	-1.418850e-06	-5.017962e-09	-1.045510e+01	-3.323652e+02
1.440000e-06	-1.385073e-06	-4.963924e-09	-1.020621e+01	-3.288501e+02
1.450000e-06	-1.351167e-06	-4.909208e-09	-9.956360e+00	-3.252936e+02
1.460000e-06	-1.317170e-06	-4.852490e-09	-9.705851e+00	-3.216949e+02
1.470000e-06	-1.283103e-06	-4.794756e-09	-9.454819e+00	-3.180537e+02
1.480000e-06	-1.248916e-06	-4.736401e-09	-9.202902e+00	-3.143700e+02
1.490000e-06	-1.214646e-06	-4.679241e-09	-8.950377e+00	-3.106439e+02
1.500000e-06	-1.180319e-06	-4.621453e-09	-8.697434e+00	-3.068755e+02
1.510000e-06	-1.145905e-06	-4.559036e-09	-8.443842e+00	-3.030644e+02
1.520000e-06	-1.111401e-06	-4.495509e-09	-8.189594e+00	-2.992102e+02
1.530000e-06	-1.076844e-06	-4.435870e-09	-7.934953e+00	-2.953118e+02
1.540000e-06	-1.042227e-06	-4.378211e-09	-7.679869e+00	-2.913679e+02
1.550000e-06	-1.007527e-06	-4.317716e-09	-7.424176e+00	-2.873771e+02
1.560000e-06	-9.727442e-07	-4.252827e-09	-7.167873e+00	-2.833380e+02
1.570000e-06	-9.378787e-07	-4.186974e-09	-6.910959e+00	-2.792494e+02
1.580000e-06	-9.029848e-07	-4.122171e-09	-6.653835e+00	-2.751107e+02
1.590000e-06	-8.680725e-07	-4.058619e-09	-6.396577e+00	-2.709216e+02
1.600000e-06	-8.330725e-07	-3.992443e-09	-6.138672e+00	-2.666825e+02
1.610000e-06	-7.980094e-07	-3.922267e-09	-5.880302e+00	-2.623943e+02
1.620000e-06	-7.629241e-07	-3.853192e-09	-5.621768e+00	-2.580581e+02
1.630000e-06	-7.278202e-07	-3.787474e-09	-5.363098e+00	-2.536754e+02
1.640000e-06	-6.926608e-07	-3.721909e-09	-5.104019e+00	-2.492474e+02
1.650000e-06	-6.574311e-07	-3.654196e-09	-4.844421e+00	-2.447749e+02
1.660000e-06	-6.222020e-07	-3.582864e-09	-4.584827e+00	-2.402585e+02
1.670000e-06	-5.869862e-07	-3.509485e-09	-4.325333e+00	-2.356978e+02
1.680000e-06	-5.517456e-07	-3.432789e-09	-4.065655e+00	-2.310921e+02
1.690000e-06	-5.164429e-07	-3.356858e-09	-3.805519e+00	-2.264396e+02
1.700000e-06	-4.810961e-07	-3.287377e-09	-3.545059e+00	-2.217385e+02
1.710000e-06	-4.457355e-07	-3.219686e-09	-3.284497e+00	-2.169863e+02
1.720000e-06	-4.103370e-07	-3.148285e-09	-3.023655e+00	-2.121807e+02
1.730000e-06	-3.748757e-07	-3.070997e-09	-2.762351e+00	-2.073194e+02
1.740000e-06	-3.393914e-07	-2.991946e-09	-2.500878e+00	-2.024006e+02
1.750000e-06	-3.038918e-07	-2.912120e-09	-2.239292e+00	-1.974232e+02
1.760000e-06	-2.683571e-07	-2.830823e-09	-1.977446e+00	-1.923863e+02
1.770000e-06	-2.328212e-07	-2.748696e-09	-1.715592e+00	-1.872900e+02
1.780000e-06	-1.973039e-07	-2.670109e-09	-1.453876e+00	-1.821349e+02
1.790000e-06	-1.617694e-07	-2.596319e-09	-1.192032e+00	-1.769217e+02
1.800000e-06	-1.261838e-07	-2.522106e-09	-9.298119e-01	-1.716515e+02
1.810000e-06	-9.057691e-08	-2.441212e-09	-6.674352e-01	-1.663252e+02
1.820000e-06	-5.497781e-08	-2.355527e-09	-4.051157e-01	-1.609436e+02
1.830000e-06	-1.936171e-08	-2.270279e-09	-1.426709e-01	-1.555069e+02
1.840000e-06	1.625364e-08	-2.184398e-09	1.197684e-01	-1.500147e+02
1.850000e-06	5.187817e-08	-2.096805e-09	3.822754e-01	-1.444659e+02
1.860000e-06	8.748969e-08	-2.010777e-09	6.446864e-01	-1.388589e+02
1.870000e-06	1.230512e-07	-1.927626e-09	9.067290e-01	-1.331914e+02
1.880000e-06	1.586246e-07	-1.844774e-09	1.168859e+00	-1.274605e+02
1.890000e-06	1.941870e-07	-1.761558e-09	1.430908e+00	-1.216632e+02
1.900000e-06	2.296937e-07	-1.674885e-09	1.692547e+00	-1.157964e+02
1.910000e-06	2.651710e-07	-1.582988e-09	1.953969e+00	-1.098570e+02
1.920000e-06	3.006329e-07	-1.486603e-09	2.215278e+00	-1.038421e+02
1.930000e-06	3.360591e-07	-1.390098e-09	2.476323e+00	-9.774942e+01
1.940000e-06	3.714641e-07	-1.294107e-09	2.737212e+00	-9.157730e+01
1.950000e-06	4.068461e-07	-1.198439e-09	2.997932e+00	-8.532464e+01
1.960000e-06	4.421844e-07	-1.104782e-09	3.258330e+00	-7.899115e+01
1.970000e-06	4.774954e-07	-1.013358e-09	3.518526e+00	-7.257728e+01
1.980000e-06	5.127896e-07	-9.205715e-10	3.778600e+00	-6.608416e+01
1.990000e-06	5.480540e-07	-8.228141e-10	4.038453e+00	-5.951357e+01
2.000000e-06	5.832883e-07	-7.219221e-10	4.298084e+00	-5.286779e+01
2.010000e-06	6.184966e-07	-6.174937e-10	4.557523e+00	-4.614950e+01
2.020000e-06	6.536865e-07	-5.115488e-10	4.816828e+00	-3.936158e+01
2.030000e-06	6.888740e-07	-4.058152e-10	5.076115e+00	-3.250703e+01
2.040000e-06	7.240250e-07	-3.009553e-10	5.335133e+00	-2.558881e+01
2.050000e-06	7.591080e-07	-1.965452e-10	5.593648e+00	-1.860974e+01
2.060000e-06	7.941516e-07	-9.258578e-11	5.851875e+00	-1.157242e+01
2.070000e-06	8.291516e-07	1.269730e-11	6.109780e+00	-4.479266e+00
2.080000e-06	8.640980e-07	1.200636e-10	6.367290e+00	2.667529e+00
2.090000e-06	8.990136e-07	2.273276e-10	6.624573e+00	9.865879e+00
2.100000e-06	9.338707e-07	3.339443e-10	6.881425e+00	1.711372e+01
2.110000e-06	9.686587e-07	4.421424e-10	7.137767e+00	2.440886e+01
2.120000e-06	1.003392e-06	5.521343e-10	7.393708e+00	3.174888e+01
2.130000e-06	1.038038e-06	6.616538e-10	7.649003e+00	3.913099e+01
2.140000e-06	1.072622e-06	7.718705e-10	7.903840e+00	4.655196e+01
2.150000e-06	1.107140e-06	8.849072e-10	8.158196e+00	5.400807e+01
2.160000e-06	1.141579e-06	1.001387e-09	8.411970e+00	6.149513e+01
2.170000e-06	1.175948e-06	1.116425e-09	8.665219e+00	6.900855e+01
2.180000e-06	1.210226e-06	1.228889e-09	8.917805e+00	7.654343e+01
2.190000e-06	1.244410e-06	1.340665e-09	9.169703e+00	8.409473e+01
2.200000e-06	1.278500e-06	1.452135e-09	9.420898e+00	9.165736e+01
2.210000e-06	1.312512e-06	1.563318e-09	9.671522e+00	9.922633e+01
2.220000e-06	1.346416e-06	1.675801e-09	9.921350e+00	1.067969e+02
2.230000e-06	1.380200e-06	1.790686e-09	1.017030e+01	1.143643e+02
2.240000e-06	1.413923e-06	1.907458e-09	1.041879e+01	1.219244e+02
2.250000e-06	1.447601e-06	2.025558e-09	1.066696e+01	1.294726e+02
2.260000e-06	1.481217e-06	2.140832e-09	1.091467e+01	1.370046e+02
2.270000e-06	1.514753e-06	2.252823e-09	1.116178e+01	1.445159e+02
2.280000e-06	1.548207e-06	2.362901e-09	1.140829e+01	1.520015e+02
2.290000e-06	1.581592e-06	2.474664e-09	1.165430e+01	1.594560e+02
2.300000e-06	1.614850e-06	2.585899e-09	1.189937e+01	1.668736e+02
2.310000e-06	1.647943e-06	2.694199e-09	1.214322e+01	1.742480e+02
2.320000e-06	1.680913e-06	2.799595e-09	1.238617e+01	1.815725e+02
2.330000e-06	1.713743e-06	2.905700e-09	1.262808e+01	1.888405e+02
2.340000e-06	1.746417e-06	3.014901e-09	1.286885e+01	1.960456e+02
2.350000e-06	1.779005e-06	3.121888e-09	1.310898e+01	2.031816e+02
2.360000e-06	1.811479e-06	3.225323e-09	1.334827e+01	2.102434e+02
2.370000e-06	1.843826e-06	3.329201e-09	1.358663e+01	2.172267e+02
2.380000e-06	1.876076e-06	3.434785e-09	1.382426e+01	2.241284e+02
2.390000e-06	1.908230e-06	3.536614e-09	1.406120e+01	2.309465e+02
2.400000e-06	1.940223e-06	3.634950e-09	1.429694e+01	2.376800e+02
2.410000e-06	1.972015e-06	3.731179e-09	1.453121e+01	2.443288e+02
2.420000e-06	2.003622e-06	3.828641e-09	1.476411e+01	2.508930e+02
2.430000e-06	2.035047e-06	3.925081e-09	1.499568e+01	2.573732e+02
2.440000e-06	2.066342e-06	4.019087e-09	1.522628e+01	2.637692e+02
2.450000e-06	2.097500e-06	4.112382e-09	1.545587e+01	2.700806e+02
2.460000e-06	2.128512e-06	4.205928e-09	1.568439e+01	2.763060e+02
2.470000e-06	2.159360e-06	4.298170e-09	1.591170e+01	2.824433e+02
2.480000e-06	2.190016e-06	4.385896e-09	1.613760e+01	2.884895e+02
2.490000e-06	2.220520e-06	4.471773e-09	1.636237e+01	2.944412e+02
2.500000e-06	2.250931e-06	4.557267e-09	1.658646e+01	3.002947e+02
2.510000e-06	2.281251e-06	4.645426e-09	1.680988e+01	3.060465e+02
2.520000e-06	2.311361e-06	4.735320e-09	1.703176e+01	3.116940e+02
2.530000e-06	2.341213e-06	4.820846e-09	1.725173e+01	3.172352e+02
2.540000e-06	2.370809e-06	4.903594e-09	1.746981e+01	3.226699e+02
2.550000e-06	2.400112e-06	4.985603e-09	1.768574e+01	3.279988e+02
2.560000e-06	2.429164e-06	5.066029e-09	1.789981e+01	3.332244e+02
2.570000e-06	2.458048e-06	5.142750e-09	1.811265e+01	3.383500e+02
2.580000e-06	2.486805e-06	5.217602e-09	1.832455e+01	3.433798e+02
2.590000e-06	2.515446e-06	5.295836e-09	1.853560e+01	3.483183e+02
2.600000e-06	2.543924e-06	5.373042e-09	1.874545e+01	3.531700e+02
2.610000e-06	2.572190e-06	5.446916e-09	1.895373e+01	3.579385e+02
2.620000e-06	2.600308e-06	5.518110e-09	1.916092e+01	3.626269e+02
2.630000e-06	2.628280e-06	5.585476e-09	1.936704e+01	3.672369e+02
2.640000e-06	2.656052e-06	5.650641e-09	1.957168e+01	3.717691e+02
2.650000e-06	2.683629e-06	5.716435e-09	1.977489e+01	3.762234e+02
2.660000e-06	2.711008e-06	5.782038e-09	1.997664e+01	3.805986e+02
2.670000e-06	2.738246e-06	5.849143e-09	2.017735e+01	3.848936e+02
2.680000e-06	2.765370e-06	5.917463e-09	2.037722e+01	3.891070e+02
2.690000e-06	2.792338e-06	5.983154e-09	2.057594e+01	3.932381e+02
2.700000e-06	2.819089e-06	6.043828e-09	2.077306e+01	3.972872e+02
2.710000e-06	2.845508e-06	6.098928e-09	2.096773e+01	4.012552e+02
2.720000e-06	2.871586e-06	6.152465e-09	2.115989e+01	4.051441e+02
2.730000e-06	2.897433e-06	6.207062e-09	2.135035e+01	4.089570e+02
2.740000e-06	2.923120e-06	6.263071e-09	2.153963e+01	4.126973e+02
2.750000e-06	2.948647e-06	6.318405e-09	2.172773e+01	4.163688e+02
2.760000e-06	2.974027e-06	6.373863e-09	2.191475e+01	4.199750e+02
2.770000e-06	2.999223e-06	6.428309e-09	2.210041e+01	4.235190e+02
2.780000e-06	3.024181e-06	6.480949e-09	2.228432e+01	4.270031e+02
2.790000e-06	3.048955e-06	6.530524e-09	2.246687e+01	4.304286e+02
2.800000e-06	3.073540e-06	6.577316e-09	2.264803e+01	4.337958e+02
2.810000e-06	3.097905e-06	6.624326e-09	2.282757e+01	4.371040e+02
2.820000e-06	3.122063e-06	6.671761e-09	2.300559e+01	4.403520e+02
2.830000e-06	3.146066e-06	6.721486e-09	2.318246e+01	4.435382e+02
2.840000e-06	3.169916e-06	6.771808e-09	2.335820e+01	4.466609e+02
2.850000e-06	3.193508e-06	6.819545e-09	2.353204e+01	4.497189e+02
2.860000e-06	3.216719e-06	6.860876e-09	2.370308e+01	4.527114e+02
2.870000e-06	3.239574e-06	6.898246e-09	2.387149e+01	4.556383e+02
2.880000e-06	3.262168e-06	6.936286e-09	2.403798e+01	4.585002e+02
2.890000e-06	3.284578e-06	6.975703e-09	2.420311e+01	4.612982e+02
2.900000e-06	3.306845e-06	7.014613e-09	2.436719e+01	4.640342e+02
