# Temperatura_=_20.0
# Concentracion g/m^3_=_10000.0
# C_Vs_to_Am_M_A/Vsm_=_65563218390.804596
# pendiente_HvsI_1/m_=_3716.3
# ordenada_HvsI_A/m_=_1297.0
# frecuencia_Hz_=_135301.77153101788

Tiempo_(s)	Campo_(V.s)	Magnetizacion_(V.s)	Campo_(kA/m)	Magnetizacion_(A/m)
0.000000e+00	-4.199707e-06	-8.577008e-09	-3.095384e+01	-5.598550e+02
1.000000e-08	-4.199748e-06	-8.574903e-09	-3.095414e+01	-5.599310e+02
2.000000e-08	-4.199611e-06	-8.572831e-09	-3.095314e+01	-5.599793e+02
3.000000e-08	-4.199154e-06	-8.573489e-09	-3.094977e+01	-5.599977e+02
4.000000e-08	-4.198287e-06	-8.575686e-09	-3.094338e+01	-5.599818e+02
5.000000e-08	-4.197059e-06	-8.574696e-09	-3.093432e+01	-5.599249e+02
6.000000e-08	-4.195533e-06	-8.570643e-09	-3.092308e+01	-5.598179e+02
7.000000e-08	-4.193748e-06	-8.565796e-09	-3.090992e+01	-5.596496e+02
8.000000e-08	-4.191583e-06	-8.580257e-09	-3.089397e+01	-5.594073e+02
9.000000e-08	-4.188886e-06	-8.578829e-09	-3.087409e+01	-5.590781e+02
1.000000e-07	-4.185818e-06	-8.530493e-09	-3.085147e+01	-5.586501e+02
1.100000e-07	-4.182773e-06	-8.507737e-09	-3.082903e+01	-5.581141e+02
1.200000e-07	-4.179538e-06	-8.548867e-09	-3.080519e+01	-5.574651e+02
1.300000e-07	-4.175749e-06	-8.453264e-09	-3.077726e+01	-5.567033e+02
1.400000e-07	-4.171763e-06	-8.444262e-09	-3.074788e+01	-5.558355e+02
1.500000e-07	-4.167666e-06	-8.528058e-09	-3.071769e+01	-5.548747e+02
1.600000e-07	-4.163138e-06	-8.487309e-09	-3.068431e+01	-5.538402e+02
1.700000e-07	-4.158127e-06	-8.443623e-09	-3.064738e+01	-5.527565e+02
1.800000e-07	-4.152797e-06	-8.444817e-09	-3.060810e+01	-5.516512e+02
1.900000e-07	-4.147236e-06	-8.454822e-09	-3.056711e+01	-5.505534e+02
2.000000e-07	-4.141307e-06	-8.456855e-09	-3.052341e+01	-5.494908e+02
2.100000e-07	-4.134888e-06	-8.415400e-09	-3.047610e+01	-5.484877e+02
2.200000e-07	-4.128161e-06	-8.409621e-09	-3.042651e+01	-5.475626e+02
2.300000e-07	-4.121196e-06	-8.432046e-09	-3.037518e+01	-5.467269e+02
2.400000e-07	-4.113893e-06	-8.416265e-09	-3.032135e+01	-5.459839e+02
2.500000e-07	-4.106261e-06	-8.377178e-09	-3.026510e+01	-5.453288e+02
2.600000e-07	-4.098387e-06	-8.405415e-09	-3.020707e+01	-5.447494e+02
2.700000e-07	-4.090335e-06	-8.386377e-09	-3.014772e+01	-5.442279e+02
2.800000e-07	-4.082050e-06	-8.331894e-09	-3.008665e+01	-5.437426e+02
2.900000e-07	-4.073497e-06	-8.357859e-09	-3.002362e+01	-5.432707e+02
3.000000e-07	-4.064702e-06	-8.380224e-09	-2.995879e+01	-5.427903e+02
3.100000e-07	-4.055606e-06	-8.343325e-09	-2.989175e+01	-5.422830e+02
3.200000e-07	-4.046188e-06	-8.306152e-09	-2.982233e+01	-5.417350e+02
3.300000e-07	-4.036548e-06	-8.333011e-09	-2.975128e+01	-5.411384e+02
3.400000e-07	-4.026688e-06	-8.311299e-09	-2.967861e+01	-5.404913e+02
3.500000e-07	-4.016466e-06	-8.272891e-09	-2.960327e+01	-5.397974e+02
3.600000e-07	-4.005792e-06	-8.254011e-09	-2.952460e+01	-5.390647e+02
3.700000e-07	-3.994758e-06	-8.272040e-09	-2.944327e+01	-5.383038e+02
3.800000e-07	-3.983475e-06	-8.251182e-09	-2.936011e+01	-5.375264e+02
3.900000e-07	-3.971944e-06	-8.249350e-09	-2.927512e+01	-5.367432e+02
4.000000e-07	-3.960156e-06	-8.232669e-09	-2.918824e+01	-5.359627e+02
4.100000e-07	-3.948126e-06	-8.205384e-09	-2.909957e+01	-5.351900e+02
4.200000e-07	-3.935835e-06	-8.183972e-09	-2.900898e+01	-5.344261e+02
4.300000e-07	-3.923303e-06	-8.190430e-09	-2.891662e+01	-5.336686e+02
4.400000e-07	-3.910559e-06	-8.155895e-09	-2.882269e+01	-5.329117e+02
4.500000e-07	-3.897601e-06	-8.124220e-09	-2.872718e+01	-5.321474e+02
4.600000e-07	-3.884330e-06	-8.126910e-09	-2.862936e+01	-5.313671e+02
4.700000e-07	-3.870656e-06	-8.125311e-09	-2.852858e+01	-5.305624e+02
4.800000e-07	-3.856594e-06	-8.108088e-09	-2.842494e+01	-5.297264e+02
4.900000e-07	-3.842244e-06	-8.094078e-09	-2.831917e+01	-5.288546e+02
5.000000e-07	-3.827663e-06	-8.085924e-09	-2.821170e+01	-5.279452e+02
5.100000e-07	-3.812854e-06	-8.068930e-09	-2.810255e+01	-5.269990e+02
5.200000e-07	-3.797779e-06	-8.057557e-09	-2.799144e+01	-5.260190e+02
5.300000e-07	-3.782393e-06	-8.023175e-09	-2.787804e+01	-5.250100e+02
5.400000e-07	-3.766749e-06	-7.997191e-09	-2.776274e+01	-5.239770e+02
5.500000e-07	-3.750894e-06	-7.989284e-09	-2.764588e+01	-5.229248e+02
5.600000e-07	-3.734847e-06	-7.989335e-09	-2.752760e+01	-5.218574e+02
5.700000e-07	-3.718581e-06	-7.965036e-09	-2.740772e+01	-5.207767e+02
5.800000e-07	-3.701946e-06	-7.949486e-09	-2.728511e+01	-5.196830e+02
5.900000e-07	-3.684873e-06	-7.934966e-09	-2.715927e+01	-5.185745e+02
6.000000e-07	-3.667494e-06	-7.918926e-09	-2.703118e+01	-5.174483e+02
6.100000e-07	-3.649926e-06	-7.892617e-09	-2.690170e+01	-5.163004e+02
6.200000e-07	-3.632149e-06	-7.864875e-09	-2.677067e+01	-5.151266e+02
6.300000e-07	-3.614070e-06	-7.842408e-09	-2.663742e+01	-5.139233e+02
6.400000e-07	-3.595697e-06	-7.834518e-09	-2.650200e+01	-5.126878e+02
6.500000e-07	-3.577070e-06	-7.821123e-09	-2.636471e+01	-5.114189e+02
6.600000e-07	-3.558180e-06	-7.793754e-09	-2.622548e+01	-5.101168e+02
6.700000e-07	-3.539089e-06	-7.768174e-09	-2.608478e+01	-5.087830e+02
6.800000e-07	-3.519807e-06	-7.746847e-09	-2.594266e+01	-5.074200e+02
6.900000e-07	-3.500199e-06	-7.725091e-09	-2.579814e+01	-5.060309e+02
7.000000e-07	-3.480205e-06	-7.697332e-09	-2.565077e+01	-5.046187e+02
7.100000e-07	-3.459864e-06	-7.670166e-09	-2.550084e+01	-5.031862e+02
7.200000e-07	-3.439260e-06	-7.647384e-09	-2.534899e+01	-5.017350e+02
7.300000e-07	-3.418385e-06	-7.631147e-09	-2.519513e+01	-5.002662e+02
7.400000e-07	-3.397220e-06	-7.607485e-09	-2.503913e+01	-4.987798e+02
7.500000e-07	-3.375833e-06	-7.580151e-09	-2.488150e+01	-4.972749e+02
7.600000e-07	-3.354216e-06	-7.555790e-09	-2.472217e+01	-4.957504e+02
7.700000e-07	-3.332353e-06	-7.535560e-09	-2.456103e+01	-4.942051e+02
7.800000e-07	-3.310252e-06	-7.510839e-09	-2.439813e+01	-4.926381e+02
7.900000e-07	-3.287932e-06	-7.483673e-09	-2.423363e+01	-4.910490e+02
8.000000e-07	-3.265430e-06	-7.456639e-09	-2.406778e+01	-4.894380e+02
8.100000e-07	-3.242745e-06	-7.433862e-09	-2.390058e+01	-4.878062e+02
8.200000e-07	-3.219707e-06	-7.408337e-09	-2.373078e+01	-4.861547e+02
8.300000e-07	-3.196291e-06	-7.380254e-09	-2.355819e+01	-4.844853e+02
8.400000e-07	-3.172649e-06	-7.354172e-09	-2.338393e+01	-4.827992e+02
8.500000e-07	-3.148812e-06	-7.331363e-09	-2.320824e+01	-4.810971e+02
8.600000e-07	-3.124793e-06	-7.307353e-09	-2.303121e+01	-4.793794e+02
8.700000e-07	-3.100595e-06	-7.277344e-09	-2.285287e+01	-4.776450e+02
8.800000e-07	-3.076210e-06	-7.245597e-09	-2.267314e+01	-4.758924e+02
8.900000e-07	-3.051598e-06	-7.215845e-09	-2.249173e+01	-4.741192e+02
9.000000e-07	-3.026744e-06	-7.187328e-09	-2.230855e+01	-4.723229e+02
9.100000e-07	-3.001674e-06	-7.156421e-09	-2.212377e+01	-4.705009e+02
9.200000e-07	-2.976401e-06	-7.127747e-09	-2.193750e+01	-4.686510e+02
9.300000e-07	-2.950938e-06	-7.104155e-09	-2.174982e+01	-4.667718e+02
9.400000e-07	-2.925321e-06	-7.080601e-09	-2.156101e+01	-4.648628e+02
9.500000e-07	-2.899553e-06	-7.050389e-09	-2.137109e+01	-4.629245e+02
9.600000e-07	-2.873562e-06	-7.015792e-09	-2.117952e+01	-4.609583e+02
9.700000e-07	-2.847289e-06	-6.980644e-09	-2.098588e+01	-4.589660e+02
9.800000e-07	-2.820763e-06	-6.945373e-09	-2.079037e+01	-4.569497e+02
9.900000e-07	-2.794007e-06	-6.911412e-09	-2.059316e+01	-4.549112e+02
1.000000e-06	-2.767035e-06	-6.879728e-09	-2.039437e+01	-4.528513e+02
1.010000e-06	-2.739885e-06	-6.850438e-09	-2.019426e+01	-4.507702e+02
1.020000e-06	-2.712597e-06	-6.820141e-09	-1.999313e+01	-4.486667e+02
1.030000e-06	-2.685153e-06	-6.786564e-09	-1.979086e+01	-4.465384e+02
1.040000e-06	-2.657514e-06	-6.750987e-09	-1.958715e+01	-4.443822e+02
1.050000e-06	-2.629680e-06	-6.716321e-09	-1.938199e+01	-4.421943e+02
1.060000e-06	-2.601636e-06	-6.679668e-09	-1.917530e+01	-4.399708e+02
1.070000e-06	-2.573373e-06	-6.640600e-09	-1.896699e+01	-4.377083e+02
1.080000e-06	-2.544927e-06	-6.605067e-09	-1.875733e+01	-4.354043e+02
1.090000e-06	-2.516294e-06	-6.573031e-09	-1.854629e+01	-4.330572e+02
1.100000e-06	-2.487526e-06	-6.538963e-09	-1.833425e+01	-4.306673e+02
1.110000e-06	-2.458704e-06	-6.501777e-09	-1.812182e+01	-4.282358e+02
1.120000e-06	-2.429775e-06	-6.464459e-09	-1.790860e+01	-4.257653e+02
1.130000e-06	-2.400619e-06	-6.427488e-09	-1.769371e+01	-4.232590e+02
1.140000e-06	-2.371179e-06	-6.389932e-09	-1.747672e+01	-4.207204e+02
1.150000e-06	-2.341438e-06	-6.348872e-09	-1.725751e+01	-4.181527e+02
1.160000e-06	-2.311425e-06	-6.305809e-09	-1.703630e+01	-4.155583e+02
1.170000e-06	-2.281227e-06	-6.265186e-09	-1.681373e+01	-4.129386e+02
1.180000e-06	-2.250864e-06	-6.226499e-09	-1.658994e+01	-4.102937e+02
1.190000e-06	-2.220354e-06	-6.184051e-09	-1.636507e+01	-4.076224e+02
1.200000e-06	-2.189718e-06	-6.140415e-09	-1.613926e+01	-4.049224e+02
1.210000e-06	-2.158937e-06	-6.098470e-09	-1.591239e+01	-4.021907e+02
1.220000e-06	-2.128021e-06	-6.058523e-09	-1.568453e+01	-3.994239e+02
1.230000e-06	-2.096941e-06	-6.018284e-09	-1.545546e+01	-3.966188e+02
1.240000e-06	-2.065649e-06	-5.973438e-09	-1.522482e+01	-3.937729e+02
1.250000e-06	-2.034175e-06	-5.930637e-09	-1.499284e+01	-3.908843e+02
1.260000e-06	-2.002544e-06	-5.890860e-09	-1.475970e+01	-3.879527e+02
1.270000e-06	-1.970738e-06	-5.845731e-09	-1.452528e+01	-3.849787e+02
1.280000e-06	-1.938761e-06	-5.793765e-09	-1.428959e+01	-3.819639e+02
1.290000e-06	-1.906594e-06	-5.742231e-09	-1.405251e+01	-3.789108e+02
1.300000e-06	-1.874229e-06	-5.696176e-09	-1.381396e+01	-3.758222e+02
1.310000e-06	-1.841744e-06	-5.651124e-09	-1.357453e+01	-3.727011e+02
1.320000e-06	-1.809169e-06	-5.606087e-09	-1.333443e+01	-3.695498e+02
1.330000e-06	-1.776509e-06	-5.559108e-09	-1.309372e+01	-3.663704e+02
1.340000e-06	-1.743738e-06	-5.511446e-09	-1.285218e+01	-3.631638e+02
1.350000e-06	-1.710839e-06	-5.461789e-09	-1.260970e+01	-3.599300e+02
1.360000e-06	-1.677839e-06	-5.409789e-09	-1.236647e+01	-3.566686e+02
1.370000e-06	-1.644691e-06	-5.356384e-09	-1.212216e+01	-3.533781e+02
1.380000e-06	-1.611407e-06	-5.304901e-09	-1.187684e+01	-3.500567e+02
1.390000e-06	-1.578025e-06	-5.256887e-09	-1.163079e+01	-3.467028e+02
1.400000e-06	-1.544552e-06	-5.208366e-09	-1.138409e+01	-3.433146e+02
1.410000e-06	-1.511012e-06	-5.160106e-09	-1.113688e+01	-3.398906e+02
1.420000e-06	-1.477410e-06	-5.109480e-09	-1.088922e+01	-3.364300e+02
1.430000e-06	-1.443752e-06	-5.056104e-09	-1.064114e+01	-3.329322e+02
1.440000e-06	-1.410024e-06	-4.999561e-09	-1.039255e+01	-3.293972e+02
1.450000e-06	-1.376220e-06	-4.941126e-09	-1.014340e+01	-3.258250e+02
1.460000e-06	-1.342311e-06	-4.882265e-09	-9.893472e+00	-3.222158e+02
1.470000e-06	-1.308287e-06	-4.823744e-09	-9.642696e+00	-3.185696e+02
1.480000e-06	-1.274217e-06	-4.766099e-09	-9.391585e+00	-3.148861e+02
1.490000e-06	-1.240082e-06	-4.710181e-09	-9.139995e+00	-3.111645e+02
1.500000e-06	-1.205839e-06	-4.656609e-09	-8.887611e+00	-3.074036e+02
1.510000e-06	-1.171505e-06	-4.604010e-09	-8.634549e+00	-3.036016e+02
1.520000e-06	-1.137108e-06	-4.546017e-09	-8.381026e+00	-2.997565e+02
1.530000e-06	-1.102656e-06	-4.483790e-09	-8.127102e+00	-2.958661e+02
1.540000e-06	-1.068135e-06	-4.419565e-09	-7.872664e+00	-2.919281e+02
1.550000e-06	-1.033530e-06	-4.354798e-09	-7.617611e+00	-2.879405e+02
1.560000e-06	-9.988212e-07	-4.288306e-09	-7.361789e+00	-2.839017e+02
1.570000e-06	-9.639779e-07	-4.221852e-09	-7.104977e+00	-2.798106e+02
1.580000e-06	-9.290690e-07	-4.158656e-09	-6.847682e+00	-2.756670e+02
1.590000e-06	-8.941408e-07	-4.098573e-09	-6.590244e+00	-2.714711e+02
1.600000e-06	-8.591380e-07	-4.041183e-09	-6.332257e+00	-2.672239e+02
1.610000e-06	-8.240791e-07	-3.977425e-09	-6.073856e+00	-2.629270e+02
1.620000e-06	-7.889813e-07	-3.905840e-09	-5.815168e+00	-2.585822e+02
1.630000e-06	-7.538369e-07	-3.831903e-09	-5.556137e+00	-2.541918e+02
1.640000e-06	-7.186659e-07	-3.757885e-09	-5.296910e+00	-2.497578e+02
1.650000e-06	-6.834913e-07	-3.684773e-09	-5.037657e+00	-2.452821e+02
1.660000e-06	-6.482874e-07	-3.612332e-09	-4.778187e+00	-2.407662e+02
1.670000e-06	-6.130413e-07	-3.540146e-09	-4.518407e+00	-2.362108e+02
1.680000e-06	-5.777838e-07	-3.470217e-09	-4.258542e+00	-2.316160e+02
1.690000e-06	-5.425195e-07	-3.399504e-09	-3.998627e+00	-2.269810e+02
1.700000e-06	-5.072248e-07	-3.327894e-09	-3.738488e+00	-2.223041e+02
1.710000e-06	-4.718960e-07	-3.256605e-09	-3.478099e+00	-2.175829e+02
1.720000e-06	-4.365437e-07	-3.184419e-09	-3.217535e+00	-2.128143e+02
1.730000e-06	-4.011976e-07	-3.106782e-09	-2.957018e+00	-2.079950e+02
1.740000e-06	-3.658448e-07	-3.023268e-09	-2.696451e+00	-2.031212e+02
1.750000e-06	-3.304407e-07	-2.940092e-09	-2.435506e+00	-1.981894e+02
1.760000e-06	-2.950076e-07	-2.860633e-09	-2.174347e+00	-1.931966e+02
1.770000e-06	-2.595607e-07	-2.783465e-09	-1.913086e+00	-1.881401e+02
1.780000e-06	-2.240796e-07	-2.704674e-09	-1.651573e+00	-1.830183e+02
1.790000e-06	-1.885615e-07	-2.626196e-09	-1.389788e+00	-1.778303e+02
1.800000e-06	-1.530319e-07	-2.548894e-09	-1.127918e+00	-1.725764e+02
1.810000e-06	-1.174931e-07	-2.469116e-09	-8.659800e-01	-1.672575e+02
1.820000e-06	-8.194663e-08	-2.384948e-09	-6.039857e-01	-1.618751e+02
1.830000e-06	-4.637841e-08	-2.298210e-09	-3.418310e-01	-1.564311e+02
1.840000e-06	-1.079170e-08	-2.212864e-09	-7.953995e-02	-1.509273e+02
1.850000e-06	2.479517e-08	-2.127170e-09	1.827523e-01	-1.453650e+02
1.860000e-06	6.040193e-08	-2.039410e-09	4.451910e-01	-1.397450e+02
1.870000e-06	9.599664e-08	-1.951748e-09	7.075410e-01	-1.340670e+02
1.880000e-06	1.315713e-07	-1.863609e-09	9.697436e-01	-1.283296e+02
1.890000e-06	1.671111e-07	-1.777255e-09	1.231689e+00	-1.225306e+02
1.900000e-06	2.025918e-07	-1.690285e-09	1.493198e+00	-1.166667e+02
1.910000e-06	2.380210e-07	-1.598998e-09	1.754328e+00	-1.107341e+02
1.920000e-06	2.734559e-07	-1.503953e-09	2.015500e+00	-1.047288e+02
1.930000e-06	3.089238e-07	-1.409380e-09	2.276916e+00	-9.864687e+01
1.940000e-06	3.443132e-07	-1.314161e-09	2.537752e+00	-9.248531e+01
1.950000e-06	3.796545e-07	-1.213952e-09	2.798235e+00	-8.624190e+01
1.960000e-06	4.150249e-07	-1.111815e-09	3.058932e+00	-7.991569e+01
1.970000e-06	4.503618e-07	-1.014322e-09	3.319381e+00	-7.350705e+01
1.980000e-06	4.856631e-07	-9.235692e-10	3.579569e+00	-6.701761e+01
1.990000e-06	5.209517e-07	-8.305381e-10	3.839663e+00	-6.045003e+01
2.000000e-06	5.562124e-07	-7.326077e-10	4.099551e+00	-5.380769e+01
2.010000e-06	5.914472e-07	-6.346214e-10	4.359248e+00	-4.709431e+01
2.020000e-06	6.266699e-07	-5.361530e-10	4.618856e+00	-4.031355e+01
2.030000e-06	6.618776e-07	-4.329192e-10	4.878353e+00	-3.346867e+01
2.040000e-06	6.970608e-07	-3.242293e-10	5.137670e+00	-2.656231e+01
2.050000e-06	7.322119e-07	-2.151354e-10	5.396751e+00	-1.959634e+01
2.060000e-06	7.673171e-07	-1.076410e-10	5.655493e+00	-1.257194e+01
2.070000e-06	8.023829e-07	2.737031e-13	5.913944e+00	-5.489793e+00
2.080000e-06	8.373893e-07	1.097003e-10	6.171958e+00	1.649675e+00
2.090000e-06	8.723397e-07	2.190079e-10	6.429559e+00	8.845916e+00
2.100000e-06	9.072585e-07	3.230698e-10	6.686928e+00	1.609793e+01
2.110000e-06	9.421184e-07	4.251112e-10	6.943862e+00	2.340398e+01
2.120000e-06	9.768564e-07	5.329431e-10	7.199898e+00	3.076143e+01
2.130000e-06	1.011518e-06	6.452417e-10	7.455372e+00	3.816667e+01
2.140000e-06	1.046139e-06	7.585992e-10	7.710542e+00	4.561522e+01
2.150000e-06	1.080693e-06	8.718226e-10	7.965226e+00	5.310196e+01
2.160000e-06	1.115176e-06	9.863274e-10	8.219378e+00	6.062144e+01
2.170000e-06	1.149563e-06	1.102006e-09	8.472826e+00	6.816817e+01
2.180000e-06	1.183881e-06	1.213236e-09	8.725767e+00	7.573697e+01
2.190000e-06	1.218130e-06	1.320152e-09	8.978200e+00	8.332316e+01
2.200000e-06	1.252267e-06	1.429451e-09	9.229807e+00	9.092269e+01
2.210000e-06	1.286292e-06	1.542983e-09	9.480589e+00	9.853210e+01
2.220000e-06	1.320232e-06	1.658998e-09	9.730737e+00	1.061483e+02
2.230000e-06	1.354083e-06	1.776346e-09	9.980236e+00	1.137683e+02
2.240000e-06	1.387833e-06	1.893443e-09	1.022899e+01	1.213888e+02
2.250000e-06	1.421504e-06	2.012868e-09	1.047717e+01	1.290059e+02
2.260000e-06	1.455126e-06	2.133087e-09	1.072497e+01	1.366149e+02
2.270000e-06	1.488683e-06	2.247005e-09	1.097230e+01	1.442097e+02
2.280000e-06	1.522168e-06	2.355409e-09	1.121911e+01	1.517833e+02
2.290000e-06	1.555599e-06	2.465120e-09	1.146550e+01	1.593275e+02
2.300000e-06	1.588935e-06	2.578783e-09	1.171121e+01	1.668337e+02
2.310000e-06	1.622116e-06	2.692237e-09	1.195577e+01	1.742927e+02
2.320000e-06	1.655145e-06	2.802749e-09	1.219921e+01	1.816959e+02
2.330000e-06	1.688068e-06	2.912841e-09	1.244187e+01	1.890353e+02
2.340000e-06	1.720884e-06	3.024104e-09	1.268374e+01	1.963041e+02
2.350000e-06	1.753538e-06	3.133932e-09	1.292441e+01	2.034971e+02
2.360000e-06	1.786056e-06	3.241158e-09	1.316408e+01	2.106107e+02
2.370000e-06	1.818484e-06	3.346221e-09	1.340310e+01	2.176428e+02
2.380000e-06	1.850864e-06	3.451434e-09	1.364175e+01	2.245927e+02
2.390000e-06	1.883137e-06	3.556251e-09	1.387962e+01	2.314605e+02
2.400000e-06	1.915247e-06	3.657650e-09	1.411628e+01	2.382469e+02
2.410000e-06	1.947230e-06	3.757517e-09	1.435201e+01	2.449524e+02
2.420000e-06	1.979035e-06	3.857533e-09	1.458643e+01	2.515773e+02
2.430000e-06	2.010605e-06	3.957062e-09	1.481912e+01	2.581209e+02
2.440000e-06	2.041993e-06	4.055342e-09	1.505046e+01	2.645817e+02
2.450000e-06	2.073274e-06	4.150396e-09	1.528102e+01	2.709574e+02
2.460000e-06	2.104392e-06	4.242705e-09	1.551037e+01	2.772450e+02
2.470000e-06	2.135331e-06	4.333974e-09	1.573841e+01	2.834411e+02
2.480000e-06	2.166121e-06	4.424017e-09	1.596535e+01	2.895427e+02
2.490000e-06	2.196733e-06	4.512919e-09	1.619097e+01	2.955470e+02
2.500000e-06	2.227215e-06	4.601278e-09	1.641563e+01	3.014522e+02
2.510000e-06	2.257587e-06	4.690106e-09	1.663949e+01	3.072575e+02
2.520000e-06	2.287799e-06	4.780644e-09	1.686217e+01	3.129634e+02
2.530000e-06	2.317851e-06	4.869778e-09	1.708367e+01	3.185712e+02
2.540000e-06	2.347681e-06	4.954161e-09	1.730353e+01	3.240833e+02
2.550000e-06	2.377172e-06	5.037239e-09	1.752089e+01	3.295025e+02
2.560000e-06	2.406381e-06	5.119015e-09	1.773618e+01	3.348317e+02
2.570000e-06	2.435398e-06	5.200004e-09	1.795004e+01	3.400735e+02
2.580000e-06	2.464258e-06	5.280719e-09	1.816276e+01	3.452301e+02
2.590000e-06	2.493003e-06	5.358513e-09	1.837462e+01	3.503026e+02
2.600000e-06	2.521570e-06	5.435005e-09	1.858517e+01	3.552914e+02
2.610000e-06	2.549976e-06	5.508688e-09	1.879454e+01	3.601962e+02
2.620000e-06	2.578210e-06	5.581274e-09	1.900264e+01	3.650161e+02
2.630000e-06	2.606240e-06	5.653897e-09	1.920923e+01	3.697495e+02
2.640000e-06	2.634123e-06	5.721580e-09	1.941474e+01	3.743953e+02
2.650000e-06	2.661848e-06	5.785589e-09	1.961909e+01	3.789524e+02
2.660000e-06	2.689380e-06	5.851512e-09	1.982201e+01	3.834203e+02
2.670000e-06	2.716728e-06	5.921010e-09	2.002358e+01	3.877990e+02
2.680000e-06	2.743943e-06	5.990279e-09	2.022417e+01	3.920896e+02
2.690000e-06	2.771024e-06	6.057123e-09	2.042376e+01	3.962934e+02
2.700000e-06	2.797896e-06	6.121946e-09	2.062182e+01	4.004125e+02
2.710000e-06	2.824488e-06	6.183159e-09	2.081782e+01	4.044492e+02
2.720000e-06	2.850791e-06	6.240600e-09	2.101169e+01	4.084058e+02
2.730000e-06	2.876832e-06	6.293999e-09	2.120362e+01	4.122845e+02
2.740000e-06	2.902638e-06	6.344880e-09	2.139382e+01	4.160874e+02
2.750000e-06	2.928273e-06	6.398848e-09	2.158277e+01	4.198162e+02
2.760000e-06	2.953766e-06	6.456029e-09	2.177067e+01	4.234723e+02
2.770000e-06	2.979104e-06	6.512983e-09	2.195742e+01	4.270568e+02
2.780000e-06	3.004230e-06	6.566109e-09	2.214261e+01	4.305710e+02
2.790000e-06	3.029112e-06	6.615698e-09	2.232600e+01	4.340159e+02
2.800000e-06	3.053817e-06	6.660532e-09	2.250809e+01	4.373930e+02
2.810000e-06	3.078335e-06	6.701294e-09	2.268880e+01	4.407036e+02
2.820000e-06	3.102628e-06	6.745277e-09	2.286785e+01	4.439494e+02
2.830000e-06	3.126733e-06	6.794620e-09	2.304552e+01	4.471321e+02
2.840000e-06	3.150701e-06	6.845392e-09	2.322217e+01	4.502533e+02
2.850000e-06	3.174518e-06	6.895430e-09	2.339771e+01	4.533145e+02
2.860000e-06	3.198011e-06	6.940902e-09	2.357086e+01	4.563167e+02
2.870000e-06	3.221121e-06	6.980488e-09	2.374120e+01	4.592604e+02
2.880000e-06	3.243936e-06	7.018048e-09	2.390936e+01	4.621459e+02
2.890000e-06	3.266494e-06	7.056046e-09	2.407562e+01	4.649727e+02
2.900000e-06	3.288876e-06	7.093166e-09	2.424058e+01	4.677403e+02
