# Temperatura_=_20.0
# Concentracion g/m^3_=_10000.0
# C_Vs_to_Am_M_A/Vsm_=_65563218390.804596
# pendiente_HvsI_1/m_=_3716.3
# ordenada_HvsI_A/m_=_1297.0
# frecuencia_Hz_=_135301.76546215836

Tiempo_(s)	Campo_(V.s)	Magnetizacion_(V.s)	Campo_(kA/m)	Magnetizacion_(A/m)
0.000000e+00	-4.209009e-06	-8.572968e-09	-3.095246e+01	-5.600773e+02
1.000000e-08	-4.208942e-06	-8.568632e-09	-3.095197e+01	-5.601154e+02
2.000000e-08	-4.208668e-06	-8.568087e-09	-3.094995e+01	-5.601379e+02
3.000000e-08	-4.208028e-06	-8.570423e-09	-3.094524e+01	-5.601449e+02
4.000000e-08	-4.206974e-06	-8.572035e-09	-3.093750e+01	-5.601339e+02
5.000000e-08	-4.205574e-06	-8.569904e-09	-3.092720e+01	-5.600989e+02
6.000000e-08	-4.203905e-06	-8.559177e-09	-3.091493e+01	-5.600307e+02
7.000000e-08	-4.201951e-06	-8.527859e-09	-3.090056e+01	-5.599170e+02
8.000000e-08	-4.199562e-06	-8.567418e-09	-3.088299e+01	-5.597434e+02
9.000000e-08	-4.196650e-06	-8.608413e-09	-3.086158e+01	-5.594947e+02
1.000000e-07	-4.193417e-06	-8.536845e-09	-3.083780e+01	-5.591564e+02
1.100000e-07	-4.190292e-06	-8.483782e-09	-3.081482e+01	-5.587166e+02
1.200000e-07	-4.186929e-06	-8.593695e-09	-3.079009e+01	-5.581676e+02
1.300000e-07	-4.182956e-06	-8.502215e-09	-3.076087e+01	-5.575073e+02
1.400000e-07	-4.178858e-06	-8.404587e-09	-3.073073e+01	-5.567401e+02
1.500000e-07	-4.174582e-06	-8.515490e-09	-3.069929e+01	-5.558775e+02
1.600000e-07	-4.169790e-06	-8.515149e-09	-3.066405e+01	-5.549372e+02
1.700000e-07	-4.164548e-06	-8.480173e-09	-3.062550e+01	-5.539426e+02
1.800000e-07	-4.159012e-06	-8.448686e-09	-3.058479e+01	-5.529206e+02
1.900000e-07	-4.153285e-06	-8.446660e-09	-3.054267e+01	-5.518998e+02
2.000000e-07	-4.147168e-06	-8.484740e-09	-3.049769e+01	-5.509077e+02
2.100000e-07	-4.140540e-06	-8.449168e-09	-3.044895e+01	-5.499686e+02
2.200000e-07	-4.133639e-06	-8.404508e-09	-3.039820e+01	-5.491014e+02
2.300000e-07	-4.126541e-06	-8.404850e-09	-3.034600e+01	-5.483177e+02
2.400000e-07	-4.119079e-06	-8.436533e-09	-3.029113e+01	-5.476215e+02
2.500000e-07	-4.111281e-06	-8.385535e-09	-3.023378e+01	-5.470085e+02
2.600000e-07	-4.103326e-06	-8.407329e-09	-3.017529e+01	-5.464671e+02
2.700000e-07	-4.095205e-06	-8.422876e-09	-3.011556e+01	-5.459798e+02
2.800000e-07	-4.086769e-06	-8.363765e-09	-3.005352e+01	-5.455254e+02
2.900000e-07	-4.078031e-06	-8.327777e-09	-2.998927e+01	-5.450809e+02
3.000000e-07	-4.069065e-06	-8.370957e-09	-2.992333e+01	-5.446242e+02
3.100000e-07	-4.059800e-06	-8.381452e-09	-2.985520e+01	-5.441363e+02
3.200000e-07	-4.050220e-06	-8.313923e-09	-2.978475e+01	-5.436025e+02
3.300000e-07	-4.040445e-06	-8.306777e-09	-2.971286e+01	-5.430142e+02
3.400000e-07	-4.030444e-06	-8.324711e-09	-2.963932e+01	-5.423686e+02
3.500000e-07	-4.019961e-06	-8.309563e-09	-2.956223e+01	-5.416686e+02
3.600000e-07	-4.009001e-06	-8.255013e-09	-2.948163e+01	-5.409219e+02
3.700000e-07	-3.997794e-06	-8.274457e-09	-2.939922e+01	-5.401391e+02
3.800000e-07	-3.986404e-06	-8.260559e-09	-2.931545e+01	-5.393326e+02
3.900000e-07	-3.974750e-06	-8.254379e-09	-2.922975e+01	-5.385140e+02
4.000000e-07	-3.962804e-06	-8.240455e-09	-2.914190e+01	-5.376933e+02
4.100000e-07	-3.950588e-06	-8.224549e-09	-2.905207e+01	-5.368773e+02
4.200000e-07	-3.938118e-06	-8.174421e-09	-2.896037e+01	-5.360692e+02
4.300000e-07	-3.925455e-06	-8.188485e-09	-2.886725e+01	-5.352681e+02
4.400000e-07	-3.912603e-06	-8.183562e-09	-2.877273e+01	-5.344701e+02
4.500000e-07	-3.899501e-06	-8.151606e-09	-2.867638e+01	-5.336683e+02
4.600000e-07	-3.885995e-06	-8.130971e-09	-2.857706e+01	-5.328549e+02
4.700000e-07	-3.872036e-06	-8.138454e-09	-2.847441e+01	-5.320217e+02
4.800000e-07	-3.857752e-06	-8.127829e-09	-2.836937e+01	-5.311616e+02
4.900000e-07	-3.843250e-06	-8.107600e-09	-2.826272e+01	-5.302695e+02
5.000000e-07	-3.828505e-06	-8.089515e-09	-2.815429e+01	-5.293429e+02
5.100000e-07	-3.813463e-06	-8.063533e-09	-2.804367e+01	-5.283817e+02
5.200000e-07	-3.798148e-06	-8.056640e-09	-2.793104e+01	-5.273885e+02
5.300000e-07	-3.782550e-06	-8.038964e-09	-2.781634e+01	-5.263676e+02
5.400000e-07	-3.766671e-06	-8.013426e-09	-2.769957e+01	-5.253240e+02
5.500000e-07	-3.750624e-06	-7.988869e-09	-2.758156e+01	-5.242630e+02
5.600000e-07	-3.734414e-06	-7.994273e-09	-2.746235e+01	-5.231889e+02
5.700000e-07	-3.717931e-06	-7.984229e-09	-2.734114e+01	-5.221044e+02
5.800000e-07	-3.701050e-06	-7.965542e-09	-2.721700e+01	-5.210102e+02
5.900000e-07	-3.683805e-06	-7.933378e-09	-2.709018e+01	-5.199052e+02
6.000000e-07	-3.666319e-06	-7.916604e-09	-2.696159e+01	-5.187861e+02
6.100000e-07	-3.648607e-06	-7.903510e-09	-2.683134e+01	-5.176486e+02
6.200000e-07	-3.630623e-06	-7.884085e-09	-2.669909e+01	-5.164876e+02
6.300000e-07	-3.612373e-06	-7.848835e-09	-2.656488e+01	-5.152983e+02
6.400000e-07	-3.593901e-06	-7.831129e-09	-2.642904e+01	-5.140766e+02
6.500000e-07	-3.575172e-06	-7.824431e-09	-2.629131e+01	-5.128200e+02
6.600000e-07	-3.556178e-06	-7.807247e-09	-2.615164e+01	-5.115276e+02
6.700000e-07	-3.536965e-06	-7.774901e-09	-2.601034e+01	-5.102000e+02
6.800000e-07	-3.517519e-06	-7.743336e-09	-2.586734e+01	-5.088398e+02
6.900000e-07	-3.497670e-06	-7.722446e-09	-2.572137e+01	-5.074502e+02
7.000000e-07	-3.477389e-06	-7.705670e-09	-2.557223e+01	-5.060352e+02
7.100000e-07	-3.456799e-06	-7.681473e-09	-2.542081e+01	-5.045987e+02
7.200000e-07	-3.435977e-06	-7.650617e-09	-2.526769e+01	-5.031438e+02
7.300000e-07	-3.414912e-06	-7.630335e-09	-2.511278e+01	-5.016724e+02
7.400000e-07	-3.393552e-06	-7.611788e-09	-2.495570e+01	-5.001855e+02
7.500000e-07	-3.371953e-06	-7.586865e-09	-2.479687e+01	-4.986824e+02
7.600000e-07	-3.350138e-06	-7.555042e-09	-2.463644e+01	-4.971614e+02
7.700000e-07	-3.328081e-06	-7.530557e-09	-2.447424e+01	-4.956202e+02
7.800000e-07	-3.305824e-06	-7.511387e-09	-2.431057e+01	-4.940562e+02
7.900000e-07	-3.283390e-06	-7.488425e-09	-2.414559e+01	-4.924669e+02
8.000000e-07	-3.260748e-06	-7.454982e-09	-2.397909e+01	-4.908506e+02
8.100000e-07	-3.237839e-06	-7.423625e-09	-2.381061e+01	-4.892062e+02
8.200000e-07	-3.214574e-06	-7.400723e-09	-2.363952e+01	-4.875341e+02
8.300000e-07	-3.190999e-06	-7.378957e-09	-2.346616e+01	-4.858352e+02
8.400000e-07	-3.167201e-06	-7.349379e-09	-2.329115e+01	-4.841114e+02
8.500000e-07	-3.143228e-06	-7.318136e-09	-2.311486e+01	-4.823649e+02
8.600000e-07	-3.119109e-06	-7.292652e-09	-2.293749e+01	-4.805981e+02
8.700000e-07	-3.094804e-06	-7.270014e-09	-2.275875e+01	-4.788126e+02
8.800000e-07	-3.070265e-06	-7.239273e-09	-2.257830e+01	-4.770097e+02
8.900000e-07	-3.045468e-06	-7.201206e-09	-2.239594e+01	-4.751898e+02
9.000000e-07	-3.020455e-06	-7.168078e-09	-2.221200e+01	-4.733522e+02
9.100000e-07	-2.995231e-06	-7.143514e-09	-2.202650e+01	-4.714957e+02
9.200000e-07	-2.969810e-06	-7.118048e-09	-2.183957e+01	-4.696185e+02
9.300000e-07	-2.944242e-06	-7.085583e-09	-2.165154e+01	-4.677188e+02
9.400000e-07	-2.918509e-06	-7.050878e-09	-2.146230e+01	-4.657945e+02
9.500000e-07	-2.892574e-06	-7.021897e-09	-2.127158e+01	-4.638445e+02
9.600000e-07	-2.866415e-06	-6.993717e-09	-2.107921e+01	-4.618679e+02
9.700000e-07	-2.839991e-06	-6.959624e-09	-2.088489e+01	-4.598645e+02
9.800000e-07	-2.813300e-06	-6.921308e-09	-2.068861e+01	-4.578346e+02
9.900000e-07	-2.786381e-06	-6.888561e-09	-2.049065e+01	-4.557790e+02
1.000000e-06	-2.759276e-06	-6.861748e-09	-2.029133e+01	-4.536982e+02
1.010000e-06	-2.732034e-06	-6.830893e-09	-2.009100e+01	-4.515925e+02
1.020000e-06	-2.704621e-06	-6.793146e-09	-1.988940e+01	-4.494615e+02
1.030000e-06	-2.676997e-06	-6.759118e-09	-1.968626e+01	-4.473043e+02
1.040000e-06	-2.649174e-06	-6.731600e-09	-1.948165e+01	-4.451187e+02
1.050000e-06	-2.621165e-06	-6.700308e-09	-1.927568e+01	-4.429022e+02
1.060000e-06	-2.592934e-06	-6.659925e-09	-1.906807e+01	-4.406514e+02
1.070000e-06	-2.564505e-06	-6.619177e-09	-1.885901e+01	-4.383631e+02
1.080000e-06	-2.535926e-06	-6.587085e-09	-1.864884e+01	-4.360344e+02
1.090000e-06	-2.507211e-06	-6.556989e-09	-1.843768e+01	-4.336633e+02
1.100000e-06	-2.478380e-06	-6.519655e-09	-1.822565e+01	-4.312486e+02
1.110000e-06	-2.449381e-06	-6.477169e-09	-1.801240e+01	-4.287909e+02
1.120000e-06	-2.420194e-06	-6.439639e-09	-1.779777e+01	-4.262918e+02
1.130000e-06	-2.390786e-06	-6.406107e-09	-1.758150e+01	-4.237545e+02
1.140000e-06	-2.361117e-06	-6.368848e-09	-1.736332e+01	-4.211828e+02
1.150000e-06	-2.331148e-06	-6.324131e-09	-1.714293e+01	-4.185809e+02
1.160000e-06	-2.300937e-06	-6.280967e-09	-1.692077e+01	-4.159530e+02
1.170000e-06	-2.270599e-06	-6.243933e-09	-1.669766e+01	-4.133024e+02
1.180000e-06	-2.240126e-06	-6.208554e-09	-1.647357e+01	-4.106312e+02
1.190000e-06	-2.209475e-06	-6.166088e-09	-1.624817e+01	-4.079402e+02
1.200000e-06	-2.178660e-06	-6.120378e-09	-1.602156e+01	-4.052282e+02
1.210000e-06	-2.147720e-06	-6.078409e-09	-1.579403e+01	-4.024930e+02
1.220000e-06	-2.116633e-06	-6.039485e-09	-1.556542e+01	-3.997308e+02
1.230000e-06	-2.085367e-06	-6.000972e-09	-1.533550e+01	-3.969376e+02
1.240000e-06	-2.053935e-06	-5.958186e-09	-1.510435e+01	-3.941089e+02
1.250000e-06	-2.022331e-06	-5.918233e-09	-1.487194e+01	-3.912412e+02
1.260000e-06	-1.990489e-06	-5.880518e-09	-1.463778e+01	-3.883317e+02
1.270000e-06	-1.958401e-06	-5.837100e-09	-1.440180e+01	-3.853793e+02
1.280000e-06	-1.926173e-06	-5.786987e-09	-1.416481e+01	-3.823843e+02
1.290000e-06	-1.893835e-06	-5.736122e-09	-1.392700e+01	-3.793485e+02
1.300000e-06	-1.861342e-06	-5.690613e-09	-1.368805e+01	-3.762749e+02
1.310000e-06	-1.828738e-06	-5.645385e-09	-1.344828e+01	-3.731674e+02
1.320000e-06	-1.796057e-06	-5.598365e-09	-1.320795e+01	-3.700297e+02
1.330000e-06	-1.763286e-06	-5.550520e-09	-1.296695e+01	-3.668652e+02
1.340000e-06	-1.730350e-06	-5.506100e-09	-1.272475e+01	-3.636763e+02
1.350000e-06	-1.697245e-06	-5.461363e-09	-1.248130e+01	-3.604638e+02
1.360000e-06	-1.664018e-06	-5.412396e-09	-1.223696e+01	-3.572272e+02
1.370000e-06	-1.630685e-06	-5.359383e-09	-1.199183e+01	-3.539642e+02
1.380000e-06	-1.597274e-06	-5.307161e-09	-1.174613e+01	-3.506713e+02
1.390000e-06	-1.563814e-06	-5.257701e-09	-1.150007e+01	-3.473444e+02
1.400000e-06	-1.530316e-06	-5.207632e-09	-1.125373e+01	-3.439790e+02
1.410000e-06	-1.496746e-06	-5.153405e-09	-1.100686e+01	-3.405710e+02
1.420000e-06	-1.463085e-06	-5.096383e-09	-1.075932e+01	-3.371173e+02
1.430000e-06	-1.429337e-06	-5.041802e-09	-1.051114e+01	-3.336161e+02
1.440000e-06	-1.395503e-06	-4.988386e-09	-1.026234e+01	-3.300671e+02
1.450000e-06	-1.361583e-06	-4.933043e-09	-1.001289e+01	-3.264713e+02
1.460000e-06	-1.327583e-06	-4.875425e-09	-9.762860e+00	-3.228312e+02
1.470000e-06	-1.293512e-06	-4.818248e-09	-9.512304e+00	-3.191497e+02
1.480000e-06	-1.259329e-06	-4.762583e-09	-9.260929e+00	-3.154300e+02
1.490000e-06	-1.225059e-06	-4.708710e-09	-9.008908e+00	-3.116749e+02
1.500000e-06	-1.190711e-06	-4.651738e-09	-8.756325e+00	-3.078861e+02
1.510000e-06	-1.156264e-06	-4.589983e-09	-8.503006e+00	-3.040638e+02
1.520000e-06	-1.121728e-06	-4.526067e-09	-8.249028e+00	-3.002067e+02
1.530000e-06	-1.087101e-06	-4.467631e-09	-7.994385e+00	-2.963120e+02
1.540000e-06	-1.052389e-06	-4.408004e-09	-7.739121e+00	-2.923755e+02
1.550000e-06	-1.017610e-06	-4.344840e-09	-7.483362e+00	-2.883923e+02
1.560000e-06	-9.827501e-07	-4.280673e-09	-7.227006e+00	-2.843573e+02
1.570000e-06	-9.477991e-07	-4.216713e-09	-6.969981e+00	-2.802658e+02
1.580000e-06	-9.128197e-07	-4.153955e-09	-6.712748e+00	-2.761145e+02
1.590000e-06	-8.778211e-07	-4.090966e-09	-6.455373e+00	-2.719012e+02
1.600000e-06	-8.427572e-07	-4.025744e-09	-6.197518e+00	-2.676260e+02
1.610000e-06	-8.076512e-07	-3.956245e-09	-5.939354e+00	-2.632906e+02
1.620000e-06	-7.725205e-07	-3.884768e-09	-5.681007e+00	-2.588983e+02
1.630000e-06	-7.373576e-07	-3.814068e-09	-5.422424e+00	-2.544537e+02
1.640000e-06	-7.021795e-07	-3.747446e-09	-5.163729e+00	-2.499618e+02
1.650000e-06	-6.669784e-07	-3.680156e-09	-4.904865e+00	-2.454275e+02
1.660000e-06	-6.317535e-07	-3.611002e-09	-4.645826e+00	-2.408547e+02
1.670000e-06	-5.965157e-07	-3.538474e-09	-4.386692e+00	-2.362461e+02
1.680000e-06	-5.612675e-07	-3.464783e-09	-4.127482e+00	-2.316025e+02
1.690000e-06	-5.259744e-07	-3.391247e-09	-3.867942e+00	-2.269228e+02
1.700000e-06	-4.906434e-07	-3.319888e-09	-3.608123e+00	-2.222040e+02
1.710000e-06	-4.552753e-07	-3.248885e-09	-3.348030e+00	-2.174419e+02
1.720000e-06	-4.198352e-07	-3.175155e-09	-3.087409e+00	-2.126312e+02
1.730000e-06	-3.843612e-07	-3.096653e-09	-2.826538e+00	-2.077665e+02
1.740000e-06	-3.488640e-07	-3.016019e-09	-2.565497e+00	-2.028428e+02
1.750000e-06	-3.133337e-07	-2.936809e-09	-2.304212e+00	-1.978559e+02
1.760000e-06	-2.777651e-07	-2.857198e-09	-2.042645e+00	-1.928035e+02
1.770000e-06	-2.421794e-07	-2.777167e-09	-1.780954e+00	-1.876844e+02
1.780000e-06	-2.065780e-07	-2.696521e-09	-1.519146e+00	-1.824994e+02
1.790000e-06	-1.709425e-07	-2.619029e-09	-1.257087e+00	-1.772504e+02
1.800000e-06	-1.353143e-07	-2.541816e-09	-9.950825e-01	-1.719405e+02
1.810000e-06	-9.970043e-08	-2.461265e-09	-7.331829e-01	-1.665728e+02
1.820000e-06	-6.405109e-08	-2.376247e-09	-4.710227e-01	-1.611503e+02
1.830000e-06	-2.835814e-08	-2.290629e-09	-2.085418e-01	-1.556752e+02
1.840000e-06	7.380671e-09	-2.203465e-09	5.427642e-02	-1.501481e+02
1.850000e-06	4.313404e-08	-2.115723e-09	3.172017e-01	-1.445686e+02
1.860000e-06	7.886266e-08	-2.027978e-09	5.799449e-01	-1.389342e+02
1.870000e-06	1.145599e-07	-1.940385e-09	8.424572e-01	-1.332414e+02
1.880000e-06	1.502217e-07	-1.855260e-09	1.104709e+00	-1.274858e+02
1.890000e-06	1.858535e-07	-1.770522e-09	1.366740e+00	-1.216622e+02
1.900000e-06	2.214776e-07	-1.685303e-09	1.628715e+00	-1.157660e+02
1.910000e-06	2.570624e-07	-1.594824e-09	1.890401e+00	-1.097930e+02
1.920000e-06	2.925666e-07	-1.498541e-09	2.151494e+00	-1.037403e+02
1.930000e-06	3.280504e-07	-1.399499e-09	2.412437e+00	-9.760651e+01
1.940000e-06	3.635275e-07	-1.300960e-09	2.673330e+00	-9.139169e+01
1.950000e-06	3.989731e-07	-1.203735e-09	2.933992e+00	-8.509741e+01
1.960000e-06	4.343730e-07	-1.108210e-09	3.194318e+00	-7.872640e+01
1.970000e-06	4.697583e-07	-1.015102e-09	3.454537e+00	-7.228208e+01
1.980000e-06	5.051369e-07	-9.244124e-10	3.714705e+00	-6.576808e+01
1.990000e-06	5.404756e-07	-8.313364e-10	3.974582e+00	-5.918774e+01
2.000000e-06	5.757793e-07	-7.323565e-10	4.234200e+00	-5.254365e+01
2.010000e-06	6.110520e-07	-6.296267e-10	4.493591e+00	-4.583741e+01
2.020000e-06	6.462798e-07	-5.249377e-10	4.752651e+00	-3.906948e+01
2.030000e-06	6.814719e-07	-4.181207e-10	5.011449e+00	-3.223924e+01
2.040000e-06	7.166406e-07	-3.094227e-10	5.270074e+00	-2.534533e+01
2.050000e-06	7.517800e-07	-2.015331e-10	5.528485e+00	-1.838593e+01
2.060000e-06	7.868924e-07	-9.756333e-11	5.786696e+00	-1.135935e+01
2.070000e-06	8.219724e-07	3.151138e-12	6.044670e+00	-4.264436e+00
2.080000e-06	8.570251e-07	1.068881e-10	6.302442e+00	2.898959e+00
2.090000e-06	8.920440e-07	2.127306e-10	6.559966e+00	1.012966e+01
2.100000e-06	9.270101e-07	3.183834e-10	6.817102e+00	1.742503e+01
2.110000e-06	9.618967e-07	4.279368e-10	7.073653e+00	2.478096e+01
2.120000e-06	9.967186e-07	5.435386e-10	7.329729e+00	3.219205e+01
2.130000e-06	1.031511e-06	6.599009e-10	7.585587e+00	3.965198e+01
2.140000e-06	1.066239e-06	7.747096e-10	7.840972e+00	4.715386e+01
2.150000e-06	1.100853e-06	8.869566e-10	8.095516e+00	5.469075e+01
2.160000e-06	1.135372e-06	9.986674e-10	8.349364e+00	6.225598e+01
2.170000e-06	1.169820e-06	1.110878e-09	8.602690e+00	6.984356e+01
2.180000e-06	1.204189e-06	1.222048e-09	8.855434e+00	7.744831e+01
2.190000e-06	1.238478e-06	1.334478e-09	9.107593e+00	8.506595e+01
2.200000e-06	1.272686e-06	1.449999e-09	9.359155e+00	9.269291e+01
2.210000e-06	1.306809e-06	1.568938e-09	9.610093e+00	1.003262e+02
2.220000e-06	1.340829e-06	1.687156e-09	9.860267e+00	1.079629e+02
2.230000e-06	1.374725e-06	1.802713e-09	1.010954e+01	1.156000e+02
2.240000e-06	1.408518e-06	1.918430e-09	1.035804e+01	1.232338e+02
2.250000e-06	1.442229e-06	2.034302e-09	1.060595e+01	1.308599e+02
2.260000e-06	1.475890e-06	2.147375e-09	1.085349e+01	1.384730e+02
2.270000e-06	1.509495e-06	2.257976e-09	1.110062e+01	1.460664e+02
2.280000e-06	1.543024e-06	2.368295e-09	1.134718e+01	1.536331e+02
2.290000e-06	1.576486e-06	2.480988e-09	1.159326e+01	1.611650e+02
2.300000e-06	1.609875e-06	2.596936e-09	1.183879e+01	1.686539e+02
2.310000e-06	1.643126e-06	2.712331e-09	1.208332e+01	1.760919e+02
2.320000e-06	1.676202e-06	2.824094e-09	1.232656e+01	1.834716e+02
2.330000e-06	1.709106e-06	2.931899e-09	1.256852e+01	1.907864e+02
2.340000e-06	1.741887e-06	3.039072e-09	1.280959e+01	1.980311e+02
2.350000e-06	1.774562e-06	3.146554e-09	1.304988e+01	2.052017e+02
2.360000e-06	1.807096e-06	3.252345e-09	1.328913e+01	2.122954e+02
2.370000e-06	1.839549e-06	3.357889e-09	1.352778e+01	2.193109e+02
2.380000e-06	1.871923e-06	3.464116e-09	1.376586e+01	2.262475e+02
2.390000e-06	1.904174e-06	3.568821e-09	1.400303e+01	2.331051e+02
2.400000e-06	1.936295e-06	3.669034e-09	1.423924e+01	2.398841e+02
2.410000e-06	1.968258e-06	3.768076e-09	1.447429e+01	2.465843e+02
2.420000e-06	2.000006e-06	3.867318e-09	1.470776e+01	2.532054e+02
2.430000e-06	2.031521e-06	3.965396e-09	1.493952e+01	2.597462e+02
2.440000e-06	2.062871e-06	4.060974e-09	1.517006e+01	2.662048e+02
2.450000e-06	2.094104e-06	4.154358e-09	1.539975e+01	2.725787e+02
2.460000e-06	2.125215e-06	4.248604e-09	1.562853e+01	2.788646e+02
2.470000e-06	2.156183e-06	4.341834e-09	1.585627e+01	2.850590e+02
2.480000e-06	2.186968e-06	4.431841e-09	1.608266e+01	2.911583e+02
2.490000e-06	2.217572e-06	4.519793e-09	1.630771e+01	2.971592e+02
2.500000e-06	2.248024e-06	4.608327e-09	1.653165e+01	3.030589e+02
2.510000e-06	2.278359e-06	4.699732e-09	1.675474e+01	3.088556e+02
2.520000e-06	2.308594e-06	4.791723e-09	1.697707e+01	3.145484e+02
2.530000e-06	2.338638e-06	4.879851e-09	1.719802e+01	3.201374e+02
2.540000e-06	2.368435e-06	4.964637e-09	1.741714e+01	3.256238e+02
2.550000e-06	2.397908e-06	5.046426e-09	1.763388e+01	3.310096e+02
2.560000e-06	2.427056e-06	5.124192e-09	1.784823e+01	3.362976e+02
2.570000e-06	2.456013e-06	5.199629e-09	1.806117e+01	3.414910e+02
2.580000e-06	2.484839e-06	5.274623e-09	1.827315e+01	3.465929e+02
2.590000e-06	2.513557e-06	5.352491e-09	1.848435e+01	3.516065e+02
2.600000e-06	2.542150e-06	5.431902e-09	1.869461e+01	3.565343e+02
2.610000e-06	2.570562e-06	5.507746e-09	1.890356e+01	3.613782e+02
2.620000e-06	2.598778e-06	5.579254e-09	1.911105e+01	3.661394e+02
2.630000e-06	2.626806e-06	5.647936e-09	1.931716e+01	3.708184e+02
2.640000e-06	2.654659e-06	5.715080e-09	1.952199e+01	3.754148e+02
2.650000e-06	2.682308e-06	5.782511e-09	1.972532e+01	3.799278e+02
2.660000e-06	2.709727e-06	5.849226e-09	1.992695e+01	3.843563e+02
2.670000e-06	2.736995e-06	5.915788e-09	2.012748e+01	3.886992e+02
2.680000e-06	2.764166e-06	5.985167e-09	2.032729e+01	3.929554e+02
2.690000e-06	2.791223e-06	6.054795e-09	2.052626e+01	3.971244e+02
2.700000e-06	2.818112e-06	6.117881e-09	2.072400e+01	4.012065e+02
2.710000e-06	2.844677e-06	6.174709e-09	2.091936e+01	4.052026e+02
2.720000e-06	2.870870e-06	6.230674e-09	2.111198e+01	4.091145e+02
2.730000e-06	2.896746e-06	6.285099e-09	2.130226e+01	4.129450e+02
2.740000e-06	2.922414e-06	6.337810e-09	2.149102e+01	4.166973e+02
2.750000e-06	2.947994e-06	6.393152e-09	2.167913e+01	4.203751e+02
2.760000e-06	2.973443e-06	6.451965e-09	2.186628e+01	4.239824e+02
2.770000e-06	2.998714e-06	6.509624e-09	2.205212e+01	4.275229e+02
2.780000e-06	3.023767e-06	6.561575e-09	2.223636e+01	4.309998e+02
2.790000e-06	3.048606e-06	6.606127e-09	2.241902e+01	4.344158e+02
2.800000e-06	3.073280e-06	6.648455e-09	2.260047e+01	4.377728e+02
2.810000e-06	3.097762e-06	6.695418e-09	2.278050e+01	4.410714e+02
2.820000e-06	3.122038e-06	6.746552e-09	2.295903e+01	4.443118e+02
2.830000e-06	3.146132e-06	6.797613e-09	2.313621e+01	4.474932e+02
2.840000e-06	3.170058e-06	6.849008e-09	2.331216e+01	4.506143e+02
2.850000e-06	3.193776e-06	6.900361e-09	2.348658e+01	4.536736e+02
2.860000e-06	3.217176e-06	6.945713e-09	2.365866e+01	4.566699e+02
2.870000e-06	3.240194e-06	6.981137e-09	2.382793e+01	4.596021e+02
2.880000e-06	3.262925e-06	7.012828e-09	2.399509e+01	4.624701e+02
2.890000e-06	3.285454e-06	7.049131e-09	2.416077e+01	4.652745e+02
2.900000e-06	3.307806e-06	7.089995e-09	2.432514e+01	4.680168e+02
