# Temperatura_=_20.0
# Concentracion g/m^3_=_10000.0
# C_Vs_to_Am_M_A/Vsm_=_65563218390.804596
# pendiente_HvsI_1/m_=_3716.3
# ordenada_HvsI_A/m_=_1297.0
# frecuencia_Hz_=_135294.31315369392

Tiempo_(s)	Campo_(V.s)	Magnetizacion_(V.s)	Campo_(kA/m)	Magnetizacion_(A/m)
0.000000e+00	-4.196078e-06	-8.548384e-09	-3.095898e+01	-5.574336e+02
1.000000e-08	-4.196113e-06	-8.545360e-09	-3.095924e+01	-5.574788e+02
2.000000e-08	-4.195964e-06	-8.541213e-09	-3.095814e+01	-5.575124e+02
3.000000e-08	-4.195550e-06	-8.539404e-09	-3.095508e+01	-5.575378e+02
4.000000e-08	-4.194728e-06	-8.540695e-09	-3.094902e+01	-5.575556e+02
5.000000e-08	-4.193496e-06	-8.540952e-09	-3.093993e+01	-5.575625e+02
6.000000e-08	-4.191969e-06	-8.534737e-09	-3.092866e+01	-5.575513e+02
7.000000e-08	-4.190210e-06	-8.517601e-09	-3.091569e+01	-5.575105e+02
8.000000e-08	-4.188129e-06	-8.521671e-09	-3.090033e+01	-5.574249e+02
9.000000e-08	-4.185487e-06	-8.562044e-09	-3.088084e+01	-5.572775e+02
1.000000e-07	-4.182361e-06	-8.537449e-09	-3.085778e+01	-5.570502e+02
1.100000e-07	-4.179205e-06	-8.489503e-09	-3.083449e+01	-5.567268e+02
1.200000e-07	-4.176019e-06	-8.525516e-09	-3.081098e+01	-5.562942e+02
1.300000e-07	-4.172369e-06	-8.501449e-09	-3.078405e+01	-5.557450e+02
1.400000e-07	-4.168376e-06	-8.412065e-09	-3.075459e+01	-5.550786e+02
1.500000e-07	-4.164289e-06	-8.458716e-09	-3.072444e+01	-5.543018e+02
1.600000e-07	-4.159833e-06	-8.511798e-09	-3.069156e+01	-5.534293e+02
1.700000e-07	-4.154844e-06	-8.457786e-09	-3.065475e+01	-5.524824e+02
1.800000e-07	-4.149476e-06	-8.430690e-09	-3.061515e+01	-5.514879e+02
1.900000e-07	-4.143876e-06	-8.430820e-09	-3.057383e+01	-5.504751e+02
2.000000e-07	-4.138016e-06	-8.450348e-09	-3.053059e+01	-5.494739e+02
2.100000e-07	-4.131696e-06	-8.435656e-09	-3.048396e+01	-5.485118e+02
2.200000e-07	-4.124965e-06	-8.400411e-09	-3.043430e+01	-5.476112e+02
2.300000e-07	-4.118039e-06	-8.406668e-09	-3.038320e+01	-5.467879e+02
2.400000e-07	-4.110840e-06	-8.412122e-09	-3.033009e+01	-5.460495e+02
2.500000e-07	-4.103249e-06	-8.390455e-09	-3.027408e+01	-5.453952e+02
2.600000e-07	-4.095371e-06	-8.377527e-09	-3.021596e+01	-5.448163e+02
2.700000e-07	-4.087315e-06	-8.397675e-09	-3.015652e+01	-5.442974e+02
2.800000e-07	-4.079038e-06	-8.359671e-09	-3.009545e+01	-5.438189e+02
2.900000e-07	-4.070475e-06	-8.326895e-09	-3.003227e+01	-5.433588e+02
3.000000e-07	-4.061663e-06	-8.339973e-09	-2.996725e+01	-5.428954e+02
3.100000e-07	-4.052564e-06	-8.355667e-09	-2.990012e+01	-5.424098e+02
3.200000e-07	-4.043155e-06	-8.326551e-09	-2.983070e+01	-5.418871e+02
3.300000e-07	-4.033546e-06	-8.306398e-09	-2.975980e+01	-5.413181e+02
3.400000e-07	-4.023740e-06	-8.300414e-09	-2.968745e+01	-5.406992e+02
3.500000e-07	-4.013597e-06	-8.284856e-09	-2.961262e+01	-5.400325e+02
3.600000e-07	-4.003003e-06	-8.259256e-09	-2.953446e+01	-5.393241e+02
3.700000e-07	-3.992024e-06	-8.244711e-09	-2.945345e+01	-5.385833e+02
3.800000e-07	-3.980793e-06	-8.243506e-09	-2.937059e+01	-5.378203e+02
3.900000e-07	-3.969342e-06	-8.234329e-09	-2.928610e+01	-5.370450e+02
4.000000e-07	-3.957611e-06	-8.228960e-09	-2.919956e+01	-5.362653e+02
4.100000e-07	-3.945574e-06	-8.207104e-09	-2.911074e+01	-5.354862e+02
4.200000e-07	-3.933259e-06	-8.186822e-09	-2.901988e+01	-5.347092e+02
4.300000e-07	-3.920721e-06	-8.173196e-09	-2.892737e+01	-5.339326e+02
4.400000e-07	-3.907977e-06	-8.169030e-09	-2.883335e+01	-5.331520e+02
4.500000e-07	-3.895031e-06	-8.145744e-09	-2.873783e+01	-5.323613e+02
4.600000e-07	-3.881830e-06	-8.130614e-09	-2.864044e+01	-5.315539e+02
4.700000e-07	-3.868227e-06	-8.115384e-09	-2.854007e+01	-5.307235e+02
4.800000e-07	-3.854181e-06	-8.107064e-09	-2.843644e+01	-5.298657e+02
4.900000e-07	-3.839824e-06	-8.095670e-09	-2.833051e+01	-5.289780e+02
5.000000e-07	-3.825263e-06	-8.083220e-09	-2.822308e+01	-5.280605e+02
5.100000e-07	-3.810485e-06	-8.060807e-09	-2.811405e+01	-5.271154e+02
5.200000e-07	-3.795455e-06	-8.046951e-09	-2.800315e+01	-5.261465e+02
5.300000e-07	-3.780142e-06	-8.032315e-09	-2.789017e+01	-5.251586e+02
5.400000e-07	-3.764520e-06	-8.006538e-09	-2.777491e+01	-5.241564e+02
5.500000e-07	-3.748627e-06	-7.983781e-09	-2.765765e+01	-5.231436e+02
5.600000e-07	-3.732573e-06	-7.971814e-09	-2.753921e+01	-5.221222e+02
5.700000e-07	-3.716354e-06	-7.964745e-09	-2.741954e+01	-5.210922e+02
5.800000e-07	-3.699839e-06	-7.949881e-09	-2.729769e+01	-5.200517e+02
5.900000e-07	-3.682923e-06	-7.929663e-09	-2.717288e+01	-5.189965e+02
6.000000e-07	-3.665615e-06	-7.905871e-09	-2.704518e+01	-5.179216e+02
6.100000e-07	-3.648031e-06	-7.891128e-09	-2.691545e+01	-5.168214e+02
6.200000e-07	-3.630242e-06	-7.873029e-09	-2.678420e+01	-5.156904e+02
6.300000e-07	-3.612212e-06	-7.848927e-09	-2.665117e+01	-5.145244e+02
6.400000e-07	-3.593920e-06	-7.825870e-09	-2.651621e+01	-5.133209e+02
6.500000e-07	-3.575362e-06	-7.812068e-09	-2.637929e+01	-5.120792e+02
6.600000e-07	-3.556514e-06	-7.792634e-09	-2.624023e+01	-5.108007e+02
6.700000e-07	-3.537441e-06	-7.767190e-09	-2.609951e+01	-5.094883e+02
6.800000e-07	-3.518192e-06	-7.737792e-09	-2.595749e+01	-5.081461e+02
6.900000e-07	-3.498677e-06	-7.712921e-09	-2.581350e+01	-5.067786e+02
7.000000e-07	-3.478815e-06	-7.694400e-09	-2.566696e+01	-5.053902e+02
7.100000e-07	-3.458569e-06	-7.675080e-09	-2.551758e+01	-5.039844e+02
7.200000e-07	-3.437981e-06	-7.647752e-09	-2.536568e+01	-5.025633e+02
7.300000e-07	-3.417131e-06	-7.622703e-09	-2.521185e+01	-5.011276e+02
7.400000e-07	-3.396018e-06	-7.604166e-09	-2.505608e+01	-4.996766e+02
7.500000e-07	-3.374647e-06	-7.583635e-09	-2.489840e+01	-4.982083e+02
7.600000e-07	-3.353023e-06	-7.557280e-09	-2.473885e+01	-4.967201e+02
7.700000e-07	-3.331163e-06	-7.530737e-09	-2.457757e+01	-4.952091e+02
7.800000e-07	-3.309070e-06	-7.509481e-09	-2.441457e+01	-4.936730e+02
7.900000e-07	-3.286757e-06	-7.488766e-09	-2.424994e+01	-4.921100e+02
8.000000e-07	-3.264291e-06	-7.462067e-09	-2.408419e+01	-4.905195e+02
8.100000e-07	-3.241665e-06	-7.433428e-09	-2.391725e+01	-4.889021e+02
8.200000e-07	-3.218773e-06	-7.408726e-09	-2.374835e+01	-4.872594e+02
8.300000e-07	-3.195541e-06	-7.385437e-09	-2.357694e+01	-4.855938e+02
8.400000e-07	-3.171965e-06	-7.361025e-09	-2.340299e+01	-4.839078e+02
8.500000e-07	-3.148114e-06	-7.334441e-09	-2.322702e+01	-4.822039e+02
8.600000e-07	-3.124101e-06	-7.309386e-09	-2.304985e+01	-4.804840e+02
8.700000e-07	-3.099944e-06	-7.284108e-09	-2.287162e+01	-4.787491e+02
8.800000e-07	-3.075592e-06	-7.255905e-09	-2.269195e+01	-4.769992e+02
8.900000e-07	-3.051031e-06	-7.222157e-09	-2.251074e+01	-4.752332e+02
9.000000e-07	-3.026261e-06	-7.188556e-09	-2.232798e+01	-4.734495e+02
9.100000e-07	-3.001235e-06	-7.158587e-09	-2.214334e+01	-4.716457e+02
9.200000e-07	-2.975965e-06	-7.132607e-09	-2.195690e+01	-4.698196e+02
9.300000e-07	-2.950522e-06	-7.108183e-09	-2.176918e+01	-4.679690e+02
9.400000e-07	-2.924935e-06	-7.082413e-09	-2.158039e+01	-4.660925e+02
9.500000e-07	-2.899186e-06	-7.054861e-09	-2.139042e+01	-4.641895e+02
9.600000e-07	-2.873253e-06	-7.025235e-09	-2.119908e+01	-4.622602e+02
9.700000e-07	-2.847075e-06	-6.990961e-09	-2.100594e+01	-4.603051e+02
9.800000e-07	-2.820579e-06	-6.952455e-09	-2.081044e+01	-4.583255e+02
9.900000e-07	-2.793797e-06	-6.914734e-09	-2.061284e+01	-4.563223e+02
1.000000e-06	-2.766807e-06	-6.882950e-09	-2.041371e+01	-4.542963e+02
1.010000e-06	-2.739656e-06	-6.854732e-09	-2.021339e+01	-4.522473e+02
1.020000e-06	-2.712353e-06	-6.824367e-09	-2.001195e+01	-4.501741e+02
1.030000e-06	-2.684901e-06	-6.793986e-09	-1.980940e+01	-4.480748e+02
1.040000e-06	-2.657292e-06	-6.767031e-09	-1.960570e+01	-4.459463e+02
1.050000e-06	-2.629514e-06	-6.739308e-09	-1.940075e+01	-4.437851e+02
1.060000e-06	-2.601551e-06	-6.704499e-09	-1.919444e+01	-4.415871e+02
1.070000e-06	-2.573363e-06	-6.664195e-09	-1.898647e+01	-4.393489e+02
1.080000e-06	-2.544936e-06	-6.624430e-09	-1.877673e+01	-4.370675e+02
1.090000e-06	-2.516363e-06	-6.585814e-09	-1.856591e+01	-4.347411e+02
1.100000e-06	-2.487670e-06	-6.546385e-09	-1.835422e+01	-4.323690e+02
1.110000e-06	-2.458827e-06	-6.508204e-09	-1.814141e+01	-4.299522e+02
1.120000e-06	-2.429875e-06	-6.474215e-09	-1.792780e+01	-4.274925e+02
1.130000e-06	-2.400773e-06	-6.443848e-09	-1.771308e+01	-4.249930e+02
1.140000e-06	-2.371422e-06	-6.411609e-09	-1.749653e+01	-4.224571e+02
1.150000e-06	-2.341784e-06	-6.372513e-09	-1.727786e+01	-4.198882e+02
1.160000e-06	-2.311855e-06	-6.327585e-09	-1.705704e+01	-4.172892e+02
1.170000e-06	-2.281695e-06	-6.282576e-09	-1.683452e+01	-4.146624e+02
1.180000e-06	-2.251371e-06	-6.239738e-09	-1.661079e+01	-4.120087e+02
1.190000e-06	-2.220897e-06	-6.195958e-09	-1.638595e+01	-4.093279e+02
1.200000e-06	-2.190270e-06	-6.152348e-09	-1.615997e+01	-4.066187e+02
1.210000e-06	-2.159508e-06	-6.111460e-09	-1.593301e+01	-4.038790e+02
1.220000e-06	-2.128599e-06	-6.072770e-09	-1.570496e+01	-4.011061e+02
1.230000e-06	-2.097538e-06	-6.035812e-09	-1.547579e+01	-3.982974e+02
1.240000e-06	-2.066345e-06	-5.996038e-09	-1.524565e+01	-3.954507e+02
1.250000e-06	-2.034981e-06	-5.952944e-09	-1.501425e+01	-3.925646e+02
1.260000e-06	-2.003432e-06	-5.908623e-09	-1.478147e+01	-3.896385e+02
1.270000e-06	-1.971712e-06	-5.860862e-09	-1.454744e+01	-3.866730e+02
1.280000e-06	-1.939785e-06	-5.809807e-09	-1.431188e+01	-3.836699e+02
1.290000e-06	-1.907656e-06	-5.759328e-09	-1.407483e+01	-3.806314e+02
1.300000e-06	-1.875335e-06	-5.710772e-09	-1.383636e+01	-3.775603e+02
1.310000e-06	-1.842879e-06	-5.663755e-09	-1.359690e+01	-3.744594e+02
1.320000e-06	-1.810375e-06	-5.619724e-09	-1.335708e+01	-3.713310e+02
1.330000e-06	-1.777786e-06	-5.576695e-09	-1.311664e+01	-3.681767e+02
1.340000e-06	-1.745064e-06	-5.531614e-09	-1.287521e+01	-3.649973e+02
1.350000e-06	-1.712222e-06	-5.482941e-09	-1.263291e+01	-3.617923e+02
1.360000e-06	-1.679252e-06	-5.431170e-09	-1.238964e+01	-3.585603e+02
1.370000e-06	-1.646125e-06	-5.379707e-09	-1.214523e+01	-3.552993e+02
1.380000e-06	-1.612863e-06	-5.327625e-09	-1.189982e+01	-3.520065e+02
1.390000e-06	-1.579500e-06	-5.273924e-09	-1.165367e+01	-3.486790e+02
1.400000e-06	-1.546066e-06	-5.220689e-09	-1.140699e+01	-3.453142e+02
1.410000e-06	-1.512558e-06	-5.171099e-09	-1.115976e+01	-3.419096e+02
1.420000e-06	-1.478977e-06	-5.121329e-09	-1.091200e+01	-3.384637e+02
1.430000e-06	-1.445348e-06	-5.067665e-09	-1.066389e+01	-3.349754e+02
1.440000e-06	-1.411674e-06	-5.012396e-09	-1.041544e+01	-3.314444e+02
1.450000e-06	-1.377925e-06	-4.956697e-09	-1.016643e+01	-3.278711e+02
1.460000e-06	-1.344061e-06	-4.900623e-09	-9.916586e+00	-3.242559e+02
1.470000e-06	-1.310082e-06	-4.842633e-09	-9.665880e+00	-3.205995e+02
1.480000e-06	-1.276014e-06	-4.783552e-09	-9.414530e+00	-3.169023e+02
1.490000e-06	-1.241880e-06	-4.727284e-09	-9.162685e+00	-3.131644e+02
1.500000e-06	-1.207692e-06	-4.672320e-09	-8.910442e+00	-3.093854e+02
1.510000e-06	-1.173414e-06	-4.613017e-09	-8.657536e+00	-3.055641e+02
1.520000e-06	-1.139036e-06	-4.549634e-09	-8.403893e+00	-3.016991e+02
1.530000e-06	-1.104592e-06	-4.489539e-09	-8.149764e+00	-2.977885e+02
1.540000e-06	-1.070102e-06	-4.433688e-09	-7.895293e+00	-2.938304e+02
1.550000e-06	-1.035529e-06	-4.373318e-09	-7.640208e+00	-2.898227e+02
1.560000e-06	-1.000871e-06	-4.307197e-09	-7.384502e+00	-2.857641e+02
1.570000e-06	-9.661433e-07	-4.239715e-09	-7.128278e+00	-2.816534e+02
1.580000e-06	-9.313062e-07	-4.174060e-09	-6.871247e+00	-2.774904e+02
1.590000e-06	-8.963869e-07	-4.108547e-09	-6.613610e+00	-2.732754e+02
1.600000e-06	-8.614059e-07	-4.044448e-09	-6.355517e+00	-2.690093e+02
1.610000e-06	-8.263576e-07	-3.980597e-09	-6.096928e+00	-2.646938e+02
1.620000e-06	-7.912545e-07	-3.913817e-09	-5.837935e+00	-2.603307e+02
1.630000e-06	-7.561186e-07	-3.845494e-09	-5.578700e+00	-2.559217e+02
1.640000e-06	-7.209637e-07	-3.775112e-09	-5.319325e+00	-2.514686e+02
1.650000e-06	-6.857877e-07	-3.705226e-09	-5.059793e+00	-2.469728e+02
1.660000e-06	-6.506064e-07	-3.635835e-09	-4.800223e+00	-2.424348e+02
1.670000e-06	-6.154060e-07	-3.565296e-09	-4.540512e+00	-2.378547e+02
1.680000e-06	-5.801521e-07	-3.493166e-09	-4.280406e+00	-2.332318e+02
1.690000e-06	-5.448736e-07	-3.418442e-09	-4.020118e+00	-2.285649e+02
1.700000e-06	-5.096046e-07	-3.343383e-09	-3.759901e+00	-2.238520e+02
1.710000e-06	-4.743175e-07	-3.270363e-09	-3.499550e+00	-2.190912e+02
1.720000e-06	-4.390142e-07	-3.197420e-09	-3.239079e+00	-2.142801e+02
1.730000e-06	-4.036986e-07	-3.120902e-09	-2.978518e+00	-2.094165e+02
1.740000e-06	-3.683413e-07	-3.041720e-09	-2.717650e+00	-2.044986e+02
1.750000e-06	-3.329595e-07	-2.962148e-09	-2.456600e+00	-1.995248e+02
1.760000e-06	-2.975715e-07	-2.881975e-09	-2.195505e+00	-1.944939e+02
1.770000e-06	-2.621600e-07	-2.800130e-09	-1.934236e+00	-1.894052e+02
1.780000e-06	-2.267225e-07	-2.716532e-09	-1.672775e+00	-1.842583e+02
1.790000e-06	-1.912444e-07	-2.635409e-09	-1.411016e+00	-1.790531e+02
1.800000e-06	-1.557544e-07	-2.557950e-09	-1.149168e+00	-1.737894e+02
1.810000e-06	-1.202681e-07	-2.480901e-09	-8.873473e-01	-1.684670e+02
1.820000e-06	-8.478488e-08	-2.400445e-09	-6.255492e-01	-1.630855e+02
1.830000e-06	-4.928572e-08	-2.315667e-09	-3.636337e-01	-1.576442e+02
1.840000e-06	-1.374159e-08	-2.229496e-09	-1.013865e-01	-1.521417e+02
1.850000e-06	2.178286e-08	-2.142168e-09	1.607156e-01	-1.465767e+02
1.860000e-06	5.728005e-08	-2.054304e-09	4.226165e-01	-1.409473e+02
1.870000e-06	9.276063e-08	-1.966485e-09	6.843949e-01	-1.352515e+02
1.880000e-06	1.282033e-07	-1.878547e-09	9.458939e-01	-1.294873e+02
1.890000e-06	1.636212e-07	-1.791733e-09	1.207210e+00	-1.236529e+02
1.900000e-06	1.990415e-07	-1.704779e-09	1.468543e+00	-1.177467e+02
1.910000e-06	2.344777e-07	-1.616231e-09	1.729994e+00	-1.117676e+02
1.920000e-06	2.698664e-07	-1.523923e-09	1.991095e+00	-1.057151e+02
1.930000e-06	3.052133e-07	-1.428563e-09	2.251886e+00	-9.958905e+01
1.940000e-06	3.405923e-07	-1.332983e-09	2.512916e+00	-9.338969e+01
1.950000e-06	3.759553e-07	-1.236514e-09	2.773826e+00	-8.711760e+01
1.960000e-06	4.112728e-07	-1.137485e-09	3.034401e+00	-8.077339e+01
1.970000e-06	4.465868e-07	-1.039948e-09	3.294951e+00	-7.435757e+01
1.980000e-06	4.819038e-07	-9.456604e-10	3.555523e+00	-6.787037e+01
1.990000e-06	5.172013e-07	-8.504011e-10	3.815950e+00	-6.131160e+01
2.000000e-06	5.524550e-07	-7.502782e-10	4.076055e+00	-5.468062e+01
2.010000e-06	5.876669e-07	-6.471743e-10	4.335850e+00	-4.797641e+01
2.020000e-06	6.228557e-07	-5.454093e-10	4.595476e+00	-4.119769e+01
2.030000e-06	6.580158e-07	-4.439112e-10	4.854890e+00	-3.434319e+01
2.040000e-06	6.931434e-07	-3.391447e-10	5.114064e+00	-2.741196e+01
2.050000e-06	7.282429e-07	-2.295172e-10	5.373031e+00	-2.040368e+01
2.060000e-06	7.633178e-07	-1.191438e-10	5.631816e+00	-1.331902e+01
2.070000e-06	7.983421e-07	-8.974295e-12	5.890228e+00	-6.159855e+00
2.080000e-06	8.333160e-07	1.019850e-10	6.148268e+00	1.070551e+00
2.090000e-06	8.682622e-07	2.133946e-10	6.406104e+00	8.367535e+00
2.100000e-06	9.031514e-07	3.217062e-10	6.663519e+00	1.572517e+01
2.110000e-06	9.379941e-07	4.253738e-10	6.920591e+00	2.313653e+01
2.120000e-06	9.727849e-07	5.294841e-10	7.177280e+00	3.059408e+01
2.130000e-06	1.007488e-06	6.398575e-10	7.433321e+00	3.809017e+01
2.140000e-06	1.042102e-06	7.552948e-10	7.688704e+00	4.561747e+01
2.150000e-06	1.076633e-06	8.701773e-10	7.943483e+00	5.316944e+01
2.160000e-06	1.111104e-06	9.838078e-10	8.197812e+00	6.074066e+01
2.170000e-06	1.145528e-06	1.099448e-09	8.451794e+00	6.832699e+01
2.180000e-06	1.179875e-06	1.216506e-09	8.705203e+00	7.592561e+01
2.190000e-06	1.214105e-06	1.328796e-09	8.957758e+00	8.353480e+01
2.200000e-06	1.248228e-06	1.437676e-09	9.209521e+00	9.115357e+01
2.210000e-06	1.282256e-06	1.548301e-09	9.460578e+00	9.878123e+01
2.220000e-06	1.316187e-06	1.664025e-09	9.710925e+00	1.064167e+02
2.230000e-06	1.350050e-06	1.782350e-09	9.960767e+00	1.140582e+02
2.240000e-06	1.383846e-06	1.896685e-09	1.021012e+01	1.217026e+02
2.250000e-06	1.417554e-06	2.012002e-09	1.045882e+01	1.293449e+02
2.260000e-06	1.451190e-06	2.131845e-09	1.070699e+01	1.369787e+02
2.270000e-06	1.484790e-06	2.248637e-09	1.095489e+01	1.445957e+02
2.280000e-06	1.518345e-06	2.358921e-09	1.120246e+01	1.521863e+02
2.290000e-06	1.551803e-06	2.466234e-09	1.144932e+01	1.597402e+02
2.300000e-06	1.585145e-06	2.577260e-09	1.169532e+01	1.672466e+02
2.310000e-06	1.618358e-06	2.689575e-09	1.194037e+01	1.746954e+02
2.320000e-06	1.651398e-06	2.796834e-09	1.218414e+01	1.820774e+02
2.330000e-06	1.684276e-06	2.901919e-09	1.242671e+01	1.893852e+02
2.340000e-06	1.717025e-06	3.010994e-09	1.266834e+01	1.966132e+02
2.350000e-06	1.749675e-06	3.124249e-09	1.290924e+01	2.037580e+02
2.360000e-06	1.782250e-06	3.234025e-09	1.314957e+01	2.108181e+02
2.370000e-06	1.814706e-06	3.335340e-09	1.338904e+01	2.177940e+02
2.380000e-06	1.847017e-06	3.433789e-09	1.362743e+01	2.246873e+02
2.390000e-06	1.879215e-06	3.535386e-09	1.386499e+01	2.315002e+02
2.400000e-06	1.911294e-06	3.637970e-09	1.410167e+01	2.382350e+02
2.410000e-06	1.943211e-06	3.737385e-09	1.433715e+01	2.448936e+02
2.420000e-06	1.974937e-06	3.834961e-09	1.457124e+01	2.514769e+02
2.430000e-06	2.006461e-06	3.934920e-09	1.480382e+01	2.579846e+02
2.440000e-06	2.037822e-06	4.034365e-09	1.503520e+01	2.644149e+02
2.450000e-06	2.069044e-06	4.127359e-09	1.526556e+01	2.707650e+02
2.460000e-06	2.100114e-06	4.214580e-09	1.549480e+01	2.770309e+02
2.470000e-06	2.131035e-06	4.303339e-09	1.572294e+01	2.832083e+02
2.480000e-06	2.161832e-06	4.396364e-09	1.595016e+01	2.892925e+02
2.490000e-06	2.192482e-06	4.488823e-09	1.617630e+01	2.952795e+02
2.500000e-06	2.222969e-06	4.577671e-09	1.640123e+01	3.011659e+02
2.510000e-06	2.253329e-06	4.666062e-09	1.662523e+01	3.069493e+02
2.520000e-06	2.283547e-06	4.756762e-09	1.684818e+01	3.126288e+02
2.530000e-06	2.313590e-06	4.846107e-09	1.706984e+01	3.182045e+02
2.540000e-06	2.343365e-06	4.930357e-09	1.728952e+01	3.236778e+02
2.550000e-06	2.372770e-06	5.012229e-09	1.750648e+01	3.290511e+02
2.560000e-06	2.401880e-06	5.093757e-09	1.772125e+01	3.343272e+02
2.570000e-06	2.430822e-06	5.173989e-09	1.793479e+01	3.395094e+02
2.580000e-06	2.459653e-06	5.251286e-09	1.814750e+01	3.446008e+02
2.590000e-06	2.488379e-06	5.326281e-09	1.835945e+01	3.496043e+02
2.600000e-06	2.516967e-06	5.402001e-09	1.857037e+01	3.545220e+02
2.610000e-06	2.545385e-06	5.478182e-09	1.878004e+01	3.593558e+02
2.620000e-06	2.573623e-06	5.551846e-09	1.898839e+01	3.641066e+02
2.630000e-06	2.601682e-06	5.622339e-09	1.919540e+01	3.687750e+02
2.640000e-06	2.629556e-06	5.690007e-09	1.940106e+01	3.733607e+02
2.650000e-06	2.657245e-06	5.756455e-09	1.960535e+01	3.778636e+02
2.660000e-06	2.684757e-06	5.823344e-09	1.980834e+01	3.822832e+02
2.670000e-06	2.712106e-06	5.890282e-09	2.001012e+01	3.866189e+02
2.680000e-06	2.739322e-06	5.957868e-09	2.021092e+01	3.908705e+02
2.690000e-06	2.766403e-06	6.025442e-09	2.041073e+01	3.950380e+02
2.700000e-06	2.793295e-06	6.090539e-09	2.060914e+01	3.991219e+02
2.710000e-06	2.819925e-06	6.151610e-09	2.080562e+01	4.031228e+02
2.720000e-06	2.846242e-06	6.208916e-09	2.099979e+01	4.070421e+02
2.730000e-06	2.872230e-06	6.263417e-09	2.119153e+01	4.108814e+02
2.740000e-06	2.897967e-06	6.316907e-09	2.138142e+01	4.146428e+02
2.750000e-06	2.923585e-06	6.369839e-09	2.157043e+01	4.183287e+02
2.760000e-06	2.949088e-06	6.422657e-09	2.175859e+01	4.219418e+02
2.770000e-06	2.974415e-06	6.475114e-09	2.194545e+01	4.254849e+02
2.780000e-06	2.999535e-06	6.526317e-09	2.213080e+01	4.289607e+02
2.790000e-06	3.024449e-06	6.574777e-09	2.231461e+01	4.323719e+02
2.800000e-06	3.049186e-06	6.619350e-09	2.249712e+01	4.357209e+02
2.810000e-06	3.073726e-06	6.664527e-09	2.267818e+01	4.390096e+02
2.820000e-06	3.098045e-06	6.714624e-09	2.285761e+01	4.422393e+02
2.830000e-06	3.122171e-06	6.768396e-09	2.303561e+01	4.454108e+02
2.840000e-06	3.146142e-06	6.820306e-09	2.321247e+01	4.485242e+02
2.850000e-06	3.169934e-06	6.867437e-09	2.338801e+01	4.515791e+02
2.860000e-06	3.193424e-06	6.909885e-09	2.356132e+01	4.545747e+02
2.870000e-06	3.216534e-06	6.946908e-09	2.373183e+01	4.575099e+02
2.880000e-06	3.239283e-06	6.980382e-09	2.389967e+01	4.603835e+02
2.890000e-06	3.261786e-06	7.014458e-09	2.406570e+01	4.631947e+02
2.900000e-06	3.284157e-06	7.050765e-09	2.423075e+01	4.659432e+02
