# Temperatura_=_20.0
# Concentracion g/m^3_=_10000.0
# C_Vs_to_Am_M_A/Vsm_=_65563218390.804596
# pendiente_HvsI_1/m_=_3716.3
# ordenada_HvsI_A/m_=_1297.0
# frecuencia_Hz_=_135302.95577300823

Tiempo_(s)	Campo_(V.s)	Magnetizacion_(V.s)	Campo_(kA/m)	Magnetizacion_(A/m)
0.000000e+00	-4.204083e-06	-8.544880e-09	-3.095264e+01	-5.580334e+02
1.000000e-08	-4.204168e-06	-8.543541e-09	-3.095326e+01	-5.581038e+02
2.000000e-08	-4.204039e-06	-8.543662e-09	-3.095231e+01	-5.581523e+02
3.000000e-08	-4.203642e-06	-8.545575e-09	-3.094939e+01	-5.581776e+02
4.000000e-08	-4.202929e-06	-8.549415e-09	-3.094414e+01	-5.581769e+02
5.000000e-08	-4.201837e-06	-8.552428e-09	-3.093610e+01	-5.581452e+02
6.000000e-08	-4.200376e-06	-8.551649e-09	-3.092535e+01	-5.580751e+02
7.000000e-08	-4.198647e-06	-8.544508e-09	-3.091261e+01	-5.579574e+02
8.000000e-08	-4.196594e-06	-8.532691e-09	-3.089750e+01	-5.577811e+02
9.000000e-08	-4.194027e-06	-8.539066e-09	-3.087860e+01	-5.575344e+02
1.000000e-07	-4.191000e-06	-8.543788e-09	-3.085631e+01	-5.572060e+02
1.100000e-07	-4.187875e-06	-8.506184e-09	-3.083331e+01	-5.567863e+02
1.200000e-07	-4.184669e-06	-8.472790e-09	-3.080970e+01	-5.562691e+02
1.300000e-07	-4.181079e-06	-8.475164e-09	-3.078327e+01	-5.556524e+02
1.400000e-07	-4.177074e-06	-8.472775e-09	-3.075379e+01	-5.549397e+02
1.500000e-07	-4.172883e-06	-8.465985e-09	-3.072293e+01	-5.541405e+02
1.600000e-07	-4.168438e-06	-8.471234e-09	-3.069020e+01	-5.532699e+02
1.700000e-07	-4.163497e-06	-8.459580e-09	-3.065382e+01	-5.523481e+02
1.800000e-07	-4.158153e-06	-8.438339e-09	-3.061448e+01	-5.513986e+02
1.900000e-07	-4.152560e-06	-8.427803e-09	-3.057330e+01	-5.504471e+02
2.000000e-07	-4.146724e-06	-8.428272e-09	-3.053033e+01	-5.495186e+02
2.100000e-07	-4.140455e-06	-8.424016e-09	-3.048418e+01	-5.486357e+02
2.200000e-07	-4.133765e-06	-8.402869e-09	-3.043492e+01	-5.478162e+02
2.300000e-07	-4.126840e-06	-8.398887e-09	-3.038394e+01	-5.470717e+02
2.400000e-07	-4.119642e-06	-8.401732e-09	-3.033094e+01	-5.464066e+02
2.500000e-07	-4.112076e-06	-8.389987e-09	-3.027523e+01	-5.458177e+02
2.600000e-07	-4.104214e-06	-8.373499e-09	-3.021735e+01	-5.452947e+02
2.700000e-07	-4.096198e-06	-8.370904e-09	-3.015833e+01	-5.448218e+02
2.800000e-07	-4.087979e-06	-8.360276e-09	-3.009782e+01	-5.443789e+02
2.900000e-07	-4.079454e-06	-8.342246e-09	-3.003506e+01	-5.439443e+02
3.000000e-07	-4.070644e-06	-8.333959e-09	-2.997019e+01	-5.434969e+02
3.100000e-07	-4.061574e-06	-8.338048e-09	-2.990342e+01	-5.430180e+02
3.200000e-07	-4.052218e-06	-8.328896e-09	-2.983453e+01	-5.424935e+02
3.300000e-07	-4.042628e-06	-8.306083e-09	-2.976393e+01	-5.419147e+02
3.400000e-07	-4.032848e-06	-8.291174e-09	-2.969191e+01	-5.412789e+02
3.500000e-07	-4.022709e-06	-8.281187e-09	-2.961727e+01	-5.405891e+02
3.600000e-07	-4.012128e-06	-8.266139e-09	-2.953937e+01	-5.398527e+02
3.700000e-07	-4.001191e-06	-8.249349e-09	-2.945884e+01	-5.390808e+02
3.800000e-07	-3.989985e-06	-8.244114e-09	-2.937634e+01	-5.382858e+02
3.900000e-07	-3.978537e-06	-8.231237e-09	-2.929205e+01	-5.374800e+02
4.000000e-07	-3.966813e-06	-8.216068e-09	-2.920573e+01	-5.366737e+02
4.100000e-07	-3.954799e-06	-8.201666e-09	-2.911728e+01	-5.358743e+02
4.200000e-07	-3.942494e-06	-8.188061e-09	-2.902669e+01	-5.350855e+02
4.300000e-07	-3.929946e-06	-8.170341e-09	-2.893430e+01	-5.343069e+02
4.400000e-07	-3.917226e-06	-8.154238e-09	-2.884065e+01	-5.335347e+02
4.500000e-07	-3.904329e-06	-8.138525e-09	-2.874569e+01	-5.327625e+02
4.600000e-07	-3.891122e-06	-8.125902e-09	-2.864846e+01	-5.319821e+02
4.700000e-07	-3.877497e-06	-8.113742e-09	-2.854814e+01	-5.311851e+02
4.800000e-07	-3.863487e-06	-8.104150e-09	-2.844500e+01	-5.303638e+02
4.900000e-07	-3.849186e-06	-8.097486e-09	-2.833970e+01	-5.295125e+02
5.000000e-07	-3.834657e-06	-8.085542e-09	-2.823273e+01	-5.286276e+02
5.100000e-07	-3.819892e-06	-8.064091e-09	-2.812402e+01	-5.277082e+02
5.200000e-07	-3.804861e-06	-8.039989e-09	-2.801336e+01	-5.267555e+02
5.300000e-07	-3.789496e-06	-8.020286e-09	-2.790023e+01	-5.257726e+02
5.400000e-07	-3.773835e-06	-8.001427e-09	-2.778493e+01	-5.247634e+02
5.500000e-07	-3.757982e-06	-7.985921e-09	-2.766822e+01	-5.237322e+02
5.600000e-07	-3.741952e-06	-7.977120e-09	-2.755019e+01	-5.226823e+02
5.700000e-07	-3.725716e-06	-7.968019e-09	-2.743065e+01	-5.216160e+02
5.800000e-07	-3.709173e-06	-7.951478e-09	-2.730886e+01	-5.205337e+02
5.900000e-07	-3.692233e-06	-7.928895e-09	-2.718413e+01	-5.194343e+02
6.000000e-07	-3.674924e-06	-7.905068e-09	-2.705670e+01	-5.183153e+02
6.100000e-07	-3.657347e-06	-7.883844e-09	-2.692729e+01	-5.171732e+02
6.200000e-07	-3.639534e-06	-7.865763e-09	-2.679614e+01	-5.160043e+02
6.300000e-07	-3.621490e-06	-7.848519e-09	-2.666328e+01	-5.148052e+02
6.400000e-07	-3.603190e-06	-7.834546e-09	-2.652855e+01	-5.135733e+02
6.500000e-07	-3.584632e-06	-7.819355e-09	-2.639192e+01	-5.123077e+02
6.600000e-07	-3.565820e-06	-7.796404e-09	-2.625341e+01	-5.110086e+02
6.700000e-07	-3.546771e-06	-7.769233e-09	-2.611317e+01	-5.096780e+02
6.800000e-07	-3.527529e-06	-7.742273e-09	-2.597150e+01	-5.083186e+02
6.900000e-07	-3.508021e-06	-7.715995e-09	-2.582787e+01	-5.069342e+02
7.000000e-07	-3.488176e-06	-7.691611e-09	-2.568176e+01	-5.055285e+02
7.100000e-07	-3.467950e-06	-7.672271e-09	-2.553285e+01	-5.041046e+02
7.200000e-07	-3.447349e-06	-7.651831e-09	-2.538117e+01	-5.026650e+02
7.300000e-07	-3.426473e-06	-7.630316e-09	-2.522747e+01	-5.012107e+02
7.400000e-07	-3.405340e-06	-7.606393e-09	-2.507187e+01	-4.997418e+02
7.500000e-07	-3.383947e-06	-7.580706e-09	-2.491437e+01	-4.982569e+02
7.600000e-07	-3.362318e-06	-7.554074e-09	-2.475513e+01	-4.967540e+02
7.700000e-07	-3.340466e-06	-7.529553e-09	-2.459425e+01	-4.952305e+02
7.800000e-07	-3.318391e-06	-7.506681e-09	-2.443172e+01	-4.936841e+02
7.900000e-07	-3.296108e-06	-7.482253e-09	-2.426766e+01	-4.921126e+02
8.000000e-07	-3.273634e-06	-7.454382e-09	-2.410219e+01	-4.905151e+02
8.100000e-07	-3.250947e-06	-7.427531e-09	-2.393516e+01	-4.888913e+02
8.200000e-07	-3.227999e-06	-7.400453e-09	-2.376620e+01	-4.872420e+02
8.300000e-07	-3.204749e-06	-7.375507e-09	-2.359502e+01	-4.855691e+02
8.400000e-07	-3.181203e-06	-7.350007e-09	-2.342166e+01	-4.838748e+02
8.500000e-07	-3.157392e-06	-7.324760e-09	-2.324636e+01	-4.821615e+02
8.600000e-07	-3.133395e-06	-7.299491e-09	-2.306968e+01	-4.804317e+02
8.700000e-07	-3.109230e-06	-7.269027e-09	-2.289177e+01	-4.786870e+02
8.800000e-07	-3.084864e-06	-7.237765e-09	-2.271237e+01	-4.769286e+02
8.900000e-07	-3.060233e-06	-7.206402e-09	-2.253102e+01	-4.751567e+02
9.000000e-07	-3.035359e-06	-7.177565e-09	-2.234788e+01	-4.733707e+02
9.100000e-07	-3.010295e-06	-7.147099e-09	-2.216335e+01	-4.715693e+02
9.200000e-07	-2.985029e-06	-7.119632e-09	-2.197733e+01	-4.697508e+02
9.300000e-07	-2.959592e-06	-7.093756e-09	-2.179005e+01	-4.679134e+02
9.400000e-07	-2.933997e-06	-7.068065e-09	-2.160161e+01	-4.660554e+02
9.500000e-07	-2.908182e-06	-7.039608e-09	-2.141155e+01	-4.641753e+02
9.600000e-07	-2.882136e-06	-7.010143e-09	-2.121978e+01	-4.622721e+02
9.700000e-07	-2.855894e-06	-6.979561e-09	-2.102657e+01	-4.603451e+02
9.800000e-07	-2.829406e-06	-6.946762e-09	-2.083155e+01	-4.583939e+02
9.900000e-07	-2.802632e-06	-6.910022e-09	-2.063443e+01	-4.564182e+02
1.000000e-06	-2.775643e-06	-6.872949e-09	-2.043572e+01	-4.544175e+02
1.010000e-06	-2.748508e-06	-6.841340e-09	-2.023594e+01	-4.523910e+02
1.020000e-06	-2.721223e-06	-6.812631e-09	-2.003506e+01	-4.503373e+02
1.030000e-06	-2.693783e-06	-6.782687e-09	-1.983303e+01	-4.482546e+02
1.040000e-06	-2.666168e-06	-6.752375e-09	-1.962971e+01	-4.461404e+02
1.050000e-06	-2.638330e-06	-6.724920e-09	-1.942475e+01	-4.439922e+02
1.060000e-06	-2.610288e-06	-6.693654e-09	-1.921829e+01	-4.418073e+02
1.070000e-06	-2.582058e-06	-6.656999e-09	-1.901045e+01	-4.395830e+02
1.080000e-06	-2.553638e-06	-6.618880e-09	-1.880121e+01	-4.373176e+02
1.090000e-06	-2.525052e-06	-6.585233e-09	-1.859074e+01	-4.350100e+02
1.100000e-06	-2.496330e-06	-6.550385e-09	-1.837927e+01	-4.326601e+02
1.110000e-06	-2.467506e-06	-6.512366e-09	-1.816706e+01	-4.302687e+02
1.120000e-06	-2.438552e-06	-6.473259e-09	-1.795388e+01	-4.278377e+02
1.130000e-06	-2.409391e-06	-6.437808e-09	-1.773919e+01	-4.253696e+02
1.140000e-06	-2.379956e-06	-6.407034e-09	-1.752247e+01	-4.228671e+02
1.150000e-06	-2.350228e-06	-6.372887e-09	-1.730360e+01	-4.203330e+02
1.160000e-06	-2.320282e-06	-6.331573e-09	-1.708312e+01	-4.177695e+02
1.170000e-06	-2.290142e-06	-6.290316e-09	-1.686121e+01	-4.151783e+02
1.180000e-06	-2.259798e-06	-6.252971e-09	-1.663780e+01	-4.125598e+02
1.190000e-06	-2.229279e-06	-6.213350e-09	-1.641311e+01	-4.099137e+02
1.200000e-06	-2.198628e-06	-6.167936e-09	-1.618744e+01	-4.072382e+02
1.210000e-06	-2.167860e-06	-6.122169e-09	-1.596091e+01	-4.045313e+02
1.220000e-06	-2.136918e-06	-6.080880e-09	-1.573310e+01	-4.017899e+02
1.230000e-06	-2.105814e-06	-6.042988e-09	-1.550409e+01	-3.990114e+02
1.240000e-06	-2.074569e-06	-6.005850e-09	-1.527405e+01	-3.961928e+02
1.250000e-06	-2.043174e-06	-5.966844e-09	-1.504290e+01	-3.933324e+02
1.260000e-06	-2.011566e-06	-5.928130e-09	-1.481020e+01	-3.904290e+02
1.270000e-06	-1.979694e-06	-5.883390e-09	-1.457553e+01	-3.874826e+02
1.280000e-06	-1.947587e-06	-5.830665e-09	-1.433914e+01	-3.844943e+02
1.290000e-06	-1.915376e-06	-5.772371e-09	-1.410199e+01	-3.814660e+02
1.300000e-06	-1.883049e-06	-5.717457e-09	-1.386399e+01	-3.784006e+02
1.310000e-06	-1.850581e-06	-5.671271e-09	-1.362494e+01	-3.753014e+02
1.320000e-06	-1.818032e-06	-5.629874e-09	-1.338529e+01	-3.721716e+02
1.330000e-06	-1.785329e-06	-5.588861e-09	-1.314452e+01	-3.690144e+02
1.340000e-06	-1.752518e-06	-5.546412e-09	-1.290294e+01	-3.658322e+02
1.350000e-06	-1.719643e-06	-5.503052e-09	-1.266090e+01	-3.626267e+02
1.360000e-06	-1.686643e-06	-5.453874e-09	-1.241794e+01	-3.593987e+02
1.370000e-06	-1.653480e-06	-5.398574e-09	-1.217378e+01	-3.561480e+02
1.380000e-06	-1.620185e-06	-5.342232e-09	-1.192864e+01	-3.528735e+02
1.390000e-06	-1.586824e-06	-5.290659e-09	-1.168302e+01	-3.495732e+02
1.400000e-06	-1.553398e-06	-5.242027e-09	-1.143692e+01	-3.462447e+02
1.410000e-06	-1.519861e-06	-5.193888e-09	-1.119000e+01	-3.428852e+02
1.420000e-06	-1.486247e-06	-5.143466e-09	-1.094252e+01	-3.394919e+02
1.430000e-06	-1.452593e-06	-5.092767e-09	-1.069474e+01	-3.360619e+02
1.440000e-06	-1.418863e-06	-5.040295e-09	-1.044640e+01	-3.325927e+02
1.450000e-06	-1.385047e-06	-4.984036e-09	-1.019743e+01	-3.290821e+02
1.460000e-06	-1.351167e-06	-4.924868e-09	-9.947995e+00	-3.255284e+02
1.470000e-06	-1.317208e-06	-4.867112e-09	-9.697968e+00	-3.219303e+02
1.480000e-06	-1.283140e-06	-4.811589e-09	-9.447145e+00	-3.182867e+02
1.490000e-06	-1.248993e-06	-4.756113e-09	-9.195733e+00	-3.145970e+02
1.500000e-06	-1.214774e-06	-4.700170e-09	-8.943798e+00	-3.108606e+02
1.510000e-06	-1.180442e-06	-4.640719e-09	-8.691025e+00	-3.070769e+02
1.520000e-06	-1.146018e-06	-4.579130e-09	-8.437579e+00	-3.032453e+02
1.530000e-06	-1.111513e-06	-4.517253e-09	-8.183533e+00	-2.993652e+02
1.540000e-06	-1.076944e-06	-4.457034e-09	-7.929019e+00	-2.954357e+02
1.550000e-06	-1.042321e-06	-4.396161e-09	-7.674108e+00	-2.914557e+02
1.560000e-06	-1.007614e-06	-4.332750e-09	-7.418574e+00	-2.874241e+02
1.570000e-06	-9.728640e-07	-4.266482e-09	-7.162729e+00	-2.833398e+02
1.580000e-06	-9.380254e-07	-4.200891e-09	-6.906230e+00	-2.792017e+02
1.590000e-06	-9.030620e-07	-4.136973e-09	-6.648811e+00	-2.750092e+02
1.600000e-06	-8.680450e-07	-4.074595e-09	-6.390998e+00	-2.707617e+02
1.610000e-06	-8.329775e-07	-4.009141e-09	-6.132812e+00	-2.664596e+02
1.620000e-06	-7.978533e-07	-3.938060e-09	-5.874210e+00	-2.621034e+02
1.630000e-06	-7.627095e-07	-3.868836e-09	-5.615462e+00	-2.576944e+02
1.640000e-06	-7.275754e-07	-3.801276e-09	-5.356787e+00	-2.532347e+02
1.650000e-06	-6.924105e-07	-3.732109e-09	-5.097885e+00	-2.487264e+02
1.660000e-06	-6.571828e-07	-3.660284e-09	-4.838521e+00	-2.441723e+02
1.670000e-06	-6.219150e-07	-3.587245e-09	-4.578861e+00	-2.395747e+02
1.680000e-06	-5.866266e-07	-3.515475e-09	-4.319049e+00	-2.349361e+02
1.690000e-06	-5.513399e-07	-3.441735e-09	-4.059250e+00	-2.302583e+02
1.700000e-06	-5.160109e-07	-3.365883e-09	-3.799140e+00	-2.255421e+02
1.710000e-06	-4.806239e-07	-3.292955e-09	-3.538602e+00	-2.207878e+02
1.720000e-06	-4.451940e-07	-3.222412e-09	-3.277749e+00	-2.159942e+02
1.730000e-06	-4.097307e-07	-3.148643e-09	-3.016650e+00	-2.111593e+02
1.740000e-06	-3.742461e-07	-3.069353e-09	-2.755394e+00	-2.062801e+02
1.750000e-06	-3.387440e-07	-2.987644e-09	-2.494009e+00	-2.013530e+02
1.760000e-06	-3.032251e-07	-2.908007e-09	-2.232501e+00	-1.963740e+02
1.770000e-06	-2.676900e-07	-2.829823e-09	-1.970872e+00	-1.913394e+02
1.780000e-06	-2.321499e-07	-2.750458e-09	-1.709208e+00	-1.862455e+02
1.790000e-06	-1.966237e-07	-2.671560e-09	-1.447646e+00	-1.810896e+02
1.800000e-06	-1.610793e-07	-2.593807e-09	-1.185950e+00	-1.758700e+02
1.810000e-06	-1.254540e-07	-2.516975e-09	-9.236573e-01	-1.705857e+02
1.820000e-06	-8.977715e-08	-2.437599e-09	-6.609859e-01	-1.652372e+02
1.830000e-06	-5.410968e-08	-2.353362e-09	-3.983835e-01	-1.598254e+02
1.840000e-06	-1.845580e-08	-2.266845e-09	-1.358812e-01	-1.543519e+02
1.850000e-06	1.719161e-08	-2.179914e-09	1.265735e-01	-1.488184e+02
1.860000e-06	5.283090e-08	-2.092696e-09	3.889685e-01	-1.432264e+02
1.870000e-06	8.847452e-08	-2.004656e-09	6.513953e-01	-1.375766e+02
1.880000e-06	1.241033e-07	-1.917282e-09	9.137130e-01	-1.318687e+02
1.890000e-06	1.597206e-07	-1.830748e-09	1.175946e+00	-1.261013e+02
1.900000e-06	1.953318e-07	-1.745774e-09	1.438134e+00	-1.202719e+02
1.910000e-06	2.309136e-07	-1.659837e-09	1.700106e+00	-1.143769e+02
1.920000e-06	2.664522e-07	-1.567765e-09	1.961759e+00	-1.084122e+02
1.930000e-06	3.019454e-07	-1.472859e-09	2.223079e+00	-1.023731e+02
1.940000e-06	3.374373e-07	-1.376627e-09	2.484389e+00	-9.625532e+01
1.950000e-06	3.729303e-07	-1.279391e-09	2.745706e+00	-9.005526e+01
1.960000e-06	4.083827e-07	-1.182420e-09	3.006725e+00	-8.377028e+01
1.970000e-06	4.438004e-07	-1.086885e-09	3.267489e+00	-7.739910e+01
1.980000e-06	4.792156e-07	-9.930467e-10	3.528233e+00	-7.094194e+01
1.990000e-06	5.146264e-07	-8.981328e-10	3.788947e+00	-6.440043e+01
2.000000e-06	5.499779e-07	-7.992516e-10	4.049223e+00	-5.777744e+01
2.010000e-06	5.852865e-07	-6.988251e-10	4.309182e+00	-5.107674e+01
2.020000e-06	6.205801e-07	-5.973828e-10	4.569032e+00	-4.430266e+01
2.030000e-06	6.558451e-07	-4.943167e-10	4.828671e+00	-3.745962e+01
2.040000e-06	6.910692e-07	-3.875197e-10	5.088010e+00	-3.055180e+01
2.050000e-06	7.262521e-07	-2.781220e-10	5.347045e+00	-2.358288e+01
2.060000e-06	7.613873e-07	-1.713698e-10	5.605728e+00	-1.655585e+01
2.070000e-06	7.964694e-07	-6.539927e-11	5.864020e+00	-9.473042e+00
2.080000e-06	8.315077e-07	4.347729e-11	6.121990e+00	-2.336229e+00
2.090000e-06	8.664771e-07	1.541316e-10	6.379454e+00	4.853146e+00
2.100000e-06	9.013697e-07	2.612215e-10	6.636351e+00	1.209370e+01
2.110000e-06	9.362457e-07	3.676870e-10	6.893126e+00	1.938381e+01
2.120000e-06	9.710868e-07	4.777887e-10	7.149644e+00	2.672142e+01
2.130000e-06	1.005848e-06	5.910794e-10	7.405576e+00	3.410383e+01
2.140000e-06	1.040554e-06	7.035963e-10	7.661099e+00	4.152768e+01
2.150000e-06	1.075174e-06	8.136235e-10	7.915986e+00	4.898902e+01
2.160000e-06	1.109693e-06	9.241136e-10	8.170137e+00	5.648342e+01
2.170000e-06	1.144159e-06	1.036858e-09	8.423891e+00	6.400622e+01
2.180000e-06	1.178588e-06	1.147927e-09	8.677379e+00	7.155275e+01
2.190000e-06	1.212899e-06	1.257947e-09	8.929991e+00	7.911851e+01
2.200000e-06	1.247090e-06	1.371757e-09	9.181726e+00	8.669934e+01
2.210000e-06	1.281196e-06	1.488337e-09	9.432831e+00	9.429138e+01
2.220000e-06	1.315198e-06	1.604375e-09	9.683168e+00	1.018911e+02
2.230000e-06	1.349110e-06	1.720032e-09	9.932850e+00	1.094950e+02
2.240000e-06	1.382955e-06	1.836063e-09	1.018203e+01	1.170994e+02
2.250000e-06	1.416745e-06	1.952615e-09	1.043081e+01	1.247004e+02
2.260000e-06	1.450458e-06	2.068675e-09	1.067902e+01	1.322932e+02
2.270000e-06	1.484097e-06	2.179277e-09	1.092669e+01	1.398722e+02
2.280000e-06	1.517678e-06	2.287232e-09	1.117393e+01	1.474312e+02
2.290000e-06	1.551184e-06	2.396903e-09	1.142062e+01	1.549630e+02
2.300000e-06	1.584587e-06	2.507687e-09	1.166655e+01	1.624596e+02
2.310000e-06	1.617840e-06	2.617608e-09	1.191138e+01	1.699132e+02
2.320000e-06	1.650964e-06	2.725843e-09	1.215525e+01	1.773158e+02
2.330000e-06	1.683946e-06	2.836148e-09	1.239808e+01	1.846601e+02
2.340000e-06	1.716780e-06	2.947989e-09	1.263983e+01	1.919397e+02
2.350000e-06	1.749484e-06	3.058202e-09	1.288061e+01	1.991495e+02
2.360000e-06	1.782083e-06	3.164295e-09	1.312062e+01	2.062855e+02
2.370000e-06	1.814606e-06	3.267318e-09	1.336007e+01	2.133454e+02
2.380000e-06	1.847023e-06	3.370934e-09	1.359874e+01	2.203279e+02
2.390000e-06	1.879296e-06	3.474723e-09	1.383635e+01	2.272325e+02
2.400000e-06	1.911421e-06	3.577578e-09	1.407287e+01	2.340595e+02
2.410000e-06	1.943430e-06	3.678436e-09	1.430854e+01	2.408090e+02
2.420000e-06	1.975256e-06	3.777191e-09	1.454286e+01	2.474808e+02
2.430000e-06	2.006906e-06	3.876021e-09	1.477588e+01	2.540741e+02
2.440000e-06	2.038409e-06	3.973158e-09	1.500783e+01	2.605873e+02
2.450000e-06	2.069738e-06	4.068338e-09	1.523848e+01	2.670179e+02
2.460000e-06	2.100909e-06	4.162491e-09	1.546798e+01	2.733626e+02
2.470000e-06	2.131922e-06	4.254698e-09	1.569632e+01	2.796176e+02
2.480000e-06	2.162772e-06	4.344124e-09	1.592345e+01	2.857790e+02
2.490000e-06	2.193464e-06	4.431593e-09	1.614942e+01	2.918431e+02
2.500000e-06	2.224034e-06	4.519027e-09	1.637449e+01	2.978067e+02
2.510000e-06	2.254485e-06	4.606618e-09	1.659868e+01	3.036675e+02
2.520000e-06	2.284792e-06	4.697873e-09	1.682182e+01	3.094243e+02
2.530000e-06	2.314898e-06	4.791345e-09	1.704348e+01	3.150770e+02
2.540000e-06	2.344738e-06	4.879484e-09	1.726318e+01	3.206265e+02
2.550000e-06	2.374294e-06	4.960978e-09	1.748078e+01	3.260745e+02
2.560000e-06	2.403563e-06	5.038601e-09	1.769628e+01	3.314235e+02
2.570000e-06	2.432627e-06	5.115909e-09	1.791026e+01	3.366761e+02
2.580000e-06	2.461554e-06	5.193523e-09	1.812324e+01	3.418350e+02
2.590000e-06	2.490335e-06	5.269368e-09	1.833514e+01	3.469028e+02
2.600000e-06	2.518967e-06	5.346827e-09	1.854594e+01	3.518813e+02
2.610000e-06	2.547436e-06	5.424771e-09	1.875554e+01	3.567722e+02
2.620000e-06	2.575715e-06	5.500942e-09	1.896375e+01	3.615766e+02
2.630000e-06	2.603834e-06	5.573699e-09	1.917077e+01	3.662952e+02
2.640000e-06	2.631800e-06	5.639409e-09	1.937667e+01	3.709284e+02
2.650000e-06	2.659566e-06	5.702553e-09	1.958110e+01	3.754769e+02
2.660000e-06	2.687132e-06	5.768028e-09	1.978406e+01	3.799410e+02
2.670000e-06	2.714515e-06	5.834903e-09	1.998566e+01	3.843215e+02
2.680000e-06	2.741771e-06	5.899150e-09	2.018634e+01	3.886193e+02
2.690000e-06	2.768911e-06	5.963497e-09	2.038616e+01	3.928358e+02
2.700000e-06	2.795851e-06	6.030022e-09	2.058451e+01	3.969724e+02
2.710000e-06	2.822520e-06	6.095299e-09	2.078086e+01	4.010306e+02
2.720000e-06	2.848907e-06	6.155079e-09	2.097513e+01	4.050122e+02
2.730000e-06	2.875006e-06	6.209153e-09	2.116728e+01	4.089187e+02
2.740000e-06	2.900875e-06	6.263301e-09	2.135774e+01	4.127517e+02
2.750000e-06	2.926572e-06	6.318521e-09	2.154694e+01	4.165124e+02
2.760000e-06	2.952097e-06	6.372683e-09	2.173487e+01	4.202022e+02
2.770000e-06	2.977461e-06	6.426363e-09	2.192161e+01	4.238221e+02
2.780000e-06	3.002652e-06	6.480221e-09	2.210708e+01	4.273733e+02
2.790000e-06	3.027617e-06	6.533848e-09	2.229088e+01	4.308568e+02
2.800000e-06	3.052360e-06	6.584586e-09	2.247306e+01	4.342737e+02
2.810000e-06	3.076941e-06	6.632189e-09	2.265404e+01	4.376251e+02
2.820000e-06	3.101327e-06	6.680139e-09	2.283357e+01	4.409122e+02
2.830000e-06	3.125511e-06	6.729751e-09	2.301163e+01	4.441360e+02
2.840000e-06	3.149515e-06	6.779580e-09	2.318836e+01	4.472974e+02
2.850000e-06	3.173339e-06	6.826820e-09	2.336377e+01	4.503970e+02
2.860000e-06	3.196932e-06	6.871218e-09	2.353747e+01	4.534352e+02
2.870000e-06	3.220156e-06	6.913233e-09	2.370846e+01	4.564122e+02
2.880000e-06	3.243048e-06	6.952940e-09	2.387700e+01	4.593277e+02
2.890000e-06	3.265698e-06	6.988931e-09	2.404376e+01	4.621815e+02
2.900000e-06	3.288143e-06	7.023100e-09	2.420901e+01	4.649734e+02
