# Temperatura_=_20.0
# Concentracion g/m^3_=_10000.0
# C_Vs_to_Am_M_A/Vsm_=_65563218390.804596
# pendiente_HvsI_1/m_=_3716.3
# ordenada_HvsI_A/m_=_1297.0
# frecuencia_Hz_=_135299.29151525823

Tiempo_(s)	Campo_(V.s)	Magnetizacion_(V.s)	Campo_(kA/m)	Magnetizacion_(A/m)
0.000000e+00	-4.216152e-06	-8.563029e-09	-3.095657e+01	-5.579949e+02
1.000000e-08	-4.216178e-06	-8.557132e-09	-3.095675e+01	-5.580354e+02
2.000000e-08	-4.216015e-06	-8.553071e-09	-3.095556e+01	-5.580703e+02
3.000000e-08	-4.215587e-06	-8.553516e-09	-3.095242e+01	-5.581047e+02
4.000000e-08	-4.214734e-06	-8.557727e-09	-3.094616e+01	-5.581409e+02
5.000000e-08	-4.213461e-06	-8.557624e-09	-3.093681e+01	-5.581783e+02
6.000000e-08	-4.211947e-06	-8.549784e-09	-3.092569e+01	-5.582127e+02
7.000000e-08	-4.210226e-06	-8.533902e-09	-3.091305e+01	-5.582366e+02
8.000000e-08	-4.208162e-06	-8.545579e-09	-3.089790e+01	-5.582396e+02
9.000000e-08	-4.205520e-06	-8.595481e-09	-3.087850e+01	-5.582091e+02
1.000000e-07	-4.202356e-06	-8.556859e-09	-3.085527e+01	-5.581322e+02
1.100000e-07	-4.199148e-06	-8.514896e-09	-3.083172e+01	-5.579962e+02
1.200000e-07	-4.195930e-06	-8.602809e-09	-3.080809e+01	-5.577908e+02
1.300000e-07	-4.192175e-06	-8.575943e-09	-3.078052e+01	-5.575089e+02
1.400000e-07	-4.188039e-06	-8.460255e-09	-3.075015e+01	-5.571478e+02
1.500000e-07	-4.183810e-06	-8.518143e-09	-3.071910e+01	-5.567094e+02
1.600000e-07	-4.179224e-06	-8.580297e-09	-3.068542e+01	-5.562008e+02
1.700000e-07	-4.174163e-06	-8.541512e-09	-3.064826e+01	-5.556330e+02
1.800000e-07	-4.168733e-06	-8.516622e-09	-3.060840e+01	-5.550205e+02
1.900000e-07	-4.163090e-06	-8.475968e-09	-3.056697e+01	-5.543796e+02
2.000000e-07	-4.157170e-06	-8.514049e-09	-3.052350e+01	-5.537270e+02
2.100000e-07	-4.150717e-06	-8.515559e-09	-3.047612e+01	-5.530786e+02
2.200000e-07	-4.143909e-06	-8.471946e-09	-3.042613e+01	-5.524472e+02
2.300000e-07	-4.136939e-06	-8.473227e-09	-3.037495e+01	-5.518423e+02
2.400000e-07	-4.129649e-06	-8.490948e-09	-3.032143e+01	-5.512691e+02
2.500000e-07	-4.121974e-06	-8.461583e-09	-3.026507e+01	-5.507281e+02
2.600000e-07	-4.114036e-06	-8.445014e-09	-3.020679e+01	-5.502160e+02
2.700000e-07	-4.105963e-06	-8.477086e-09	-3.014752e+01	-5.497256e+02
2.800000e-07	-4.097638e-06	-8.435688e-09	-3.008639e+01	-5.492478e+02
2.900000e-07	-4.088975e-06	-8.395665e-09	-3.002279e+01	-5.487719e+02
3.000000e-07	-4.080067e-06	-8.411165e-09	-2.995738e+01	-5.482874e+02
3.100000e-07	-4.070952e-06	-8.445818e-09	-2.989046e+01	-5.477851e+02
3.200000e-07	-4.061543e-06	-8.397825e-09	-2.982137e+01	-5.472575e+02
3.300000e-07	-4.051877e-06	-8.372933e-09	-2.975040e+01	-5.466997e+02
3.400000e-07	-4.042007e-06	-8.381526e-09	-2.967793e+01	-5.461092e+02
3.500000e-07	-4.031780e-06	-8.381640e-09	-2.960284e+01	-5.454859e+02
3.600000e-07	-4.021068e-06	-8.337874e-09	-2.952418e+01	-5.448317e+02
3.700000e-07	-4.009994e-06	-8.329757e-09	-2.944287e+01	-5.441494e+02
3.800000e-07	-3.998687e-06	-8.333926e-09	-2.935985e+01	-5.434426e+02
3.900000e-07	-3.987121e-06	-8.324518e-09	-2.927493e+01	-5.427143e+02
4.000000e-07	-3.975268e-06	-8.320015e-09	-2.918790e+01	-5.419671e+02
4.100000e-07	-3.963154e-06	-8.305042e-09	-2.909896e+01	-5.412023e+02
4.200000e-07	-3.950761e-06	-8.275883e-09	-2.900797e+01	-5.404200e+02
4.300000e-07	-3.938137e-06	-8.265758e-09	-2.891528e+01	-5.396196e+02
4.400000e-07	-3.925354e-06	-8.273528e-09	-2.882142e+01	-5.387995e+02
4.500000e-07	-3.912373e-06	-8.239742e-09	-2.872611e+01	-5.379580e+02
4.600000e-07	-3.899027e-06	-8.214939e-09	-2.862812e+01	-5.370936e+02
4.700000e-07	-3.885243e-06	-8.203086e-09	-2.852691e+01	-5.362054e+02
4.800000e-07	-3.871110e-06	-8.201134e-09	-2.842314e+01	-5.352935e+02
4.900000e-07	-3.856726e-06	-8.181616e-09	-2.831752e+01	-5.343587e+02
5.000000e-07	-3.842119e-06	-8.165467e-09	-2.821027e+01	-5.334028e+02
5.100000e-07	-3.827242e-06	-8.138649e-09	-2.810104e+01	-5.324284e+02
5.200000e-07	-3.812044e-06	-8.130014e-09	-2.798945e+01	-5.314382e+02
5.300000e-07	-3.796522e-06	-8.115280e-09	-2.787548e+01	-5.304345e+02
5.400000e-07	-3.780763e-06	-8.086827e-09	-2.775978e+01	-5.294194e+02
5.500000e-07	-3.764815e-06	-8.061017e-09	-2.764268e+01	-5.283939e+02
5.600000e-07	-3.748709e-06	-8.060703e-09	-2.752442e+01	-5.273578e+02
5.700000e-07	-3.732352e-06	-8.059414e-09	-2.740433e+01	-5.263096e+02
5.800000e-07	-3.715600e-06	-8.041807e-09	-2.728133e+01	-5.252472e+02
5.900000e-07	-3.698451e-06	-8.014455e-09	-2.715541e+01	-5.241672e+02
6.000000e-07	-3.681019e-06	-7.988399e-09	-2.702742e+01	-5.230662e+02
6.100000e-07	-3.663398e-06	-7.974317e-09	-2.689804e+01	-5.219404e+02
6.200000e-07	-3.645534e-06	-7.954931e-09	-2.676688e+01	-5.207867e+02
6.300000e-07	-3.627382e-06	-7.925705e-09	-2.663360e+01	-5.196025e+02
6.400000e-07	-3.608982e-06	-7.898928e-09	-2.649849e+01	-5.183862e+02
6.500000e-07	-3.590307e-06	-7.890871e-09	-2.636138e+01	-5.171373e+02
6.600000e-07	-3.571382e-06	-7.873988e-09	-2.622242e+01	-5.158558e+02
6.700000e-07	-3.552244e-06	-7.847873e-09	-2.608190e+01	-5.145430e+02
6.800000e-07	-3.532851e-06	-7.815773e-09	-2.593952e+01	-5.132003e+02
6.900000e-07	-3.513135e-06	-7.792110e-09	-2.579476e+01	-5.118295e+02
7.000000e-07	-3.493003e-06	-7.772965e-09	-2.564693e+01	-5.104323e+02
7.100000e-07	-3.472503e-06	-7.749986e-09	-2.549642e+01	-5.090102e+02
7.200000e-07	-3.451736e-06	-7.716838e-09	-2.534393e+01	-5.075645e+02
7.300000e-07	-3.430727e-06	-7.690526e-09	-2.518968e+01	-5.060959e+02
7.400000e-07	-3.409493e-06	-7.673933e-09	-2.503377e+01	-5.046051e+02
7.500000e-07	-3.388019e-06	-7.655073e-09	-2.487610e+01	-5.030924e+02
7.600000e-07	-3.366315e-06	-7.627154e-09	-2.471674e+01	-5.015582e+02
7.700000e-07	-3.344350e-06	-7.599528e-09	-2.455547e+01	-5.000031e+02
7.800000e-07	-3.322147e-06	-7.575872e-09	-2.439245e+01	-4.984277e+02
7.900000e-07	-3.299785e-06	-7.550496e-09	-2.422826e+01	-4.968332e+02
8.000000e-07	-3.277255e-06	-7.518403e-09	-2.406283e+01	-4.952207e+02
8.100000e-07	-3.254506e-06	-7.483900e-09	-2.389580e+01	-4.935916e+02
8.200000e-07	-3.231435e-06	-7.460694e-09	-2.372640e+01	-4.919471e+02
8.300000e-07	-3.207963e-06	-7.445973e-09	-2.355407e+01	-4.902881e+02
8.400000e-07	-3.184193e-06	-7.428477e-09	-2.337954e+01	-4.886149e+02
8.500000e-07	-3.160273e-06	-7.402236e-09	-2.320391e+01	-4.869272e+02
8.600000e-07	-3.136223e-06	-7.374181e-09	-2.302733e+01	-4.852242e+02
8.700000e-07	-3.111997e-06	-7.346708e-09	-2.284945e+01	-4.835038e+02
8.800000e-07	-3.087523e-06	-7.317850e-09	-2.266975e+01	-4.817639e+02
8.900000e-07	-3.062810e-06	-7.282609e-09	-2.248829e+01	-4.800017e+02
9.000000e-07	-3.037913e-06	-7.247743e-09	-2.230550e+01	-4.782141e+02
9.100000e-07	-3.012789e-06	-7.219333e-09	-2.212102e+01	-4.763985e+02
9.200000e-07	-2.987410e-06	-7.197648e-09	-2.193469e+01	-4.745523e+02
9.300000e-07	-2.961860e-06	-7.173267e-09	-2.174709e+01	-4.726736e+02
9.400000e-07	-2.936155e-06	-7.141689e-09	-2.155835e+01	-4.707615e+02
9.500000e-07	-2.910245e-06	-7.108199e-09	-2.136811e+01	-4.688153e+02
9.600000e-07	-2.884096e-06	-7.077673e-09	-2.117611e+01	-4.668354e+02
9.700000e-07	-2.857703e-06	-7.044887e-09	-2.098233e+01	-4.648225e+02
9.800000e-07	-2.831046e-06	-7.006002e-09	-2.078660e+01	-4.627776e+02
9.900000e-07	-2.804106e-06	-6.968546e-09	-2.058880e+01	-4.607018e+02
1.000000e-06	-2.776983e-06	-6.940045e-09	-2.038965e+01	-4.585960e+02
1.010000e-06	-2.749760e-06	-6.916207e-09	-2.018977e+01	-4.564610e+02
1.020000e-06	-2.722392e-06	-6.885780e-09	-1.998882e+01	-4.542969e+02
1.030000e-06	-2.694835e-06	-6.848793e-09	-1.978649e+01	-4.521035e+02
1.040000e-06	-2.667082e-06	-6.814552e-09	-1.958272e+01	-4.498803e+02
1.050000e-06	-2.639131e-06	-6.786448e-09	-1.937749e+01	-4.476264e+02
1.060000e-06	-2.610992e-06	-6.753447e-09	-1.917088e+01	-4.453410e+02
1.070000e-06	-2.582651e-06	-6.712630e-09	-1.896279e+01	-4.430230e+02
1.080000e-06	-2.554112e-06	-6.672914e-09	-1.875325e+01	-4.406720e+02
1.090000e-06	-2.525428e-06	-6.638972e-09	-1.854264e+01	-4.382875e+02
1.100000e-06	-2.496652e-06	-6.604978e-09	-1.833135e+01	-4.358695e+02
1.110000e-06	-2.467758e-06	-6.565443e-09	-1.811921e+01	-4.334182e+02
1.120000e-06	-2.438662e-06	-6.524902e-09	-1.790557e+01	-4.309340e+02
1.130000e-06	-2.409299e-06	-6.488802e-09	-1.768998e+01	-4.284175e+02
1.140000e-06	-2.379694e-06	-6.454757e-09	-1.747260e+01	-4.258688e+02
1.150000e-06	-2.349838e-06	-6.415809e-09	-1.725339e+01	-4.232882e+02
1.160000e-06	-2.319740e-06	-6.372394e-09	-1.703240e+01	-4.206754e+02
1.170000e-06	-2.289463e-06	-6.332227e-09	-1.681010e+01	-4.180296e+02
1.180000e-06	-2.259031e-06	-6.295961e-09	-1.658665e+01	-4.153500e+02
1.190000e-06	-2.228416e-06	-6.255897e-09	-1.636186e+01	-4.126353e+02
1.200000e-06	-2.197601e-06	-6.210163e-09	-1.613561e+01	-4.098841e+02
1.210000e-06	-2.166653e-06	-6.164827e-09	-1.590838e+01	-4.070954e+02
1.220000e-06	-2.135611e-06	-6.123638e-09	-1.568045e+01	-4.042683e+02
1.230000e-06	-2.104467e-06	-6.083561e-09	-1.545179e+01	-4.014024e+02
1.240000e-06	-2.073119e-06	-6.038172e-09	-1.522162e+01	-3.984981e+02
1.250000e-06	-2.041496e-06	-5.990337e-09	-1.498943e+01	-3.955561e+02
1.260000e-06	-2.009673e-06	-5.948677e-09	-1.475577e+01	-3.925781e+02
1.270000e-06	-1.977673e-06	-5.907905e-09	-1.452082e+01	-3.895660e+02
1.280000e-06	-1.945474e-06	-5.861464e-09	-1.428440e+01	-3.865220e+02
1.290000e-06	-1.913133e-06	-5.811552e-09	-1.404694e+01	-3.834483e+02
1.300000e-06	-1.880682e-06	-5.763996e-09	-1.380867e+01	-3.803471e+02
1.310000e-06	-1.848141e-06	-5.717688e-09	-1.356974e+01	-3.772199e+02
1.320000e-06	-1.815528e-06	-5.668559e-09	-1.333028e+01	-3.740675e+02
1.330000e-06	-1.782807e-06	-5.616418e-09	-1.309004e+01	-3.708901e+02
1.340000e-06	-1.749913e-06	-5.566808e-09	-1.284851e+01	-3.676871e+02
1.350000e-06	-1.716863e-06	-5.520640e-09	-1.260585e+01	-3.644571e+02
1.360000e-06	-1.683696e-06	-5.474240e-09	-1.236233e+01	-3.611982e+02
1.370000e-06	-1.650417e-06	-5.424992e-09	-1.211798e+01	-3.579082e+02
1.380000e-06	-1.617017e-06	-5.371009e-09	-1.187274e+01	-3.545847e+02
1.390000e-06	-1.583502e-06	-5.317841e-09	-1.162666e+01	-3.512253e+02
1.400000e-06	-1.549953e-06	-5.264648e-09	-1.138033e+01	-3.478282e+02
1.410000e-06	-1.516382e-06	-5.210116e-09	-1.113384e+01	-3.443917e+02
1.420000e-06	-1.482750e-06	-5.153302e-09	-1.088690e+01	-3.409149e+02
1.430000e-06	-1.449014e-06	-5.097081e-09	-1.063920e+01	-3.373974e+02
1.440000e-06	-1.415171e-06	-5.044780e-09	-1.039072e+01	-3.338393e+02
1.450000e-06	-1.381258e-06	-4.992671e-09	-1.014172e+01	-3.302409e+02
1.460000e-06	-1.347231e-06	-4.937597e-09	-9.891878e+00	-3.266031e+02
1.470000e-06	-1.313084e-06	-4.881150e-09	-9.641152e+00	-3.229263e+02
1.480000e-06	-1.278870e-06	-4.823506e-09	-9.389944e+00	-3.192110e+02
1.490000e-06	-1.244590e-06	-4.764892e-09	-9.138249e+00	-3.154575e+02
1.500000e-06	-1.210212e-06	-4.704268e-09	-8.885831e+00	-3.116654e+02
1.510000e-06	-1.175748e-06	-4.642353e-09	-8.632779e+00	-3.078341e+02
1.520000e-06	-1.141230e-06	-4.579984e-09	-8.379339e+00	-3.039624e+02
1.530000e-06	-1.106666e-06	-4.519266e-09	-8.125559e+00	-3.000488e+02
1.540000e-06	-1.072020e-06	-4.460007e-09	-7.871175e+00	-2.960918e+02
1.550000e-06	-1.037255e-06	-4.399199e-09	-7.615914e+00	-2.920895e+02
1.560000e-06	-1.002380e-06	-4.335873e-09	-7.359847e+00	-2.880404e+02
1.570000e-06	-9.674327e-07	-4.270958e-09	-7.103253e+00	-2.839431e+02
1.580000e-06	-9.324311e-07	-4.205505e-09	-6.846258e+00	-2.797965e+02
1.590000e-06	-8.973640e-07	-4.139164e-09	-6.588783e+00	-2.756002e+02
1.600000e-06	-8.622355e-07	-4.075494e-09	-6.330856e+00	-2.713540e+02
1.610000e-06	-8.270914e-07	-4.010902e-09	-6.072815e+00	-2.670582e+02
1.620000e-06	-7.919462e-07	-3.944475e-09	-5.814765e+00	-2.627136e+02
1.630000e-06	-7.567641e-07	-3.877212e-09	-5.556445e+00	-2.583209e+02
1.640000e-06	-7.215541e-07	-3.809427e-09	-5.297920e+00	-2.538810e+02
1.650000e-06	-6.863171e-07	-3.741539e-09	-5.039197e+00	-2.493946e+02
1.660000e-06	-6.510465e-07	-3.672513e-09	-4.780227e+00	-2.448623e+02
1.670000e-06	-6.157522e-07	-3.602691e-09	-4.521083e+00	-2.402841e+02
1.680000e-06	-5.804203e-07	-3.531772e-09	-4.261663e+00	-2.356596e+02
1.690000e-06	-5.450279e-07	-3.456757e-09	-4.001799e+00	-2.309878e+02
1.700000e-06	-5.095841e-07	-3.381446e-09	-3.741557e+00	-2.262675e+02
1.710000e-06	-4.741151e-07	-3.309300e-09	-3.481130e+00	-2.214969e+02
1.720000e-06	-4.385929e-07	-3.237088e-09	-3.220313e+00	-2.166743e+02
1.730000e-06	-4.030432e-07	-3.160709e-09	-2.959294e+00	-2.117977e+02
1.740000e-06	-3.674793e-07	-3.080200e-09	-2.698170e+00	-2.068652e+02
1.750000e-06	-3.318520e-07	-2.999562e-09	-2.436582e+00	-2.018755e+02
1.760000e-06	-2.961600e-07	-2.919897e-09	-2.174517e+00	-1.968273e+02
1.770000e-06	-2.604551e-07	-2.840271e-09	-1.912359e+00	-1.917198e+02
1.780000e-06	-2.247674e-07	-2.759932e-09	-1.650326e+00	-1.865528e+02
1.790000e-06	-1.890450e-07	-2.682046e-09	-1.388039e+00	-1.813263e+02
1.800000e-06	-1.533288e-07	-2.604682e-09	-1.125797e+00	-1.760405e+02
1.810000e-06	-1.176053e-07	-2.524191e-09	-8.635018e-01	-1.706956e+02
1.820000e-06	-8.184379e-08	-2.439329e-09	-6.009277e-01	-1.652919e+02
1.830000e-06	-4.609347e-08	-2.353282e-09	-3.384355e-01	-1.598291e+02
1.840000e-06	-1.033810e-08	-2.267331e-09	-7.590622e-02	-1.543066e+02
1.850000e-06	2.541396e-08	-2.178872e-09	1.865988e-01	-1.487231e+02
1.860000e-06	6.118371e-08	-2.088988e-09	4.492337e-01	-1.430770e+02
1.870000e-06	9.699204e-08	-2.001065e-09	7.121518e-01	-1.373660e+02
1.880000e-06	1.328038e-07	-1.913365e-09	9.750949e-01	-1.315876e+02
1.890000e-06	1.685893e-07	-1.823297e-09	1.237846e+00	-1.257391e+02
1.900000e-06	2.043319e-07	-1.732907e-09	1.500281e+00	-1.198176e+02
1.910000e-06	2.400396e-07	-1.644246e-09	1.762461e+00	-1.138210e+02
1.920000e-06	2.756780e-07	-1.554855e-09	2.024131e+00	-1.077474e+02
1.930000e-06	3.112415e-07	-1.460883e-09	2.285251e+00	-1.015954e+02
1.940000e-06	3.467700e-07	-1.363337e-09	2.546115e+00	-9.536483e+01
1.950000e-06	3.822584e-07	-1.263964e-09	2.806684e+00	-8.905581e+01
1.960000e-06	4.177161e-07	-1.165507e-09	3.067028e+00	-8.266934e+01
1.970000e-06	4.531627e-07	-1.068556e-09	3.327290e+00	-7.620687e+01
1.980000e-06	4.885862e-07	-9.714112e-10	3.587382e+00	-6.967022e+01
1.990000e-06	5.239625e-07	-8.734922e-10	3.847129e+00	-6.306127e+01
2.000000e-06	5.593041e-07	-7.754636e-10	4.106620e+00	-5.638185e+01
2.010000e-06	5.946039e-07	-6.759130e-10	4.365804e+00	-4.963357e+01
2.020000e-06	6.298553e-07	-5.710774e-10	4.624633e+00	-4.281774e+01
2.030000e-06	6.650853e-07	-4.612930e-10	4.883305e+00	-3.593539e+01
2.040000e-06	7.002962e-07	-3.510793e-10	5.141837e+00	-2.898733e+01
2.050000e-06	7.354628e-07	-2.433157e-10	5.400043e+00	-2.197434e+01
2.060000e-06	7.705846e-07	-1.366445e-10	5.657920e+00	-1.489735e+01
2.070000e-06	8.056990e-07	-3.176998e-11	5.915743e+00	-7.757592e+00
2.080000e-06	8.407966e-07	7.421426e-11	6.173443e+00	-5.568609e-01
2.090000e-06	8.758781e-07	1.816162e-10	6.431025e+00	6.702433e+00
2.100000e-06	9.109272e-07	2.884587e-10	6.688369e+00	1.401720e+01
2.110000e-06	9.459005e-07	3.955287e-10	6.945155e+00	2.138372e+01
2.120000e-06	9.808312e-07	5.068690e-10	7.201630e+00	2.879777e+01
2.130000e-06	1.015739e-06	6.210420e-10	7.457937e+00	3.625486e+01
2.140000e-06	1.050578e-06	7.343962e-10	7.713739e+00	4.375040e+01
2.150000e-06	1.085311e-06	8.482801e-10	7.968761e+00	5.128001e+01
2.160000e-06	1.119907e-06	9.627869e-10	8.222773e+00	5.883964e+01
2.170000e-06	1.154395e-06	1.077204e-09	8.476000e+00	6.642576e+01
2.180000e-06	1.188847e-06	1.188686e-09	8.728957e+00	7.403530e+01
2.190000e-06	1.223238e-06	1.300556e-09	8.981468e+00	8.166562e+01
2.200000e-06	1.257517e-06	1.413650e-09	9.233160e+00	8.931427e+01
2.210000e-06	1.291712e-06	1.527443e-09	9.484236e+00	9.697872e+01
2.220000e-06	1.325816e-06	1.643754e-09	9.734636e+00	1.046561e+02
2.230000e-06	1.359784e-06	1.763080e-09	9.984045e+00	1.123427e+02
2.240000e-06	1.393641e-06	1.882208e-09	1.023264e+01	1.200339e+02
2.250000e-06	1.427417e-06	1.999120e-09	1.048063e+01	1.277241e+02
2.260000e-06	1.461104e-06	2.112103e-09	1.072798e+01	1.354062e+02
2.270000e-06	1.494738e-06	2.222221e-09	1.097493e+01	1.430723e+02
2.280000e-06	1.528352e-06	2.332478e-09	1.122173e+01	1.507134e+02
2.290000e-06	1.561917e-06	2.444986e-09	1.146818e+01	1.583202e+02
2.300000e-06	1.595405e-06	2.559084e-09	1.171406e+01	1.658832e+02
2.310000e-06	1.628785e-06	2.672849e-09	1.195915e+01	1.733934e+02
2.320000e-06	1.662009e-06	2.786530e-09	1.220309e+01	1.808426e+02
2.330000e-06	1.695089e-06	2.896412e-09	1.244598e+01	1.882237e+02
2.340000e-06	1.728052e-06	3.003827e-09	1.268800e+01	1.955310e+02
2.350000e-06	1.760817e-06	3.108934e-09	1.292858e+01	2.027603e+02
2.360000e-06	1.793444e-06	3.213050e-09	1.316814e+01	2.099088e+02
2.370000e-06	1.825987e-06	3.317526e-09	1.340708e+01	2.169749e+02
2.380000e-06	1.858421e-06	3.422756e-09	1.364522e+01	2.239578e+02
2.390000e-06	1.890775e-06	3.527216e-09	1.388278e+01	2.308574e+02
2.400000e-06	1.923033e-06	3.627272e-09	1.411963e+01	2.376737e+02
2.410000e-06	1.955162e-06	3.724905e-09	1.435553e+01	2.444062e+02
2.420000e-06	1.987079e-06	3.822177e-09	1.458988e+01	2.510545e+02
2.430000e-06	2.018763e-06	3.919099e-09	1.482251e+01	2.576172e+02
2.440000e-06	2.050257e-06	4.014293e-09	1.505375e+01	2.640925e+02
2.450000e-06	2.081580e-06	4.110370e-09	1.528374e+01	2.704783e+02
2.460000e-06	2.112770e-06	4.208843e-09	1.551275e+01	2.767719e+02
2.470000e-06	2.143854e-06	4.305651e-09	1.574098e+01	2.829710e+02
2.480000e-06	2.174797e-06	4.395972e-09	1.596818e+01	2.890732e+02
2.490000e-06	2.205555e-06	4.483377e-09	1.619401e+01	2.950767e+02
2.500000e-06	2.236129e-06	4.571545e-09	1.641850e+01	3.009805e+02
2.510000e-06	2.266562e-06	4.659998e-09	1.664195e+01	3.067842e+02
2.520000e-06	2.296898e-06	4.748490e-09	1.686468e+01	3.124881e+02
2.530000e-06	2.327100e-06	4.834967e-09	1.708644e+01	3.180931e+02
2.540000e-06	2.357092e-06	4.919325e-09	1.730665e+01	3.236007e+02
2.550000e-06	2.386799e-06	5.002777e-09	1.752477e+01	3.290125e+02
2.560000e-06	2.416168e-06	5.082127e-09	1.774041e+01	3.343300e+02
2.570000e-06	2.445246e-06	5.159749e-09	1.795391e+01	3.395546e+02
2.580000e-06	2.474144e-06	5.238257e-09	1.816609e+01	3.446873e+02
2.590000e-06	2.502938e-06	5.316351e-09	1.837751e+01	3.497289e+02
2.600000e-06	2.531631e-06	5.395008e-09	1.858818e+01	3.546798e+02
2.610000e-06	2.560172e-06	5.469786e-09	1.879774e+01	3.595400e+02
2.620000e-06	2.588522e-06	5.541656e-09	1.900590e+01	3.643097e+02
2.630000e-06	2.616672e-06	5.613075e-09	1.921258e+01	3.689890e+02
2.640000e-06	2.644655e-06	5.680997e-09	1.941804e+01	3.735785e+02
2.650000e-06	2.672452e-06	5.746896e-09	1.962215e+01	3.780792e+02
2.660000e-06	2.700066e-06	5.813992e-09	1.982489e+01	3.824924e+02
2.670000e-06	2.727507e-06	5.884620e-09	2.002637e+01	3.868202e+02
2.680000e-06	2.754783e-06	5.955995e-09	2.022665e+01	3.910649e+02
2.690000e-06	2.781961e-06	6.024113e-09	2.042620e+01	3.952294e+02
2.700000e-06	2.809008e-06	6.087643e-09	2.062479e+01	3.993163e+02
2.710000e-06	2.835819e-06	6.145010e-09	2.082165e+01	4.033286e+02
2.720000e-06	2.862310e-06	6.198414e-09	2.101615e+01	4.072686e+02
2.730000e-06	2.888432e-06	6.250276e-09	2.120795e+01	4.111383e+02
2.740000e-06	2.914243e-06	6.302124e-09	2.139746e+01	4.149395e+02
2.750000e-06	2.939881e-06	6.358396e-09	2.158571e+01	4.186729e+02
2.760000e-06	2.965422e-06	6.420016e-09	2.177324e+01	4.223391e+02
2.770000e-06	2.990811e-06	6.482114e-09	2.195965e+01	4.259383e+02
2.780000e-06	3.015977e-06	6.538447e-09	2.214443e+01	4.294703e+02
2.790000e-06	3.040939e-06	6.586171e-09	2.232771e+01	4.329348e+02
2.800000e-06	3.065738e-06	6.627426e-09	2.250979e+01	4.363320e+02
2.810000e-06	3.090373e-06	6.668267e-09	2.269067e+01	4.396617e+02
2.820000e-06	3.114768e-06	6.714604e-09	2.286979e+01	4.429246e+02
2.830000e-06	3.138929e-06	6.765758e-09	2.304719e+01	4.461215e+02
2.840000e-06	3.162953e-06	6.818521e-09	2.322359e+01	4.492533e+02
2.850000e-06	3.186849e-06	6.870396e-09	2.339904e+01	4.523216e+02
2.860000e-06	3.210525e-06	6.917779e-09	2.357288e+01	4.553278e+02
2.870000e-06	3.233826e-06	6.956192e-09	2.374396e+01	4.582734e+02
2.880000e-06	3.256731e-06	6.987452e-09	2.391214e+01	4.611598e+02
2.890000e-06	3.279352e-06	7.018481e-09	2.407823e+01	4.639881e+02
2.900000e-06	3.301780e-06	7.054212e-09	2.424290e+01	4.667593e+02
