# Temperatura_=_20.0
# Concentracion g/m^3_=_10000.0
# C_Vs_to_Am_M_A/Vsm_=_65563218390.804596
# pendiente_HvsI_1/m_=_3716.3
# ordenada_HvsI_A/m_=_1297.0
# frecuencia_Hz_=_213065.44284112783

Tiempo_(s)	Campo_(V.s)	Magnetizacion_(V.s)	Campo_(kA/m)	Magnetizacion_(A/m)
0.000000e+00	-2.204241e-06	-4.844209e-09	-1.611994e+01	-3.135945e+02
1.000000e-08	-2.204175e-06	-4.850824e-09	-1.611946e+01	-3.139630e+02
2.000000e-08	-2.203720e-06	-4.852401e-09	-1.611613e+01	-3.142545e+02
3.000000e-08	-2.202779e-06	-4.852757e-09	-1.610925e+01	-3.144645e+02
4.000000e-08	-2.201428e-06	-4.853425e-09	-1.609937e+01	-3.145976e+02
5.000000e-08	-2.199731e-06	-4.851389e-09	-1.608696e+01	-3.146656e+02
6.000000e-08	-2.197616e-06	-4.848917e-09	-1.607149e+01	-3.146829e+02
7.000000e-08	-2.195030e-06	-4.853013e-09	-1.605259e+01	-3.146614e+02
8.000000e-08	-2.192072e-06	-4.852173e-09	-1.603095e+01	-3.146065e+02
9.000000e-08	-2.188889e-06	-4.849671e-09	-1.600767e+01	-3.145158e+02
1.000000e-07	-2.185388e-06	-4.854492e-09	-1.598207e+01	-3.143809e+02
1.100000e-07	-2.181338e-06	-4.859129e-09	-1.595245e+01	-3.141913e+02
1.200000e-07	-2.176805e-06	-4.834886e-09	-1.591930e+01	-3.139383e+02
1.300000e-07	-2.171900e-06	-4.821604e-09	-1.588343e+01	-3.136190e+02
1.400000e-07	-2.166574e-06	-4.829943e-09	-1.584448e+01	-3.132369e+02
1.500000e-07	-2.160731e-06	-4.828116e-09	-1.580175e+01	-3.128009e+02
1.600000e-07	-2.154353e-06	-4.819157e-09	-1.575511e+01	-3.123217e+02
1.700000e-07	-2.147573e-06	-4.801474e-09	-1.570552e+01	-3.118086e+02
1.800000e-07	-2.140432e-06	-4.793830e-09	-1.565330e+01	-3.112664e+02
1.900000e-07	-2.132904e-06	-4.794276e-09	-1.559825e+01	-3.106950e+02
2.000000e-07	-2.125087e-06	-4.780353e-09	-1.554108e+01	-3.100903e+02
2.100000e-07	-2.117049e-06	-4.753724e-09	-1.548229e+01	-3.094470e+02
2.200000e-07	-2.108642e-06	-4.748432e-09	-1.542081e+01	-3.087614e+02
2.300000e-07	-2.099763e-06	-4.745197e-09	-1.535588e+01	-3.080335e+02
2.400000e-07	-2.090525e-06	-4.725294e-09	-1.528832e+01	-3.072668e+02
2.500000e-07	-2.081016e-06	-4.711410e-09	-1.521878e+01	-3.064676e+02
2.600000e-07	-2.071133e-06	-4.707010e-09	-1.514650e+01	-3.056418e+02
2.700000e-07	-2.060770e-06	-4.693324e-09	-1.507072e+01	-3.047932e+02
2.800000e-07	-2.049971e-06	-4.673472e-09	-1.499174e+01	-3.039209e+02
2.900000e-07	-2.038826e-06	-4.660890e-09	-1.491024e+01	-3.030201e+02
3.000000e-07	-2.027353e-06	-4.649322e-09	-1.482634e+01	-3.020823e+02
3.100000e-07	-2.015523e-06	-4.626559e-09	-1.473982e+01	-3.010984e+02
3.200000e-07	-2.003347e-06	-4.605679e-09	-1.465077e+01	-3.000605e+02
3.300000e-07	-1.990866e-06	-4.592671e-09	-1.455950e+01	-2.989641e+02
3.400000e-07	-1.978111e-06	-4.572534e-09	-1.446622e+01	-2.978088e+02
3.500000e-07	-1.965055e-06	-4.548969e-09	-1.437074e+01	-2.965983e+02
3.600000e-07	-1.951540e-06	-4.531031e-09	-1.427190e+01	-2.953394e+02
3.700000e-07	-1.937528e-06	-4.516120e-09	-1.416943e+01	-2.940403e+02
3.800000e-07	-1.923177e-06	-4.492980e-09	-1.406448e+01	-2.927097e+02
3.900000e-07	-1.908544e-06	-4.469056e-09	-1.395747e+01	-2.913548e+02
4.000000e-07	-1.893578e-06	-4.447236e-09	-1.384802e+01	-2.899809e+02
4.100000e-07	-1.878275e-06	-4.422749e-09	-1.373611e+01	-2.885906e+02
4.200000e-07	-1.862672e-06	-4.402100e-09	-1.362200e+01	-2.871836e+02
4.300000e-07	-1.846816e-06	-4.380737e-09	-1.350604e+01	-2.857567e+02
4.400000e-07	-1.830696e-06	-4.354698e-09	-1.338815e+01	-2.843045e+02
4.500000e-07	-1.814200e-06	-4.329786e-09	-1.326752e+01	-2.828209e+02
4.600000e-07	-1.797260e-06	-4.309403e-09	-1.314363e+01	-2.812999e+02
4.700000e-07	-1.779922e-06	-4.288685e-09	-1.301683e+01	-2.797377e+02
4.800000e-07	-1.762325e-06	-4.261262e-09	-1.288814e+01	-2.781331e+02
4.900000e-07	-1.744459e-06	-4.234480e-09	-1.275749e+01	-2.764873e+02
5.000000e-07	-1.726280e-06	-4.208662e-09	-1.262454e+01	-2.748033e+02
5.100000e-07	-1.707796e-06	-4.180746e-09	-1.248937e+01	-2.730838e+02
5.200000e-07	-1.689001e-06	-4.148638e-09	-1.235192e+01	-2.713293e+02
5.300000e-07	-1.669958e-06	-4.114045e-09	-1.221265e+01	-2.695370e+02
5.400000e-07	-1.650632e-06	-4.087133e-09	-1.207132e+01	-2.677013e+02
5.500000e-07	-1.630905e-06	-4.062683e-09	-1.192705e+01	-2.658147e+02
5.600000e-07	-1.610741e-06	-4.036076e-09	-1.177959e+01	-2.638716e+02
5.700000e-07	-1.590169e-06	-4.006466e-09	-1.162915e+01	-2.618704e+02
5.800000e-07	-1.569267e-06	-3.973144e-09	-1.147628e+01	-2.598158e+02
5.900000e-07	-1.548076e-06	-3.937965e-09	-1.132131e+01	-2.577183e+02
6.000000e-07	-1.526622e-06	-3.903981e-09	-1.116441e+01	-2.555926e+02
6.100000e-07	-1.504899e-06	-3.871318e-09	-1.100555e+01	-2.534528e+02
6.200000e-07	-1.482885e-06	-3.836637e-09	-1.084456e+01	-2.513090e+02
6.300000e-07	-1.460650e-06	-3.801885e-09	-1.068195e+01	-2.491632e+02
6.400000e-07	-1.438233e-06	-3.769219e-09	-1.051801e+01	-2.470091e+02
6.500000e-07	-1.415591e-06	-3.736294e-09	-1.035243e+01	-2.448332e+02
6.600000e-07	-1.392606e-06	-3.701886e-09	-1.018434e+01	-2.426195e+02
6.700000e-07	-1.369238e-06	-3.665879e-09	-1.001344e+01	-2.403545e+02
6.800000e-07	-1.345558e-06	-3.630837e-09	-9.840265e+00	-2.380311e+02
6.900000e-07	-1.321645e-06	-3.596953e-09	-9.665389e+00	-2.356506e+02
7.000000e-07	-1.297570e-06	-3.557423e-09	-9.489322e+00	-2.332224e+02
7.100000e-07	-1.273292e-06	-3.515960e-09	-9.311772e+00	-2.307598e+02
7.200000e-07	-1.248795e-06	-3.477050e-09	-9.132621e+00	-2.282755e+02
7.300000e-07	-1.224119e-06	-3.438244e-09	-8.952163e+00	-2.257777e+02
7.400000e-07	-1.199242e-06	-3.398240e-09	-8.770238e+00	-2.232674e+02
7.500000e-07	-1.174131e-06	-3.357707e-09	-8.586594e+00	-2.207387e+02
7.600000e-07	-1.148806e-06	-3.318485e-09	-8.401392e+00	-2.181821e+02
7.700000e-07	-1.123345e-06	-3.277787e-09	-8.215186e+00	-2.155880e+02
7.800000e-07	-1.097756e-06	-3.235437e-09	-8.028051e+00	-2.129503e+02
7.900000e-07	-1.071985e-06	-3.190735e-09	-7.839587e+00	-2.102683e+02
8.000000e-07	-1.046011e-06	-3.146287e-09	-7.649637e+00	-2.075463e+02
8.100000e-07	-1.019819e-06	-3.103485e-09	-7.458088e+00	-2.047907e+02
8.200000e-07	-9.933541e-07	-3.058698e-09	-7.264547e+00	-2.020070e+02
8.300000e-07	-9.666251e-07	-3.013406e-09	-7.069073e+00	-1.991970e+02
8.400000e-07	-9.397096e-07	-2.969260e-09	-6.872236e+00	-1.963578e+02
8.500000e-07	-9.126673e-07	-2.925549e-09	-6.674472e+00	-1.934829e+02
8.600000e-07	-8.855495e-07	-2.881650e-09	-6.476156e+00	-1.905655e+02
8.700000e-07	-8.583470e-07	-2.836640e-09	-6.277220e+00	-1.876010e+02
8.800000e-07	-8.309949e-07	-2.789816e-09	-6.077190e+00	-1.845902e+02
8.900000e-07	-8.035076e-07	-2.740388e-09	-5.876171e+00	-1.815388e+02
9.000000e-07	-7.759135e-07	-2.689180e-09	-5.674371e+00	-1.784561e+02
9.100000e-07	-7.481806e-07	-2.638370e-09	-5.471556e+00	-1.753518e+02
9.200000e-07	-7.202908e-07	-2.589030e-09	-5.267594e+00	-1.722325e+02
9.300000e-07	-6.922477e-07	-2.541917e-09	-5.062511e+00	-1.690997e+02
9.400000e-07	-6.640875e-07	-2.495466e-09	-4.856571e+00	-1.659492e+02
9.500000e-07	-6.358135e-07	-2.448225e-09	-4.649799e+00	-1.627734e+02
9.600000e-07	-6.073882e-07	-2.398060e-09	-4.441920e+00	-1.595633e+02
9.700000e-07	-5.788049e-07	-2.345373e-09	-4.232887e+00	-1.563121e+02
9.800000e-07	-5.501396e-07	-2.292430e-09	-4.023253e+00	-1.530162e+02
9.900000e-07	-5.214433e-07	-2.238005e-09	-3.813393e+00	-1.496755e+02
1.000000e-06	-4.927132e-07	-2.184021e-09	-3.603285e+00	-1.462918e+02
1.010000e-06	-4.639564e-07	-2.130193e-09	-3.392983e+00	-1.428668e+02
1.020000e-06	-4.351592e-07	-2.075770e-09	-3.182385e+00	-1.394003e+02
1.030000e-06	-4.062951e-07	-2.022877e-09	-2.971297e+00	-1.358904e+02
1.040000e-06	-3.773529e-07	-1.970727e-09	-2.759638e+00	-1.323345e+02
1.050000e-06	-3.483238e-07	-1.916902e-09	-2.547344e+00	-1.287316e+02
1.060000e-06	-3.192033e-07	-1.859979e-09	-2.334381e+00	-1.250843e+02
1.070000e-06	-2.900047e-07	-1.801028e-09	-2.120847e+00	-1.213993e+02
1.080000e-06	-2.607371e-07	-1.742037e-09	-1.906810e+00	-1.176861e+02
1.090000e-06	-2.313709e-07	-1.683867e-09	-1.692050e+00	-1.139538e+02
1.100000e-06	-2.019139e-07	-1.625965e-09	-1.476626e+00	-1.102079e+02
1.110000e-06	-1.723993e-07	-1.568301e-09	-1.260782e+00	-1.064478e+02
1.120000e-06	-1.428306e-07	-1.512305e-09	-1.044541e+00	-1.026657e+02
1.130000e-06	-1.132060e-07	-1.457162e-09	-8.278922e-01	-9.884972e+01
1.140000e-06	-8.354170e-08	-1.400645e-09	-6.109529e-01	-9.498744e+01
1.150000e-06	-5.385769e-08	-1.341434e-09	-3.938693e-01	-9.107097e+01
1.160000e-06	-2.416216e-08	-1.278980e-09	-1.767015e-01	-8.710027e+01
1.170000e-06	5.485877e-09	-1.216452e-09	4.011904e-02	-8.308382e+01
1.180000e-06	3.509586e-08	-1.154558e-09	2.566613e-01	-7.903616e+01
1.190000e-06	6.467301e-08	-1.093393e-09	4.729634e-01	-7.497291e+01
1.200000e-06	9.422672e-08	-1.033651e-09	6.890940e-01	-7.090517e+01
1.210000e-06	1.237595e-07	-9.737314e-10	9.050713e-01	-6.683537e+01
1.220000e-06	1.532294e-07	-9.135723e-10	1.120589e+00	-6.275607e+01
1.230000e-06	1.826436e-07	-8.508544e-10	1.335700e+00	-5.865238e+01
1.240000e-06	2.119948e-07	-7.862014e-10	1.550349e+00	-5.450690e+01
1.250000e-06	2.412729e-07	-7.222573e-10	1.764464e+00	-5.030561e+01
1.260000e-06	2.705060e-07	-6.571964e-10	1.978251e+00	-4.604229e+01
1.270000e-06	2.996723e-07	-5.901008e-10	2.191548e+00	-4.172005e+01
1.280000e-06	3.287328e-07	-5.233586e-10	2.404072e+00	-3.734934e+01
1.290000e-06	3.577097e-07	-4.576055e-10	2.615985e+00	-3.294345e+01
1.300000e-06	3.866105e-07	-3.914459e-10	2.827340e+00	-2.851335e+01
1.310000e-06	4.154435e-07	-3.241177e-10	3.038200e+00	-2.406383e+01
1.320000e-06	4.442250e-07	-2.549582e-10	3.248684e+00	-1.959263e+01
1.330000e-06	4.729700e-07	-1.869718e-10	3.458900e+00	-1.509256e+01
1.340000e-06	5.016802e-07	-1.191655e-10	3.668862e+00	-1.055590e+01
1.350000e-06	5.303496e-07	-4.890081e-11	3.878526e+00	-5.978844e+00
1.360000e-06	5.589547e-07	2.280983e-11	4.087719e+00	-1.364273e+00
1.370000e-06	5.874822e-07	9.461696e-11	4.296345e+00	3.278467e+00
1.380000e-06	6.158946e-07	1.649194e-10	4.504129e+00	7.936765e+00
1.390000e-06	6.441800e-07	2.353204e-10	4.710984e+00	1.259958e+01
1.400000e-06	6.723610e-07	3.073077e-10	4.917077e+00	1.726189e+01
1.410000e-06	7.004142e-07	3.797358e-10	5.122233e+00	2.192683e+01
1.420000e-06	7.283443e-07	4.507482e-10	5.326491e+00	2.660448e+01
1.430000e-06	7.561576e-07	5.223527e-10	5.529893e+00	3.130771e+01
1.440000e-06	7.838463e-07	5.961823e-10	5.732385e+00	3.604660e+01
1.450000e-06	8.113927e-07	6.705728e-10	5.933836e+00	4.082368e+01
1.460000e-06	8.387635e-07	7.440574e-10	6.134003e+00	4.563203e+01
1.470000e-06	8.660029e-07	8.156456e-10	6.333208e+00	5.045696e+01
1.480000e-06	8.931485e-07	8.868182e-10	6.531728e+00	5.528083e+01
1.490000e-06	9.202061e-07	9.596445e-10	6.729604e+00	6.008914e+01
1.500000e-06	9.471307e-07	1.034545e-09	6.926508e+00	6.487548e+01
1.510000e-06	9.738536e-07	1.109100e-09	7.121937e+00	6.964349e+01
1.520000e-06	1.000352e-06	1.182054e-09	7.315726e+00	7.440493e+01
1.530000e-06	1.026578e-06	1.254620e-09	7.507521e+00	7.917465e+01
1.540000e-06	1.052512e-06	1.328102e-09	7.697174e+00	8.396444e+01
1.550000e-06	1.078209e-06	1.400596e-09	7.885100e+00	8.877816e+01
1.560000e-06	1.103764e-06	1.471150e-09	8.071992e+00	9.360997e+01
1.570000e-06	1.129204e-06	1.543058e-09	8.258034e+00	9.844643e+01
1.580000e-06	1.154490e-06	1.616029e-09	8.442961e+00	1.032714e+02
1.590000e-06	1.179575e-06	1.689433e-09	8.626408e+00	1.080720e+02
1.600000e-06	1.204448e-06	1.763301e-09	8.808305e+00	1.128426e+02
1.610000e-06	1.229141e-06	1.836505e-09	8.988893e+00	1.175862e+02
1.620000e-06	1.253644e-06	1.909054e-09	9.168085e+00	1.223116e+02
1.630000e-06	1.277921e-06	1.980442e-09	9.345630e+00	1.270285e+02
1.640000e-06	1.301991e-06	2.050020e-09	9.521658e+00	1.317417e+02
1.650000e-06	1.325919e-06	2.118223e-09	9.696645e+00	1.364479e+02
1.660000e-06	1.349668e-06	2.186889e-09	9.870321e+00	1.411354e+02
1.670000e-06	1.373123e-06	2.255496e-09	1.004185e+01	1.457875e+02
1.680000e-06	1.396209e-06	2.324413e-09	1.021069e+01	1.503890e+02
1.690000e-06	1.418934e-06	2.393563e-09	1.037688e+01	1.549309e+02
1.700000e-06	1.441393e-06	2.463260e-09	1.054112e+01	1.594140e+02
1.710000e-06	1.463669e-06	2.533549e-09	1.070403e+01	1.638487e+02
1.720000e-06	1.485743e-06	2.600407e-09	1.086546e+01	1.682495e+02
1.730000e-06	1.507561e-06	2.663393e-09	1.102502e+01	1.726296e+02
1.740000e-06	1.529111e-06	2.724891e-09	1.118261e+01	1.769942e+02
1.750000e-06	1.550410e-06	2.787828e-09	1.133838e+01	1.813372e+02
1.760000e-06	1.571462e-06	2.852246e-09	1.149234e+01	1.856423e+02
1.770000e-06	1.592202e-06	2.915384e-09	1.164401e+01	1.898877e+02
1.780000e-06	1.612577e-06	2.977220e-09	1.179302e+01	1.940533e+02
1.790000e-06	1.632537e-06	3.039411e-09	1.193899e+01	1.981266e+02
1.800000e-06	1.652091e-06	3.100305e-09	1.208199e+01	2.021073e+02
1.810000e-06	1.671334e-06	3.155930e-09	1.222271e+01	2.060059e+02
1.820000e-06	1.690309e-06	3.209347e-09	1.236148e+01	2.098394e+02
1.830000e-06	1.709018e-06	3.264855e-09	1.249831e+01	2.136251e+02
1.840000e-06	1.727433e-06	3.319783e-09	1.263298e+01	2.173734e+02
1.850000e-06	1.745535e-06	3.372597e-09	1.276535e+01	2.210848e+02
1.860000e-06	1.763333e-06	3.424618e-09	1.289551e+01	2.247497e+02
1.870000e-06	1.780895e-06	3.477811e-09	1.302395e+01	2.283523e+02
1.880000e-06	1.798274e-06	3.532953e-09	1.315104e+01	2.318764e+02
1.890000e-06	1.815315e-06	3.584499e-09	1.327567e+01	2.353107e+02
1.900000e-06	1.831865e-06	3.629998e-09	1.339671e+01	2.386518e+02
1.910000e-06	1.847992e-06	3.674707e-09	1.351464e+01	2.419038e+02
1.920000e-06	1.863830e-06	3.720270e-09	1.363047e+01	2.450747e+02
1.930000e-06	1.879389e-06	3.764010e-09	1.374425e+01	2.481721e+02
1.940000e-06	1.894632e-06	3.806238e-09	1.385573e+01	2.511989e+02
1.950000e-06	1.909560e-06	3.848224e-09	1.396490e+01	2.541517e+02
1.960000e-06	1.924168e-06	3.889972e-09	1.407173e+01	2.570223e+02
1.970000e-06	1.938492e-06	3.930902e-09	1.417648e+01	2.598017e+02
1.980000e-06	1.952525e-06	3.969346e-09	1.427911e+01	2.624841e+02
1.990000e-06	1.966148e-06	4.005702e-09	1.437873e+01	2.650706e+02
2.000000e-06	1.979312e-06	4.042262e-09	1.447500e+01	2.675694e+02
2.010000e-06	1.992100e-06	4.078223e-09	1.456853e+01	2.699933e+02
2.020000e-06	2.004590e-06	4.112129e-09	1.465986e+01	2.723555e+02
2.030000e-06	2.016756e-06	4.144344e-09	1.474884e+01	2.746650e+02
2.040000e-06	2.028585e-06	4.175876e-09	1.483534e+01	2.769234e+02
2.050000e-06	2.040105e-06	4.208092e-09	1.491959e+01	2.791251e+02
2.060000e-06	2.051334e-06	4.239046e-09	1.500171e+01	2.812596e+02
2.070000e-06	2.062247e-06	4.268620e-09	1.508152e+01	2.833162e+02
2.080000e-06	2.072731e-06	4.297181e-09	1.515819e+01	2.852881e+02
2.090000e-06	2.082733e-06	4.325260e-09	1.523134e+01	2.871752e+02
2.100000e-06	2.092326e-06	4.352836e-09	1.530149e+01	2.889836e+02
2.110000e-06	2.101588e-06	4.377784e-09	1.536923e+01	2.907226e+02
2.120000e-06	2.110518e-06	4.399929e-09	1.543453e+01	2.924010e+02
2.130000e-06	2.119072e-06	4.420795e-09	1.549709e+01	2.940234e+02
2.140000e-06	2.127291e-06	4.442719e-09	1.555720e+01	2.955883e+02
2.150000e-06	2.135228e-06	4.465908e-09	1.561524e+01	2.970895e+02
2.160000e-06	2.142807e-06	4.488917e-09	1.567067e+01	2.985188e+02
2.170000e-06	2.149966e-06	4.510657e-09	1.572302e+01	2.998707e+02
2.180000e-06	2.156707e-06	4.530497e-09	1.577232e+01	3.011449e+02
2.190000e-06	2.163058e-06	4.548619e-09	1.581877e+01	3.023474e+02
2.200000e-06	2.169023e-06	4.565669e-09	1.586239e+01	3.034882e+02
2.210000e-06	2.174598e-06	4.580078e-09	1.590316e+01	3.045777e+02
2.220000e-06	2.179787e-06	4.593052e-09	1.594111e+01	3.056228e+02
2.230000e-06	2.184604e-06	4.607508e-09	1.597633e+01	3.066238e+02
2.240000e-06	2.188996e-06	4.623332e-09	1.600846e+01	3.075744e+02
2.250000e-06	2.192826e-06	4.639078e-09	1.603647e+01	3.084651e+02
2.260000e-06	2.196171e-06	4.653413e-09	1.606093e+01	3.092869e+02
2.270000e-06	2.199175e-06	4.666019e-09	1.608290e+01	3.100361e+02
2.280000e-06	2.201829e-06	4.677314e-09	1.610230e+01	3.107166e+02
2.290000e-06	2.204108e-06	4.685864e-09	1.611897e+01	3.113397e+02
2.300000e-06	2.206030e-06	4.692427e-09	1.613302e+01	3.119201e+02
2.310000e-06	2.207643e-06	4.700769e-09	1.614482e+01	3.124714e+02
2.320000e-06	2.208900e-06	4.711131e-09	1.615401e+01	3.130003e+02
2.330000e-06	2.209699e-06	4.720930e-09	1.615986e+01	3.135045e+02
2.340000e-06	2.210019e-06	4.728722e-09	1.616220e+01	3.139729e+02
2.350000e-06	2.209928e-06	4.734100e-09	1.616153e+01	3.143889e+02
2.360000e-06	2.209505e-06	4.738023e-09	1.615844e+01	3.147364e+02
2.370000e-06	2.208749e-06	4.743156e-09	1.615291e+01	3.150046e+02
2.380000e-06	2.207626e-06	4.748372e-09	1.614470e+01	3.151917e+02
2.390000e-06	2.206180e-06	4.753750e-09	1.613413e+01	3.153048e+02
2.400000e-06	2.204435e-06	4.756776e-09	1.612136e+01	3.153572e+02
2.410000e-06	2.202224e-06	4.750796e-09	1.610519e+01	3.153630e+02
2.420000e-06	2.199462e-06	4.750888e-09	1.608499e+01	3.153323e+02
2.430000e-06	2.196327e-06	4.750289e-09	1.606207e+01	3.152683e+02
2.440000e-06	2.192875e-06	4.739771e-09	1.603682e+01	3.151665e+02
2.450000e-06	2.188938e-06	4.738572e-09	1.600803e+01	3.150173e+02
2.460000e-06	2.184576e-06	4.755737e-09	1.597613e+01	3.148104e+02
2.470000e-06	2.180023e-06	4.755023e-09	1.594283e+01	3.145386e+02
2.480000e-06	2.175174e-06	4.730310e-09	1.590737e+01	3.142009e+02
2.490000e-06	2.169674e-06	4.725566e-09	1.586715e+01	3.138027e+02
2.500000e-06	2.163561e-06	4.736085e-09	1.582244e+01	3.133536e+02
2.510000e-06	2.157174e-06	4.728959e-09	1.577574e+01	3.128646e+02
2.520000e-06	2.150514e-06	4.701809e-09	1.572703e+01	3.123435e+02
2.530000e-06	2.143362e-06	4.702109e-09	1.567473e+01	3.117939e+02
2.540000e-06	2.135764e-06	4.714329e-09	1.561916e+01	3.112140e+02
2.550000e-06	2.127946e-06	4.698086e-09	1.556199e+01	3.105994e+02
2.560000e-06	2.119841e-06	4.673332e-09	1.550271e+01	3.099447e+02
2.570000e-06	2.111186e-06	4.674301e-09	1.543942e+01	3.092473e+02
2.580000e-06	2.101979e-06	4.674992e-09	1.537209e+01	3.085083e+02
2.590000e-06	2.092427e-06	4.647325e-09	1.530223e+01	3.077322e+02
2.600000e-06	2.082569e-06	4.634143e-09	1.523014e+01	3.069255e+02
2.610000e-06	2.072358e-06	4.638245e-09	1.515546e+01	3.060938e+02
2.620000e-06	2.061824e-06	4.621562e-09	1.507842e+01	3.052394e+02
2.630000e-06	2.050980e-06	4.595379e-09	1.499912e+01	3.043603e+02
2.640000e-06	2.039825e-06	4.590857e-09	1.491754e+01	3.034504e+02
2.650000e-06	2.028329e-06	4.587581e-09	1.483347e+01	3.025008e+02
2.660000e-06	2.016397e-06	4.562970e-09	1.474621e+01	3.015025e+02
2.670000e-06	2.003958e-06	4.546776e-09	1.465524e+01	3.004484e+02
2.680000e-06	1.991139e-06	4.544518e-09	1.456150e+01	2.993353e+02
2.690000e-06	1.978047e-06	4.523379e-09	1.446576e+01	2.981639e+02
2.700000e-06	1.964602e-06	4.495619e-09	1.436743e+01	2.969392e+02
2.710000e-06	1.950792e-06	4.482191e-09	1.426643e+01	2.956684e+02
2.720000e-06	1.936714e-06	4.468057e-09	1.416348e+01	2.943600e+02
2.730000e-06	1.922365e-06	4.445910e-09	1.405855e+01	2.930225e+02
2.740000e-06	1.907662e-06	4.429540e-09	1.395102e+01	2.916625e+02
2.750000e-06	1.892534e-06	4.413455e-09	1.384039e+01	2.902846e+02
2.760000e-06	1.876980e-06	4.387244e-09	1.372663e+01	2.888906e+02
2.770000e-06	1.861083e-06	4.365691e-09	1.361038e+01	2.874791e+02
2.780000e-06	1.844891e-06	4.348683e-09	1.349196e+01	2.860463e+02
2.790000e-06	1.828412e-06	4.327216e-09	1.337145e+01	2.845864e+02
2.800000e-06	1.811649e-06	4.305985e-09	1.324886e+01	2.830932e+02
2.810000e-06	1.794564e-06	4.285176e-09	1.312392e+01	2.815612e+02
2.820000e-06	1.777193e-06	4.264355e-09	1.299688e+01	2.799874e+02
2.830000e-06	1.759612e-06	4.239361e-09	1.286831e+01	2.783712e+02
2.840000e-06	1.741807e-06	4.209971e-09	1.273809e+01	2.767147e+02
2.850000e-06	1.723654e-06	4.184102e-09	1.260534e+01	2.750209e+02
2.860000e-06	1.705125e-06	4.163763e-09	1.246983e+01	2.732920e+02
2.870000e-06	1.686321e-06	4.138219e-09	1.233231e+01	2.715277e+02
2.880000e-06	1.667243e-06	4.107637e-09	1.219279e+01	2.697242e+02
2.890000e-06	1.647829e-06	4.083303e-09	1.205082e+01	2.678750e+02
2.900000e-06	1.628077e-06	4.056547e-09	1.190637e+01	2.659730e+02
2.910000e-06	1.608039e-06	4.023251e-09	1.175983e+01	2.640135e+02
2.920000e-06	1.587731e-06	3.992966e-09	1.161131e+01	2.619965e+02
2.930000e-06	1.567125e-06	3.961305e-09	1.146062e+01	2.599288e+02
2.940000e-06	1.546236e-06	3.927762e-09	1.130785e+01	2.578223e+02
