# Temperatura_=_20.0
# Concentracion g/m^3_=_10000.0
# C_Vs_to_Am_M_A/Vsm_=_65563218390.804596
# pendiente_HvsI_1/m_=_3716.3
# ordenada_HvsI_A/m_=_1297.0
# frecuencia_Hz_=_213067.52133262836

Tiempo_(s)	Campo_(V.s)	Magnetizacion_(V.s)	Campo_(kA/m)	Magnetizacion_(A/m)
0.000000e+00	-2.208951e-06	-4.879897e-09	-1.611807e+01	-3.153216e+02
1.000000e-08	-2.208850e-06	-4.886425e-09	-1.611733e+01	-3.156163e+02
2.000000e-08	-2.208364e-06	-4.889008e-09	-1.611378e+01	-3.158516e+02
3.000000e-08	-2.207380e-06	-4.889040e-09	-1.610661e+01	-3.160359e+02
4.000000e-08	-2.205978e-06	-4.889321e-09	-1.609637e+01	-3.161772e+02
5.000000e-08	-2.204243e-06	-4.885042e-09	-1.608371e+01	-3.162787e+02
6.000000e-08	-2.202099e-06	-4.874736e-09	-1.606807e+01	-3.163377e+02
7.000000e-08	-2.199488e-06	-4.908401e-09	-1.604902e+01	-3.163467e+02
8.000000e-08	-2.196508e-06	-4.890140e-09	-1.602728e+01	-3.162968e+02
9.000000e-08	-2.193317e-06	-4.861022e-09	-1.600399e+01	-3.161823e+02
1.000000e-07	-2.189763e-06	-4.895439e-09	-1.597806e+01	-3.160032e+02
1.100000e-07	-2.185609e-06	-4.945599e-09	-1.594775e+01	-3.157661e+02
1.200000e-07	-2.181023e-06	-4.834160e-09	-1.591428e+01	-3.154811e+02
1.300000e-07	-2.176107e-06	-4.826746e-09	-1.587842e+01	-3.151579e+02
1.400000e-07	-2.170720e-06	-4.886416e-09	-1.583911e+01	-3.148018e+02
1.500000e-07	-2.164793e-06	-4.858490e-09	-1.579586e+01	-3.144113e+02
1.600000e-07	-2.158316e-06	-4.864618e-09	-1.574860e+01	-3.139793e+02
1.700000e-07	-2.151474e-06	-4.804650e-09	-1.569868e+01	-3.134960e+02
1.800000e-07	-2.144338e-06	-4.830153e-09	-1.564660e+01	-3.129543e+02
1.900000e-07	-2.136784e-06	-4.857721e-09	-1.559148e+01	-3.123531e+02
2.000000e-07	-2.128923e-06	-4.820367e-09	-1.553412e+01	-3.116988e+02
2.100000e-07	-2.120872e-06	-4.759459e-09	-1.547538e+01	-3.110033e+02
2.200000e-07	-2.112457e-06	-4.789792e-09	-1.541398e+01	-3.102796e+02
2.300000e-07	-2.103574e-06	-4.796237e-09	-1.534916e+01	-3.095370e+02
2.400000e-07	-2.094328e-06	-4.734763e-09	-1.528170e+01	-3.087773e+02
2.500000e-07	-2.084812e-06	-4.747507e-09	-1.521226e+01	-3.079944e+02
2.600000e-07	-2.074916e-06	-4.753251e-09	-1.514005e+01	-3.071771e+02
2.700000e-07	-2.064464e-06	-4.716364e-09	-1.506378e+01	-3.063141e+02
2.800000e-07	-2.053551e-06	-4.686578e-09	-1.498416e+01	-3.053986e+02
2.900000e-07	-2.042341e-06	-4.699136e-09	-1.490237e+01	-3.044315e+02
3.000000e-07	-2.030823e-06	-4.693772e-09	-1.481832e+01	-3.034210e+02
3.100000e-07	-2.018948e-06	-4.631460e-09	-1.473167e+01	-3.023786e+02
3.200000e-07	-2.006734e-06	-4.626047e-09	-1.464255e+01	-3.013142e+02
3.300000e-07	-1.994220e-06	-4.642834e-09	-1.455124e+01	-3.002313e+02
3.400000e-07	-1.981425e-06	-4.603580e-09	-1.445788e+01	-2.991247e+02
3.500000e-07	-1.968254e-06	-4.562622e-09	-1.436177e+01	-2.979824e+02
3.600000e-07	-1.954568e-06	-4.556891e-09	-1.426191e+01	-2.967902e+02
3.700000e-07	-1.940443e-06	-4.554374e-09	-1.415884e+01	-2.955382e+02
3.800000e-07	-1.926078e-06	-4.513568e-09	-1.405403e+01	-2.942245e+02
3.900000e-07	-1.911430e-06	-4.494482e-09	-1.394715e+01	-2.928575e+02
4.000000e-07	-1.896403e-06	-4.479082e-09	-1.383749e+01	-2.914529e+02
4.100000e-07	-1.881038e-06	-4.442424e-09	-1.372538e+01	-2.900275e+02
4.200000e-07	-1.865378e-06	-4.434360e-09	-1.361111e+01	-2.885936e+02
4.300000e-07	-1.849472e-06	-4.411042e-09	-1.349505e+01	-2.871533e+02
4.400000e-07	-1.833319e-06	-4.376690e-09	-1.337719e+01	-2.856983e+02
4.500000e-07	-1.816755e-06	-4.349102e-09	-1.325633e+01	-2.842131e+02
4.600000e-07	-1.799692e-06	-4.332471e-09	-1.313183e+01	-2.826809e+02
4.700000e-07	-1.782274e-06	-4.314765e-09	-1.300473e+01	-2.810901e+02
4.800000e-07	-1.764628e-06	-4.278310e-09	-1.287597e+01	-2.794391e+02
4.900000e-07	-1.746720e-06	-4.252199e-09	-1.274531e+01	-2.777357e+02
5.000000e-07	-1.728478e-06	-4.222503e-09	-1.261219e+01	-2.759935e+02
5.100000e-07	-1.709899e-06	-4.200399e-09	-1.247663e+01	-2.742252e+02
5.200000e-07	-1.691032e-06	-4.172106e-09	-1.233897e+01	-2.724367e+02
5.300000e-07	-1.671936e-06	-4.125681e-09	-1.219962e+01	-2.706233e+02
5.400000e-07	-1.652572e-06	-4.100418e-09	-1.205833e+01	-2.687720e+02
5.500000e-07	-1.632739e-06	-4.078340e-09	-1.191362e+01	-2.668657e+02
5.600000e-07	-1.612397e-06	-4.050915e-09	-1.176519e+01	-2.648918e+02
5.700000e-07	-1.591710e-06	-4.016388e-09	-1.161424e+01	-2.628473e+02
5.800000e-07	-1.570741e-06	-3.978335e-09	-1.146124e+01	-2.607426e+02
5.900000e-07	-1.549475e-06	-3.949187e-09	-1.130606e+01	-2.585979e+02
6.000000e-07	-1.527944e-06	-3.916648e-09	-1.114896e+01	-2.564373e+02
6.100000e-07	-1.506136e-06	-3.882990e-09	-1.098983e+01	-2.542796e+02
6.200000e-07	-1.484042e-06	-3.840675e-09	-1.082862e+01	-2.521319e+02
6.300000e-07	-1.461763e-06	-3.806232e-09	-1.066606e+01	-2.499863e+02
6.400000e-07	-1.439319e-06	-3.782412e-09	-1.050229e+01	-2.478236e+02
6.500000e-07	-1.416602e-06	-3.745672e-09	-1.033653e+01	-2.456198e+02
6.600000e-07	-1.393490e-06	-3.708382e-09	-1.016789e+01	-2.433557e+02
6.700000e-07	-1.369968e-06	-3.671019e-09	-9.996251e+00	-2.410237e+02
6.800000e-07	-1.346171e-06	-3.640173e-09	-9.822614e+00	-2.386305e+02
6.900000e-07	-1.322238e-06	-3.607305e-09	-9.647981e+00	-2.361943e+02
7.000000e-07	-1.298134e-06	-3.561203e-09	-9.472105e+00	-2.337371e+02
7.100000e-07	-1.273789e-06	-3.519073e-09	-9.294466e+00	-2.312760e+02
7.200000e-07	-1.249224e-06	-3.481191e-09	-9.115217e+00	-2.288164e+02
7.300000e-07	-1.224473e-06	-3.448176e-09	-8.934616e+00	-2.263499e+02
7.400000e-07	-1.199522e-06	-3.408474e-09	-8.752558e+00	-2.238572e+02
7.500000e-07	-1.174341e-06	-3.364725e-09	-8.568819e+00	-2.213164e+02
7.600000e-07	-1.148969e-06	-3.329838e-09	-8.383689e+00	-2.187108e+02
7.700000e-07	-1.123461e-06	-3.291652e-09	-8.197565e+00	-2.160356e+02
7.800000e-07	-1.097806e-06	-3.249267e-09	-8.010368e+00	-2.133000e+02
7.900000e-07	-1.071990e-06	-3.198529e-09	-7.822000e+00	-2.105225e+02
8.000000e-07	-1.045929e-06	-3.149582e-09	-7.631833e+00	-2.077245e+02
8.100000e-07	-1.019611e-06	-3.108717e-09	-7.439801e+00	-2.049217e+02
8.200000e-07	-9.930706e-07	-3.063337e-09	-7.246144e+00	-2.021183e+02
8.300000e-07	-9.662754e-07	-3.017927e-09	-7.050628e+00	-1.993061e+02
8.400000e-07	-9.393033e-07	-2.974027e-09	-6.853821e+00	-1.964682e+02
8.500000e-07	-9.122386e-07	-2.935808e-09	-6.656337e+00	-1.935864e+02
8.600000e-07	-8.850896e-07	-2.895488e-09	-6.458239e+00	-1.906484e+02
8.700000e-07	-8.578347e-07	-2.845543e-09	-6.259368e+00	-1.876523e+02
8.800000e-07	-8.304599e-07	-2.793570e-09	-6.059622e+00	-1.846077e+02
8.900000e-07	-8.029271e-07	-2.740709e-09	-5.858723e+00	-1.815309e+02
9.000000e-07	-7.752424e-07	-2.692428e-09	-5.656716e+00	-1.784381e+02
9.100000e-07	-7.474212e-07	-2.643495e-09	-5.453713e+00	-1.753394e+02
9.200000e-07	-7.194662e-07	-2.591432e-09	-5.249734e+00	-1.722343e+02
9.300000e-07	-6.914004e-07	-2.546287e-09	-5.044946e+00	-1.691123e+02
9.400000e-07	-6.631871e-07	-2.503005e-09	-4.839082e+00	-1.659577e+02
9.500000e-07	-6.348249e-07	-2.458392e-09	-4.632131e+00	-1.627554e+02
9.600000e-07	-6.063491e-07	-2.406284e-09	-4.424351e+00	-1.594968e+02
9.700000e-07	-5.777564e-07	-2.350735e-09	-4.215719e+00	-1.561828e+02
9.800000e-07	-5.490895e-07	-2.297541e-09	-4.006544e+00	-1.528222e+02
9.900000e-07	-5.203974e-07	-2.240933e-09	-3.797187e+00	-1.494279e+02
1.000000e-06	-4.916732e-07	-2.185865e-09	-3.587595e+00	-1.460106e+02
1.010000e-06	-4.629057e-07	-2.129795e-09	-3.377687e+00	-1.425749e+02
1.020000e-06	-4.340933e-07	-2.077989e-09	-3.167451e+00	-1.391175e+02
1.030000e-06	-4.051955e-07	-2.029229e-09	-2.956593e+00	-1.356294e+02
1.040000e-06	-3.761961e-07	-1.975662e-09	-2.744993e+00	-1.321002e+02
1.050000e-06	-3.471114e-07	-1.920650e-09	-2.532770e+00	-1.285232e+02
1.060000e-06	-3.179090e-07	-1.863294e-09	-2.319689e+00	-1.248980e+02
1.070000e-06	-2.885717e-07	-1.806246e-09	-2.105623e+00	-1.212305e+02
1.080000e-06	-2.590979e-07	-1.746828e-09	-1.890561e+00	-1.175300e+02
1.090000e-06	-2.295660e-07	-1.685601e-09	-1.675076e+00	-1.138041e+02
1.100000e-06	-2.000114e-07	-1.625326e-09	-1.459425e+00	-1.100549e+02
1.110000e-06	-1.703930e-07	-1.566333e-09	-1.243308e+00	-1.062773e+02
1.120000e-06	-1.407239e-07	-1.511941e-09	-1.026821e+00	-1.024612e+02
1.130000e-06	-1.110013e-07	-1.454909e-09	-8.099436e-01	-9.859547e+01
1.140000e-06	-8.121580e-08	-1.394627e-09	-5.926078e-01	-9.467407e+01
1.150000e-06	-5.138388e-08	-1.333126e-09	-3.749331e-01	-9.069922e+01
1.160000e-06	-2.158184e-08	-1.270120e-09	-1.574764e-01	-8.668194e+01
1.170000e-06	8.199929e-09	-1.205984e-09	5.983247e-02	-8.263865e+01
1.180000e-06	3.801953e-08	-1.139197e-09	2.774174e-01	-7.858519e+01
1.190000e-06	6.782174e-08	-1.075837e-09	4.948753e-01	-7.453067e+01
1.200000e-06	9.754047e-08	-1.017660e-09	7.117242e-01	-7.047359e+01
1.210000e-06	1.271963e-07	-9.603120e-10	9.281141e-01	-6.640205e+01
1.220000e-06	1.568258e-07	-8.994110e-10	1.144312e+00	-6.229794e+01
1.230000e-06	1.864037e-07	-8.340095e-10	1.360133e+00	-5.814356e+01
1.240000e-06	2.158736e-07	-7.689621e-10	1.575166e+00	-5.392820e+01
1.250000e-06	2.452629e-07	-7.058266e-10	1.789611e+00	-4.965185e+01
1.260000e-06	2.746018e-07	-6.391019e-10	2.003689e+00	-4.532471e+01
1.270000e-06	3.038218e-07	-5.695005e-10	2.216898e+00	-4.096262e+01
1.280000e-06	3.329339e-07	-5.004908e-10	2.429321e+00	-3.658034e+01
1.290000e-06	3.619683e-07	-4.353105e-10	2.641176e+00	-3.218549e+01
1.300000e-06	3.909152e-07	-3.709160e-10	2.852394e+00	-2.777554e+01
1.310000e-06	4.197775e-07	-3.050699e-10	3.062993e+00	-2.333934e+01
1.320000e-06	4.485750e-07	-2.387239e-10	3.273120e+00	-1.886235e+01
1.330000e-06	4.773340e-07	-1.709406e-10	3.482966e+00	-1.433366e+01
1.340000e-06	5.060460e-07	-1.022888e-10	3.692469e+00	-9.751700e+00
1.350000e-06	5.347152e-07	-2.827109e-11	3.901659e+00	-5.126276e+00
1.360000e-06	5.633338e-07	4.658126e-11	4.110481e+00	-4.759822e-01
1.370000e-06	5.918979e-07	1.186115e-10	4.318905e+00	4.178198e+00
1.380000e-06	6.203959e-07	1.878555e-10	4.526846e+00	8.820574e+00
1.390000e-06	6.487726e-07	2.559020e-10	4.733903e+00	1.344672e+01
1.400000e-06	6.770096e-07	3.260446e-10	4.939940e+00	1.806533e+01
1.410000e-06	7.051006e-07	3.959037e-10	5.144912e+00	2.269519e+01
1.420000e-06	7.330583e-07	4.663224e-10	5.348911e+00	2.735837e+01
1.430000e-06	7.609169e-07	5.382996e-10	5.552187e+00	3.207216e+01
1.440000e-06	7.886617e-07	6.121325e-10	5.754633e+00	3.684292e+01
1.450000e-06	8.162323e-07	6.864942e-10	5.955807e+00	4.166397e+01
1.460000e-06	8.436303e-07	7.579955e-10	6.155722e+00	4.651823e+01
1.470000e-06	8.708823e-07	8.283307e-10	6.354573e+00	5.138443e+01
1.480000e-06	8.980163e-07	9.000265e-10	6.552561e+00	5.624429e+01
1.490000e-06	9.250810e-07	9.750163e-10	6.750045e+00	6.108800e+01
1.500000e-06	9.520637e-07	1.053116e-09	6.946929e+00	6.591587e+01
1.510000e-06	9.788955e-07	1.129982e-09	7.142713e+00	7.073601e+01
1.520000e-06	1.005472e-06	1.203952e-09	7.336633e+00	7.555906e+01
1.530000e-06	1.031749e-06	1.275776e-09	7.528368e+00	8.039259e+01
1.540000e-06	1.057729e-06	1.348769e-09	7.717940e+00	8.523731e+01
1.550000e-06	1.083441e-06	1.421940e-09	7.905553e+00	9.008676e+01
1.560000e-06	1.108992e-06	1.492922e-09	8.091989e+00	9.493024e+01
1.570000e-06	1.134437e-06	1.564424e-09	8.277655e+00	9.975747e+01
1.580000e-06	1.159732e-06	1.636759e-09	8.462224e+00	1.045629e+02
1.590000e-06	1.184811e-06	1.710900e-09	8.645218e+00	1.093475e+02
1.600000e-06	1.209675e-06	1.786605e-09	8.826642e+00	1.141175e+02
1.610000e-06	1.234379e-06	1.861324e-09	9.006899e+00	1.188800e+02
1.620000e-06	1.258902e-06	1.935024e-09	9.185839e+00	1.236387e+02
1.630000e-06	1.283191e-06	2.006268e-09	9.363070e+00	1.283905e+02
1.640000e-06	1.307271e-06	2.075280e-09	9.538771e+00	1.331250e+02
1.650000e-06	1.331202e-06	2.142403e-09	9.713392e+00	1.378282e+02
1.660000e-06	1.354992e-06	2.208805e-09	9.886980e+00	1.424873e+02
1.670000e-06	1.378531e-06	2.278345e-09	1.005874e+01	1.470957e+02
1.680000e-06	1.401704e-06	2.350324e-09	1.022782e+01	1.516559e+02
1.690000e-06	1.424480e-06	2.423078e-09	1.039401e+01	1.561780e+02
1.700000e-06	1.446933e-06	2.493612e-09	1.055785e+01	1.606753e+02
1.710000e-06	1.469186e-06	2.561525e-09	1.072022e+01	1.651579e+02
1.720000e-06	1.491263e-06	2.627938e-09	1.088131e+01	1.696272e+02
1.730000e-06	1.513110e-06	2.691767e-09	1.104072e+01	1.740737e+02
1.740000e-06	1.534699e-06	2.753867e-09	1.119825e+01	1.784794e+02
1.750000e-06	1.556047e-06	2.817433e-09	1.135402e+01	1.828230e+02
1.760000e-06	1.577134e-06	2.882901e-09	1.150788e+01	1.870877e+02
1.770000e-06	1.597917e-06	2.947587e-09	1.165953e+01	1.912666e+02
1.780000e-06	1.618364e-06	3.009602e-09	1.180873e+01	1.953651e+02
1.790000e-06	1.638387e-06	3.069916e-09	1.195483e+01	1.993978e+02
1.800000e-06	1.657916e-06	3.129769e-09	1.209732e+01	2.033826e+02
1.810000e-06	1.677102e-06	3.188110e-09	1.223732e+01	2.073325e+02
1.820000e-06	1.696068e-06	3.244509e-09	1.237571e+01	2.112505e+02
1.830000e-06	1.714767e-06	3.299347e-09	1.251215e+01	2.151273e+02
1.840000e-06	1.733170e-06	3.354474e-09	1.264643e+01	2.189448e+02
1.850000e-06	1.751264e-06	3.410011e-09	1.277846e+01	2.226828e+02
1.860000e-06	1.769059e-06	3.464109e-09	1.290830e+01	2.263266e+02
1.870000e-06	1.786630e-06	3.515973e-09	1.303652e+01	2.298722e+02
1.880000e-06	1.803991e-06	3.567340e-09	1.316319e+01	2.333279e+02
1.890000e-06	1.820994e-06	3.617182e-09	1.328726e+01	2.367100e+02
1.900000e-06	1.837531e-06	3.664488e-09	1.340792e+01	2.400362e+02
1.910000e-06	1.853669e-06	3.710975e-09	1.352568e+01	2.433180e+02
1.920000e-06	1.869502e-06	3.756699e-09	1.364120e+01	2.465552e+02
1.930000e-06	1.885030e-06	3.801370e-09	1.375451e+01	2.497361e+02
1.940000e-06	1.900245e-06	3.844809e-09	1.386553e+01	2.528414e+02
1.950000e-06	1.915156e-06	3.886475e-09	1.397433e+01	2.558509e+02
1.960000e-06	1.929756e-06	3.927208e-09	1.408086e+01	2.587516e+02
1.970000e-06	1.944096e-06	3.967492e-09	1.418550e+01	2.615415e+02
1.980000e-06	1.958159e-06	4.006009e-09	1.428811e+01	2.642297e+02
1.990000e-06	1.971805e-06	4.043223e-09	1.438768e+01	2.668323e+02
2.000000e-06	1.984951e-06	4.078818e-09	1.448360e+01	2.693653e+02
2.010000e-06	1.997718e-06	4.113746e-09	1.457676e+01	2.718385e+02
2.020000e-06	2.010199e-06	4.148263e-09	1.466783e+01	2.742518e+02
2.030000e-06	2.022366e-06	4.180471e-09	1.475661e+01	2.765965e+02
2.040000e-06	2.034207e-06	4.210860e-09	1.484301e+01	2.788602e+02
2.050000e-06	2.045688e-06	4.241103e-09	1.492678e+01	2.810330e+02
2.060000e-06	2.056887e-06	4.270631e-09	1.500850e+01	2.831134e+02
2.070000e-06	2.067842e-06	4.297898e-09	1.508843e+01	2.851095e+02
2.080000e-06	2.078370e-06	4.324777e-09	1.516526e+01	2.870373e+02
2.090000e-06	2.088369e-06	4.353668e-09	1.523822e+01	2.889140e+02
2.100000e-06	2.097957e-06	4.382077e-09	1.530818e+01	2.907514e+02
2.110000e-06	2.107197e-06	4.407935e-09	1.537560e+01	2.925506e+02
2.120000e-06	2.116064e-06	4.429710e-09	1.544030e+01	2.943015e+02
2.130000e-06	2.124580e-06	4.449580e-09	1.550243e+01	2.959860e+02
2.140000e-06	2.132764e-06	4.471560e-09	1.556215e+01	2.975853e+02
2.150000e-06	2.140670e-06	4.494557e-09	1.561984e+01	2.990871e+02
2.160000e-06	2.148251e-06	4.517325e-09	1.567515e+01	3.004912e+02
2.170000e-06	2.155412e-06	4.538961e-09	1.572741e+01	3.018096e+02
2.180000e-06	2.162177e-06	4.559915e-09	1.577677e+01	3.030627e+02
2.190000e-06	2.168553e-06	4.579102e-09	1.582329e+01	3.042715e+02
2.200000e-06	2.174509e-06	4.594545e-09	1.586675e+01	3.054506e+02
2.210000e-06	2.180062e-06	4.607142e-09	1.590727e+01	3.066022e+02
2.220000e-06	2.185231e-06	4.619882e-09	1.594499e+01	3.077164e+02
2.230000e-06	2.190022e-06	4.635079e-09	1.597995e+01	3.087749e+02
2.240000e-06	2.194380e-06	4.652233e-09	1.601175e+01	3.097581e+02
2.250000e-06	2.198182e-06	4.668627e-09	1.603949e+01	3.106527e+02
2.260000e-06	2.201507e-06	4.682734e-09	1.606375e+01	3.114561e+02
2.270000e-06	2.204510e-06	4.696191e-09	1.608566e+01	3.121774e+02
2.280000e-06	2.207163e-06	4.707329e-09	1.610502e+01	3.128329e+02
2.290000e-06	2.209396e-06	4.714072e-09	1.612132e+01	3.134404e+02
2.300000e-06	2.211251e-06	4.718803e-09	1.613485e+01	3.140128e+02
2.310000e-06	2.212804e-06	4.725745e-09	1.614618e+01	3.145539e+02
2.320000e-06	2.214013e-06	4.735664e-09	1.615500e+01	3.150588e+02
2.330000e-06	2.214749e-06	4.745523e-09	1.616037e+01	3.155170e+02
2.340000e-06	2.214999e-06	4.753785e-09	1.616220e+01	3.159178e+02
2.350000e-06	2.214869e-06	4.759985e-09	1.616125e+01	3.162549e+02
2.360000e-06	2.214393e-06	4.762554e-09	1.615778e+01	3.165290e+02
2.370000e-06	2.213563e-06	4.764067e-09	1.615172e+01	3.167465e+02
2.380000e-06	2.212377e-06	4.767160e-09	1.614306e+01	3.169160e+02
2.390000e-06	2.210873e-06	4.773755e-09	1.613209e+01	3.170443e+02
2.400000e-06	2.209072e-06	4.788958e-09	1.611895e+01	3.171325e+02
2.410000e-06	2.206823e-06	4.763849e-09	1.610254e+01	3.171761e+02
2.420000e-06	2.203975e-06	4.780963e-09	1.608176e+01	3.171664e+02
2.430000e-06	2.200738e-06	4.798641e-09	1.605814e+01	3.170953e+02
2.440000e-06	2.197245e-06	4.742718e-09	1.603265e+01	3.169588e+02
2.450000e-06	2.193235e-06	4.738732e-09	1.600339e+01	3.167594e+02
2.460000e-06	2.188770e-06	4.825266e-09	1.597081e+01	3.165053e+02
2.470000e-06	2.184176e-06	4.795875e-09	1.593729e+01	3.162070e+02
2.480000e-06	2.179310e-06	4.723250e-09	1.590179e+01	3.158730e+02
2.490000e-06	2.173732e-06	4.733723e-09	1.586108e+01	3.155064e+02
2.500000e-06	2.167500e-06	4.806081e-09	1.581561e+01	3.151034e+02
2.510000e-06	2.161036e-06	4.780433e-09	1.576844e+01	3.146555e+02
2.520000e-06	2.154336e-06	4.685568e-09	1.571956e+01	3.141533e+02
2.530000e-06	2.147105e-06	4.732825e-09	1.566679e+01	3.135915e+02
2.540000e-06	2.139399e-06	4.781860e-09	1.561057e+01	3.129717e+02
2.550000e-06	2.131521e-06	4.728331e-09	1.555308e+01	3.123025e+02
2.560000e-06	2.123412e-06	4.658654e-09	1.549391e+01	3.115967e+02
2.570000e-06	2.114713e-06	4.720662e-09	1.543044e+01	3.108667e+02
2.580000e-06	2.105435e-06	4.730060e-09	1.536274e+01	3.101193e+02
2.590000e-06	2.095847e-06	4.641522e-09	1.529278e+01	3.093535e+02
2.600000e-06	2.085946e-06	4.647370e-09	1.522054e+01	3.085610e+02
2.610000e-06	2.075663e-06	4.715562e-09	1.514550e+01	3.077299e+02
2.620000e-06	2.065077e-06	4.655093e-09	1.506826e+01	3.068499e+02
2.630000e-06	2.054197e-06	4.578891e-09	1.498887e+01	3.059168e+02
2.640000e-06	2.042979e-06	4.626448e-09	1.490702e+01	3.049343e+02
2.650000e-06	2.031425e-06	4.651753e-09	1.482271e+01	3.039123e+02
2.660000e-06	2.019432e-06	4.557929e-09	1.473520e+01	3.028623e+02
2.670000e-06	2.006934e-06	4.534072e-09	1.464401e+01	3.017925e+02
2.680000e-06	1.994083e-06	4.598251e-09	1.455024e+01	3.007033e+02
2.690000e-06	1.980948e-06	4.557121e-09	1.445439e+01	2.995868e+02
2.700000e-06	1.967421e-06	4.494697e-09	1.435569e+01	2.984296e+02
2.710000e-06	1.953503e-06	4.509117e-09	1.425414e+01	2.972183e+02
2.720000e-06	1.939332e-06	4.514123e-09	1.415074e+01	2.959453e+02
2.730000e-06	1.924935e-06	4.459855e-09	1.404569e+01	2.946126e+02
2.740000e-06	1.910147e-06	4.441928e-09	1.393778e+01	2.932314e+02
2.750000e-06	1.894913e-06	4.443160e-09	1.382662e+01	2.918187e+02
2.760000e-06	1.879288e-06	4.399382e-09	1.371261e+01	2.903904e+02
2.770000e-06	1.863315e-06	4.379123e-09	1.359606e+01	2.889555e+02
2.780000e-06	1.847048e-06	4.377668e-09	1.347736e+01	2.875126e+02
2.790000e-06	1.830515e-06	4.349895e-09	1.335673e+01	2.860500e+02
2.800000e-06	1.813706e-06	4.324427e-09	1.323408e+01	2.845511e+02
2.810000e-06	1.796588e-06	4.302313e-09	1.310918e+01	2.830002e+02
2.820000e-06	1.779171e-06	4.281813e-09	1.298209e+01	2.813891e+02
2.830000e-06	1.761537e-06	4.258018e-09	1.285342e+01	2.797194e+02
2.840000e-06	1.743677e-06	4.224247e-09	1.272310e+01	2.780018e+02
2.850000e-06	1.725451e-06	4.192583e-09	1.259011e+01	2.762503e+02
2.860000e-06	1.706853e-06	4.180029e-09	1.245440e+01	2.744757e+02
2.870000e-06	1.687972e-06	4.162402e-09	1.231664e+01	2.726805e+02
2.880000e-06	1.668820e-06	4.115064e-09	1.217689e+01	2.708567e+02
2.890000e-06	1.649317e-06	4.089804e-09	1.203458e+01	2.689890e+02
2.900000e-06	1.629467e-06	4.071997e-09	1.188974e+01	2.670611e+02
2.910000e-06	1.609341e-06	4.034033e-09	1.174289e+01	2.650632e+02
2.920000e-06	1.588931e-06	4.005087e-09	1.159396e+01	2.629968e+02
2.930000e-06	1.568230e-06	3.970940e-09	1.144292e+01	2.608764e+02
2.940000e-06	1.547226e-06	3.934488e-09	1.128965e+01	2.587245e+02
