# Temperatura_=_20.0
# Concentracion g/m^3_=_10000.0
# C_Vs_to_Am_M_A/Vsm_=_65563218390.804596
# pendiente_HvsI_1/m_=_3716.3
# ordenada_HvsI_A/m_=_1297.0
# frecuencia_Hz_=_213068.4567205196

Tiempo_(s)	Campo_(V.s)	Magnetizacion_(V.s)	Campo_(kA/m)	Magnetizacion_(A/m)
0.000000e+00	-2.204574e-06	-4.820384e-09	-1.611910e+01	-3.120358e+02
1.000000e-08	-2.204582e-06	-4.826569e-09	-1.611916e+01	-3.123230e+02
2.000000e-08	-2.204277e-06	-4.829587e-09	-1.611693e+01	-3.125541e+02
3.000000e-08	-2.203480e-06	-4.830014e-09	-1.611110e+01	-3.127422e+02
4.000000e-08	-2.202196e-06	-4.829911e-09	-1.610172e+01	-3.128991e+02
5.000000e-08	-2.200557e-06	-4.828280e-09	-1.608973e+01	-3.130298e+02
6.000000e-08	-2.198544e-06	-4.823400e-09	-1.607502e+01	-3.131302e+02
7.000000e-08	-2.196072e-06	-4.836213e-09	-1.605694e+01	-3.131883e+02
8.000000e-08	-2.193169e-06	-4.830687e-09	-1.603571e+01	-3.131874e+02
9.000000e-08	-2.190012e-06	-4.820092e-09	-1.601263e+01	-3.131125e+02
1.000000e-07	-2.186599e-06	-4.833622e-09	-1.598768e+01	-3.129553e+02
1.100000e-07	-2.182662e-06	-4.852619e-09	-1.595889e+01	-3.127172e+02
1.200000e-07	-2.178204e-06	-4.804383e-09	-1.592629e+01	-3.124094e+02
1.300000e-07	-2.173371e-06	-4.788778e-09	-1.589095e+01	-3.120487e+02
1.400000e-07	-2.168131e-06	-4.809885e-09	-1.585264e+01	-3.116519e+02
1.500000e-07	-2.162413e-06	-4.791845e-09	-1.581084e+01	-3.112306e+02
1.600000e-07	-2.156147e-06	-4.804556e-09	-1.576502e+01	-3.107870e+02
1.700000e-07	-2.149421e-06	-4.788714e-09	-1.571584e+01	-3.103148e+02
1.800000e-07	-2.142345e-06	-4.759138e-09	-1.566411e+01	-3.098017e+02
1.900000e-07	-2.134915e-06	-4.766758e-09	-1.560978e+01	-3.092352e+02
2.000000e-07	-2.127154e-06	-4.783029e-09	-1.555303e+01	-3.086078e+02
2.100000e-07	-2.119139e-06	-4.742777e-09	-1.549443e+01	-3.079205e+02
2.200000e-07	-2.110829e-06	-4.705666e-09	-1.543367e+01	-3.071830e+02
2.300000e-07	-2.102092e-06	-4.719152e-09	-1.536979e+01	-3.064106e+02
2.400000e-07	-2.092945e-06	-4.715234e-09	-1.530291e+01	-3.056195e+02
2.500000e-07	-2.083505e-06	-4.683358e-09	-1.523389e+01	-3.048206e+02
2.600000e-07	-2.073737e-06	-4.667979e-09	-1.516247e+01	-3.040164e+02
2.700000e-07	-2.063482e-06	-4.671500e-09	-1.508749e+01	-3.032000e+02
2.800000e-07	-2.052729e-06	-4.655835e-09	-1.500886e+01	-3.023573e+02
2.900000e-07	-2.041622e-06	-4.624257e-09	-1.492766e+01	-3.014720e+02
3.000000e-07	-2.030215e-06	-4.624122e-09	-1.484425e+01	-3.005303e+02
3.100000e-07	-2.018449e-06	-4.612397e-09	-1.475822e+01	-2.995258e+02
3.200000e-07	-2.006349e-06	-4.580428e-09	-1.466975e+01	-2.984604e+02
3.300000e-07	-1.993941e-06	-4.570095e-09	-1.457903e+01	-2.973433e+02
3.400000e-07	-1.981240e-06	-4.560404e-09	-1.448616e+01	-2.961879e+02
3.500000e-07	-1.968238e-06	-4.531281e-09	-1.439110e+01	-2.950071e+02
3.600000e-07	-1.954819e-06	-4.500460e-09	-1.429298e+01	-2.938094e+02
3.700000e-07	-1.940922e-06	-4.494691e-09	-1.419137e+01	-2.925966e+02
3.800000e-07	-1.926656e-06	-4.478988e-09	-1.408706e+01	-2.913644e+02
3.900000e-07	-1.912108e-06	-4.448665e-09	-1.398069e+01	-2.901037e+02
4.000000e-07	-1.897245e-06	-4.429166e-09	-1.387201e+01	-2.888048e+02
4.100000e-07	-1.882049e-06	-4.406730e-09	-1.376091e+01	-2.874602e+02
4.200000e-07	-1.866543e-06	-4.385299e-09	-1.364753e+01	-2.860669e+02
4.300000e-07	-1.850746e-06	-4.362994e-09	-1.353203e+01	-2.846277e+02
4.400000e-07	-1.834697e-06	-4.335889e-09	-1.341468e+01	-2.831497e+02
4.500000e-07	-1.818342e-06	-4.312784e-09	-1.329510e+01	-2.816418e+02
4.600000e-07	-1.801532e-06	-4.292304e-09	-1.317220e+01	-2.801125e+02
4.700000e-07	-1.784292e-06	-4.274758e-09	-1.304614e+01	-2.785663e+02
4.800000e-07	-1.766751e-06	-4.248451e-09	-1.291789e+01	-2.770030e+02
4.900000e-07	-1.748948e-06	-4.220295e-09	-1.278772e+01	-2.754167e+02
5.000000e-07	-1.730855e-06	-4.192780e-09	-1.265543e+01	-2.737973e+02
5.100000e-07	-1.712444e-06	-4.165362e-09	-1.252081e+01	-2.721329e+02
5.200000e-07	-1.693728e-06	-4.140755e-09	-1.238397e+01	-2.704125e+02
5.300000e-07	-1.674744e-06	-4.106951e-09	-1.224517e+01	-2.686291e+02
5.400000e-07	-1.655494e-06	-4.078431e-09	-1.210441e+01	-2.667810e+02
5.500000e-07	-1.635872e-06	-4.054435e-09	-1.196095e+01	-2.648727e+02
5.600000e-07	-1.615837e-06	-4.025179e-09	-1.181446e+01	-2.629139e+02
5.700000e-07	-1.595398e-06	-3.993031e-09	-1.166501e+01	-2.609165e+02
5.800000e-07	-1.574562e-06	-3.958770e-09	-1.151267e+01	-2.588919e+02
5.900000e-07	-1.553401e-06	-3.927432e-09	-1.135794e+01	-2.568476e+02
6.000000e-07	-1.531956e-06	-3.894452e-09	-1.120115e+01	-2.547859e+02
6.100000e-07	-1.510256e-06	-3.862648e-09	-1.104248e+01	-2.527029e+02
6.200000e-07	-1.488297e-06	-3.829852e-09	-1.088193e+01	-2.505909e+02
6.300000e-07	-1.466118e-06	-3.792715e-09	-1.071976e+01	-2.484410e+02
6.400000e-07	-1.443755e-06	-3.761970e-09	-1.055625e+01	-2.462469e+02
6.500000e-07	-1.421160e-06	-3.729082e-09	-1.039104e+01	-2.440073e+02
6.600000e-07	-1.398236e-06	-3.691826e-09	-1.022343e+01	-2.417269e+02
6.700000e-07	-1.374941e-06	-3.654304e-09	-1.005310e+01	-2.394152e+02
6.800000e-07	-1.351336e-06	-3.618666e-09	-9.880511e+00	-2.370835e+02
6.900000e-07	-1.327488e-06	-3.585450e-09	-9.706142e+00	-2.347406e+02
7.000000e-07	-1.303446e-06	-3.547798e-09	-9.530358e+00	-2.323899e+02
7.100000e-07	-1.279207e-06	-3.511067e-09	-9.353134e+00	-2.300275e+02
7.200000e-07	-1.254760e-06	-3.474935e-09	-9.174380e+00	-2.276432e+02
7.300000e-07	-1.230111e-06	-3.437980e-09	-8.994158e+00	-2.252231e+02
7.400000e-07	-1.205286e-06	-3.399627e-09	-8.812649e+00	-2.227545e+02
7.500000e-07	-1.180253e-06	-3.357110e-09	-8.629611e+00	-2.202293e+02
7.600000e-07	-1.154973e-06	-3.316263e-09	-8.444772e+00	-2.176464e+02
7.700000e-07	-1.129516e-06	-3.275716e-09	-8.258641e+00	-2.150116e+02
7.800000e-07	-1.103941e-06	-3.234578e-09	-8.071641e+00	-2.123350e+02
7.900000e-07	-1.078195e-06	-3.192450e-09	-7.883398e+00	-2.096274e+02
8.000000e-07	-1.052261e-06	-3.147845e-09	-7.693777e+00	-2.068966e+02
8.100000e-07	-1.026122e-06	-3.104567e-09	-7.502655e+00	-2.041451e+02
8.200000e-07	-9.997444e-07	-3.059461e-09	-7.309794e+00	-2.013704e+02
8.300000e-07	-9.730844e-07	-3.012801e-09	-7.114866e+00	-1.985668e+02
8.400000e-07	-9.461851e-07	-2.967017e-09	-6.918187e+00	-1.957291e+02
8.500000e-07	-9.191649e-07	-2.923686e-09	-6.720624e+00	-1.928552e+02
8.600000e-07	-8.920583e-07	-2.882293e-09	-6.522430e+00	-1.899477e+02
8.700000e-07	-8.648797e-07	-2.837256e-09	-6.323709e+00	-1.870127e+02
8.800000e-07	-8.376018e-07	-2.790814e-09	-6.124262e+00	-1.840574e+02
8.900000e-07	-8.101819e-07	-2.743630e-09	-5.923778e+00	-1.810863e+02
9.000000e-07	-7.826091e-07	-2.695928e-09	-5.722174e+00	-1.780990e+02
9.100000e-07	-7.548858e-07	-2.647120e-09	-5.519471e+00	-1.750890e+02
9.200000e-07	-7.270297e-07	-2.595902e-09	-5.315796e+00	-1.720459e+02
9.300000e-07	-6.990392e-07	-2.547519e-09	-5.111139e+00	-1.689586e+02
9.400000e-07	-6.708941e-07	-2.500544e-09	-4.905351e+00	-1.658194e+02
9.500000e-07	-6.426255e-07	-2.452655e-09	-4.698662e+00	-1.626267e+02
9.600000e-07	-6.142432e-07	-2.402849e-09	-4.491139e+00	-1.593854e+02
9.700000e-07	-5.857405e-07	-2.351072e-09	-4.282738e+00	-1.561050e+02
9.800000e-07	-5.571461e-07	-2.299363e-09	-4.073665e+00	-1.527952e+02
9.900000e-07	-5.284805e-07	-2.244001e-09	-3.864071e+00	-1.494621e+02
1.000000e-06	-4.997625e-07	-2.188039e-09	-3.654095e+00	-1.461055e+02
1.010000e-06	-4.710012e-07	-2.134647e-09	-3.443802e+00	-1.427186e+02
1.020000e-06	-4.421843e-07	-2.082823e-09	-3.233103e+00	-1.392909e+02
1.030000e-06	-4.133250e-07	-2.031739e-09	-3.022093e+00	-1.358124e+02
1.040000e-06	-3.843935e-07	-1.977015e-09	-2.810556e+00	-1.322784e+02
1.050000e-06	-3.553727e-07	-1.920580e-09	-2.598365e+00	-1.286912e+02
1.060000e-06	-3.262837e-07	-1.863565e-09	-2.385677e+00	-1.250605e+02
1.070000e-06	-2.971101e-07	-1.805462e-09	-2.172369e+00	-1.213995e+02
1.080000e-06	-2.678435e-07	-1.747195e-09	-1.958381e+00	-1.177205e+02
1.090000e-06	-2.384998e-07	-1.689981e-09	-1.743831e+00	-1.140297e+02
1.100000e-06	-2.090611e-07	-1.634233e-09	-1.528585e+00	-1.103254e+02
1.110000e-06	-1.795388e-07	-1.576978e-09	-1.312727e+00	-1.065981e+02
1.120000e-06	-1.499902e-07	-1.518821e-09	-1.096678e+00	-1.028351e+02
1.130000e-06	-1.204026e-07	-1.460085e-09	-8.803431e-01	-9.902499e+01
1.140000e-06	-9.075993e-08	-1.400795e-09	-6.636060e-01	-9.516290e+01
1.150000e-06	-6.108402e-08	-1.341133e-09	-4.466258e-01	-9.125262e+01
1.160000e-06	-3.140804e-08	-1.279225e-09	-2.296450e-01	-8.730544e+01
1.170000e-06	-1.736619e-09	-1.217031e-09	-1.269757e-02	-8.333603e+01
1.180000e-06	2.793066e-08	-1.156531e-09	2.042196e-01	-7.935678e+01
1.190000e-06	5.757762e-08	-1.096859e-09	4.209881e-01	-7.537303e+01
1.200000e-06	8.718130e-08	-1.036520e-09	6.374403e-01	-7.138089e+01
1.210000e-06	1.167266e-07	-9.755864e-10	8.534656e-01	-6.736867e+01
1.220000e-06	1.462056e-07	-9.140701e-10	1.069006e+00	-6.332130e+01
1.230000e-06	1.756377e-07	-8.519301e-10	1.284204e+00	-5.922587e+01
1.240000e-06	2.050422e-07	-7.885838e-10	1.499199e+00	-5.507632e+01
1.250000e-06	2.343604e-07	-7.237850e-10	1.713564e+00	-5.087511e+01
1.260000e-06	2.635566e-07	-6.588433e-10	1.927037e+00	-4.663145e+01
1.270000e-06	2.926512e-07	-5.942587e-10	2.139767e+00	-4.235676e+01
1.280000e-06	3.216652e-07	-5.288479e-10	2.351908e+00	-3.805926e+01
1.290000e-06	3.506372e-07	-4.621667e-10	2.563741e+00	-3.374003e+01
1.300000e-06	3.795605e-07	-3.948853e-10	2.775218e+00	-2.939219e+01
1.310000e-06	4.084230e-07	-3.291113e-10	2.986252e+00	-2.500378e+01
1.320000e-06	4.372352e-07	-2.647444e-10	3.196916e+00	-2.056303e+01
1.330000e-06	4.660132e-07	-1.980310e-10	3.407332e+00	-1.606412e+01
1.340000e-06	4.947579e-07	-1.287769e-10	3.617503e+00	-1.151083e+01
1.350000e-06	5.234430e-07	-5.694705e-11	3.827239e+00	-6.916610e+00
1.360000e-06	5.520706e-07	1.559431e-11	4.036554e+00	-2.300735e+00
1.370000e-06	5.806310e-07	8.669697e-11	4.245378e+00	2.318105e+00
1.380000e-06	6.091049e-07	1.575573e-10	4.453570e+00	6.928285e+00
1.390000e-06	6.374581e-07	2.269014e-10	4.660879e+00	1.152932e+01
1.400000e-06	6.656802e-07	2.953248e-10	4.867230e+00	1.613187e+01
1.410000e-06	6.937762e-07	3.636182e-10	5.072658e+00	2.075350e+01
1.420000e-06	7.217665e-07	4.333321e-10	5.277314e+00	2.541185e+01
1.430000e-06	7.496542e-07	5.062873e-10	5.481219e+00	3.011763e+01
1.440000e-06	7.773840e-07	5.805274e-10	5.683970e+00	3.487021e+01
1.450000e-06	8.049687e-07	6.548789e-10	5.885660e+00	3.965746e+01
1.460000e-06	8.323988e-07	7.272832e-10	6.086220e+00	4.445980e+01
1.470000e-06	8.596591e-07	7.986073e-10	6.285538e+00	4.925710e+01
1.480000e-06	8.868287e-07	8.699075e-10	6.484193e+00	5.403555e+01
1.490000e-06	9.139343e-07	9.407628e-10	6.682380e+00	5.879209e+01
1.500000e-06	9.409162e-07	1.013174e-09	6.879663e+00	6.353470e+01
1.510000e-06	9.677076e-07	1.087305e-09	7.075552e+00	6.827850e+01
1.520000e-06	9.942683e-07	1.161375e-09	7.269755e+00	7.303935e+01
1.530000e-06	1.020546e-06	1.234366e-09	7.461889e+00	7.782739e+01
1.540000e-06	1.046528e-06	1.308035e-09	7.651857e+00	8.264302e+01
1.550000e-06	1.072264e-06	1.382390e-09	7.840030e+00	8.747676e+01
1.560000e-06	1.097841e-06	1.456103e-09	8.027047e+00	9.231293e+01
1.570000e-06	1.123304e-06	1.527838e-09	8.213220e+00	9.713533e+01
1.580000e-06	1.148609e-06	1.597949e-09	8.398241e+00	1.019329e+02
1.590000e-06	1.173701e-06	1.668966e-09	8.581704e+00	1.067026e+02
1.600000e-06	1.198587e-06	1.741500e-09	8.763662e+00	1.114492e+02
1.610000e-06	1.223310e-06	1.815235e-09	8.944430e+00	1.161814e+02
1.620000e-06	1.247846e-06	1.888708e-09	9.123830e+00	1.209067e+02
1.630000e-06	1.272188e-06	1.961024e-09	9.301810e+00	1.256267e+02
1.640000e-06	1.296343e-06	2.032385e-09	9.478427e+00	1.303358e+02
1.650000e-06	1.320315e-06	2.102145e-09	9.653702e+00	1.350224e+02
1.660000e-06	1.344128e-06	2.169758e-09	9.827808e+00	1.396737e+02
1.670000e-06	1.367720e-06	2.236932e-09	1.000031e+01	1.442804e+02
1.680000e-06	1.390952e-06	2.305521e-09	1.017018e+01	1.488408e+02
1.690000e-06	1.413800e-06	2.376338e-09	1.033723e+01	1.533611e+02
1.700000e-06	1.436336e-06	2.447946e-09	1.050200e+01	1.578525e+02
1.710000e-06	1.458645e-06	2.517460e-09	1.066512e+01	1.623259e+02
1.720000e-06	1.480775e-06	2.583385e-09	1.082693e+01	1.667862e+02
1.730000e-06	1.502660e-06	2.646873e-09	1.098695e+01	1.712285e+02
1.740000e-06	1.524286e-06	2.710072e-09	1.114507e+01	1.756384e+02
1.750000e-06	1.545657e-06	2.774131e-09	1.130133e+01	1.799959e+02
1.760000e-06	1.566760e-06	2.839578e-09	1.145562e+01	1.842814e+02
1.770000e-06	1.587565e-06	2.904254e-09	1.160774e+01	1.884821e+02
1.780000e-06	1.608043e-06	2.965946e-09	1.175747e+01	1.925960e+02
1.790000e-06	1.628138e-06	3.026490e-09	1.190440e+01	1.966314e+02
1.800000e-06	1.647786e-06	3.086142e-09	1.204806e+01	2.006032e+02
1.810000e-06	1.667081e-06	3.143664e-09	1.218913e+01	2.045260e+02
1.820000e-06	1.686128e-06	3.198911e-09	1.232840e+01	2.084080e+02
1.830000e-06	1.704891e-06	3.252299e-09	1.246559e+01	2.122475e+02
1.840000e-06	1.723357e-06	3.305812e-09	1.260061e+01	2.160323e+02
1.850000e-06	1.741545e-06	3.360030e-09	1.273359e+01	2.197453e+02
1.860000e-06	1.759446e-06	3.413685e-09	1.286448e+01	2.233699e+02
1.870000e-06	1.777095e-06	3.466649e-09	1.299352e+01	2.268971e+02
1.880000e-06	1.794510e-06	3.518719e-09	1.312086e+01	2.303285e+02
1.890000e-06	1.811592e-06	3.568850e-09	1.324575e+01	2.336763e+02
1.900000e-06	1.828199e-06	3.615373e-09	1.336717e+01	2.369583e+02
1.910000e-06	1.844378e-06	3.659228e-09	1.348547e+01	2.401908e+02
1.920000e-06	1.860265e-06	3.703509e-09	1.360163e+01	2.433830e+02
1.930000e-06	1.875886e-06	3.749168e-09	1.371585e+01	2.465321e+02
1.940000e-06	1.891203e-06	3.794373e-09	1.382784e+01	2.496245e+02
1.950000e-06	1.906188e-06	3.837361e-09	1.393740e+01	2.526394e+02
1.960000e-06	1.920853e-06	3.879327e-09	1.404463e+01	2.555558e+02
1.970000e-06	1.935233e-06	3.921279e-09	1.414977e+01	2.583593e+02
1.980000e-06	1.949337e-06	3.960373e-09	1.425290e+01	2.610456e+02
1.990000e-06	1.963063e-06	3.994848e-09	1.435325e+01	2.636214e+02
2.000000e-06	1.976314e-06	4.027188e-09	1.445014e+01	2.661015e+02
2.010000e-06	1.989185e-06	4.059971e-09	1.454425e+01	2.685028e+02
2.020000e-06	2.001766e-06	4.094052e-09	1.463624e+01	2.708393e+02
2.030000e-06	2.014031e-06	4.127467e-09	1.472592e+01	2.731185e+02
2.040000e-06	2.025967e-06	4.159628e-09	1.481319e+01	2.753402e+02
2.050000e-06	2.037584e-06	4.192202e-09	1.489813e+01	2.774992e+02
2.060000e-06	2.048903e-06	4.223377e-09	1.498089e+01	2.795884e+02
2.070000e-06	2.059932e-06	4.251589e-09	1.506153e+01	2.816030e+02
2.080000e-06	2.070551e-06	4.277966e-09	1.513917e+01	2.835426e+02
2.090000e-06	2.080666e-06	4.303825e-09	1.521313e+01	2.854106e+02
2.100000e-06	2.090358e-06	4.330368e-09	1.528399e+01	2.872132e+02
2.110000e-06	2.099698e-06	4.356613e-09	1.535229e+01	2.889560e+02
2.120000e-06	2.108684e-06	4.380879e-09	1.541799e+01	2.906421e+02
2.130000e-06	2.117317e-06	4.403217e-09	1.548111e+01	2.922711e+02
2.140000e-06	2.125611e-06	4.425167e-09	1.554175e+01	2.938404e+02
2.150000e-06	2.133591e-06	4.446502e-09	1.560010e+01	2.953470e+02
2.160000e-06	2.141257e-06	4.466704e-09	1.565615e+01	2.967894e+02
2.170000e-06	2.148563e-06	4.486513e-09	1.570957e+01	2.981688e+02
2.180000e-06	2.155477e-06	4.506644e-09	1.576012e+01	2.994885e+02
2.190000e-06	2.161981e-06	4.527323e-09	1.580768e+01	3.007519e+02
2.200000e-06	2.168071e-06	4.545976e-09	1.585221e+01	3.019603e+02
2.210000e-06	2.173756e-06	4.561433e-09	1.589377e+01	3.031116e+02
2.220000e-06	2.179035e-06	4.575510e-09	1.593237e+01	3.042002e+02
2.230000e-06	2.183934e-06	4.589365e-09	1.596819e+01	3.052192e+02
2.240000e-06	2.188434e-06	4.603178e-09	1.600109e+01	3.061633e+02
2.250000e-06	2.192430e-06	4.617581e-09	1.603031e+01	3.070317e+02
2.260000e-06	2.195912e-06	4.633003e-09	1.605577e+01	3.078295e+02
2.270000e-06	2.198998e-06	4.647027e-09	1.607833e+01	3.085666e+02
2.280000e-06	2.201736e-06	4.657792e-09	1.609835e+01	3.092547e+02
2.290000e-06	2.204097e-06	4.665782e-09	1.611562e+01	3.099035e+02
2.300000e-06	2.206098e-06	4.672161e-09	1.613025e+01	3.105169e+02
2.310000e-06	2.207785e-06	4.679601e-09	1.614258e+01	3.110921e+02
2.320000e-06	2.209137e-06	4.687089e-09	1.615246e+01	3.116201e+02
2.330000e-06	2.210050e-06	4.695051e-09	1.615914e+01	3.120899e+02
2.340000e-06	2.210468e-06	4.703973e-09	1.616220e+01	3.124929e+02
2.350000e-06	2.210463e-06	4.711450e-09	1.616216e+01	3.128266e+02
2.360000e-06	2.210112e-06	4.716431e-09	1.615959e+01	3.130966e+02
2.370000e-06	2.209416e-06	4.720712e-09	1.615451e+01	3.133142e+02
2.380000e-06	2.208368e-06	4.725402e-09	1.614684e+01	3.134928e+02
2.390000e-06	2.206999e-06	4.730029e-09	1.613683e+01	3.136426e+02
2.400000e-06	2.205307e-06	4.736777e-09	1.612446e+01	3.137658e+02
2.410000e-06	2.203200e-06	4.727849e-09	1.610906e+01	3.138560e+02
2.420000e-06	2.200559e-06	4.733390e-09	1.608974e+01	3.138990e+02
2.430000e-06	2.197465e-06	4.739959e-09	1.606713e+01	3.138782e+02
2.440000e-06	2.194070e-06	4.720355e-09	1.604230e+01	3.137799e+02
2.450000e-06	2.190240e-06	4.712471e-09	1.601430e+01	3.135986e+02
2.460000e-06	2.185949e-06	4.745724e-09	1.598292e+01	3.133390e+02
2.470000e-06	2.181413e-06	4.745758e-09	1.594976e+01	3.130142e+02
2.480000e-06	2.176646e-06	4.704227e-09	1.591490e+01	3.126419e+02
2.490000e-06	2.171343e-06	4.692126e-09	1.587613e+01	3.122378e+02
2.500000e-06	2.165382e-06	4.719286e-09	1.583254e+01	3.118108e+02
2.510000e-06	2.159042e-06	4.722551e-09	1.578619e+01	3.113605e+02
2.520000e-06	2.152445e-06	4.669064e-09	1.573795e+01	3.108783e+02
2.530000e-06	2.145419e-06	4.659571e-09	1.568658e+01	3.103512e+02
2.540000e-06	2.137923e-06	4.692109e-09	1.563178e+01	3.097678e+02
2.550000e-06	2.130133e-06	4.688078e-09	1.557482e+01	3.091227e+02
2.560000e-06	2.122098e-06	4.640758e-09	1.551607e+01	3.084198e+02
2.570000e-06	2.113591e-06	4.637162e-09	1.545387e+01	3.076709e+02
2.580000e-06	2.104506e-06	4.656523e-09	1.538744e+01	3.068923e+02
2.590000e-06	2.095029e-06	4.628903e-09	1.531815e+01	3.060988e+02
2.600000e-06	2.085252e-06	4.601883e-09	1.524666e+01	3.052994e+02
2.610000e-06	2.075111e-06	4.612563e-09	1.517251e+01	3.044935e+02
2.620000e-06	2.064630e-06	4.604821e-09	1.509588e+01	3.036717e+02
2.630000e-06	2.053845e-06	4.571890e-09	1.501702e+01	3.028188e+02
2.640000e-06	2.042728e-06	4.564055e-09	1.493574e+01	3.019186e+02
2.650000e-06	2.031264e-06	4.564946e-09	1.485192e+01	3.009592e+02
2.660000e-06	2.019405e-06	4.536878e-09	1.476521e+01	2.999367e+02
2.670000e-06	2.007098e-06	4.509543e-09	1.467523e+01	2.988553e+02
2.680000e-06	1.994393e-06	4.513550e-09	1.458233e+01	2.977261e+02
2.690000e-06	1.981367e-06	4.498638e-09	1.448709e+01	2.965628e+02
2.700000e-06	1.968011e-06	4.467722e-09	1.438944e+01	2.953771e+02
2.710000e-06	1.954293e-06	4.452998e-09	1.428913e+01	2.941759e+02
2.720000e-06	1.940269e-06	4.444069e-09	1.418659e+01	2.929589e+02
2.730000e-06	1.925989e-06	4.425733e-09	1.408218e+01	2.917200e+02
2.740000e-06	1.911378e-06	4.403656e-09	1.397535e+01	2.904497e+02
2.750000e-06	1.896341e-06	4.386877e-09	1.386541e+01	2.891385e+02
2.760000e-06	1.880887e-06	4.366749e-09	1.375241e+01	2.877802e+02
2.770000e-06	1.865076e-06	4.349847e-09	1.363680e+01	2.863735e+02
2.780000e-06	1.848945e-06	4.327668e-09	1.351886e+01	2.849226e+02
2.790000e-06	1.832543e-06	4.296599e-09	1.339894e+01	2.834355e+02
2.800000e-06	1.815863e-06	4.277607e-09	1.327698e+01	2.819213e+02
2.810000e-06	1.798883e-06	4.260007e-09	1.315282e+01	2.803874e+02
2.820000e-06	1.781613e-06	4.235482e-09	1.302656e+01	2.788373e+02
2.830000e-06	1.764097e-06	4.211095e-09	1.289849e+01	2.772688e+02
2.840000e-06	1.746333e-06	4.185455e-09	1.276860e+01	2.756745e+02
2.850000e-06	1.728256e-06	4.161497e-09	1.263643e+01	2.740438e+02
2.860000e-06	1.709847e-06	4.139168e-09	1.250182e+01	2.723644e+02
2.870000e-06	1.691123e-06	4.113939e-09	1.236492e+01	2.706265e+02
2.880000e-06	1.672131e-06	4.084558e-09	1.222606e+01	2.688244e+02
2.890000e-06	1.652820e-06	4.061044e-09	1.208487e+01	2.669584e+02
2.900000e-06	1.633146e-06	4.036070e-09	1.194102e+01	2.650347e+02
2.910000e-06	1.613194e-06	4.000393e-09	1.179513e+01	2.630638e+02
2.920000e-06	1.592970e-06	3.971864e-09	1.164726e+01	2.610580e+02
2.930000e-06	1.572432e-06	3.941973e-09	1.149709e+01	2.590278e+02
2.940000e-06	1.551570e-06	3.906156e-09	1.134456e+01	2.569792e+02
