# Temperatura_=_20.0
# Concentracion g/m^3_=_10000.0
# C_Vs_to_Am_M_A/Vsm_=_65563218390.804596
# pendiente_HvsI_1/m_=_3716.3
# ordenada_HvsI_A/m_=_1297.0
# frecuencia_Hz_=_213066.36783084017

Tiempo_(s)	Campo_(V.s)	Magnetizacion_(V.s)	Campo_(kA/m)	Magnetizacion_(A/m)
0.000000e+00	-2.204504e-06	-4.842977e-09	-1.612013e+01	-3.133391e+02
1.000000e-08	-2.204437e-06	-4.847972e-09	-1.611964e+01	-3.136723e+02
2.000000e-08	-2.203948e-06	-4.851395e-09	-1.611606e+01	-3.139562e+02
3.000000e-08	-2.202936e-06	-4.854418e-09	-1.610866e+01	-3.141923e+02
4.000000e-08	-2.201541e-06	-4.854375e-09	-1.609846e+01	-3.143800e+02
5.000000e-08	-2.199817e-06	-4.847734e-09	-1.608585e+01	-3.145150e+02
6.000000e-08	-2.197687e-06	-4.848255e-09	-1.607028e+01	-3.145909e+02
7.000000e-08	-2.195063e-06	-4.867571e-09	-1.605109e+01	-3.146018e+02
8.000000e-08	-2.192068e-06	-4.843312e-09	-1.602919e+01	-3.145446e+02
9.000000e-08	-2.188897e-06	-4.835418e-09	-1.600601e+01	-3.144218e+02
1.000000e-07	-2.185359e-06	-4.878264e-09	-1.598013e+01	-3.142408e+02
1.100000e-07	-2.181213e-06	-4.846976e-09	-1.594982e+01	-3.140120e+02
1.200000e-07	-2.176635e-06	-4.806367e-09	-1.591634e+01	-3.137452e+02
1.300000e-07	-2.171733e-06	-4.819582e-09	-1.588049e+01	-3.134454e+02
1.400000e-07	-2.166377e-06	-4.820064e-09	-1.584133e+01	-3.131112e+02
1.500000e-07	-2.160453e-06	-4.820545e-09	-1.579801e+01	-3.127350e+02
1.600000e-07	-2.153974e-06	-4.810073e-09	-1.575064e+01	-3.123061e+02
1.700000e-07	-2.147137e-06	-4.772776e-09	-1.570064e+01	-3.118152e+02
1.800000e-07	-2.139983e-06	-4.792149e-09	-1.564833e+01	-3.112587e+02
1.900000e-07	-2.132447e-06	-4.814685e-09	-1.559322e+01	-3.106406e+02
2.000000e-07	-2.124623e-06	-4.754407e-09	-1.553601e+01	-3.099721e+02
2.100000e-07	-2.116566e-06	-4.734455e-09	-1.547710e+01	-3.092679e+02
2.200000e-07	-2.108145e-06	-4.749962e-09	-1.541552e+01	-3.085410e+02
2.300000e-07	-2.099288e-06	-4.733851e-09	-1.535076e+01	-3.077981e+02
2.400000e-07	-2.090065e-06	-4.703697e-09	-1.528331e+01	-3.070377e+02
2.500000e-07	-2.080578e-06	-4.702394e-09	-1.521394e+01	-3.062511e+02
2.600000e-07	-2.070700e-06	-4.703176e-09	-1.514170e+01	-3.054256e+02
2.700000e-07	-2.060265e-06	-4.658696e-09	-1.506540e+01	-3.045504e+02
2.800000e-07	-2.049412e-06	-4.652386e-09	-1.498604e+01	-3.036205e+02
2.900000e-07	-2.038265e-06	-4.655343e-09	-1.490453e+01	-3.026386e+02
3.000000e-07	-2.026774e-06	-4.630526e-09	-1.482050e+01	-3.016138e+02
3.100000e-07	-2.014953e-06	-4.593272e-09	-1.473406e+01	-3.005573e+02
3.200000e-07	-2.002809e-06	-4.587644e-09	-1.464526e+01	-2.994779e+02
3.300000e-07	-1.990325e-06	-4.592125e-09	-1.455397e+01	-2.983777e+02
3.400000e-07	-1.977574e-06	-4.544076e-09	-1.446073e+01	-2.972512e+02
3.500000e-07	-1.964505e-06	-4.519752e-09	-1.436517e+01	-2.960877e+02
3.600000e-07	-1.950949e-06	-4.521029e-09	-1.426604e+01	-2.948755e+02
3.700000e-07	-1.936915e-06	-4.497663e-09	-1.416342e+01	-2.936075e+02
3.800000e-07	-1.922579e-06	-4.471021e-09	-1.405859e+01	-2.922841e+02
3.900000e-07	-1.907948e-06	-4.448077e-09	-1.395160e+01	-2.909139e+02
4.000000e-07	-1.892958e-06	-4.426958e-09	-1.384199e+01	-2.895109e+02
4.100000e-07	-1.877655e-06	-4.400825e-09	-1.373009e+01	-2.880892e+02
4.200000e-07	-1.862089e-06	-4.385512e-09	-1.361627e+01	-2.866577e+02
4.300000e-07	-1.846269e-06	-4.363505e-09	-1.350059e+01	-2.852171e+02
4.400000e-07	-1.830153e-06	-4.326423e-09	-1.338274e+01	-2.837596e+02
4.500000e-07	-1.813650e-06	-4.310866e-09	-1.326206e+01	-2.822724e+02
4.600000e-07	-1.796676e-06	-4.289095e-09	-1.313794e+01	-2.807421e+02
4.700000e-07	-1.779315e-06	-4.264174e-09	-1.301100e+01	-2.791600e+02
4.800000e-07	-1.761717e-06	-4.238770e-09	-1.288231e+01	-2.775242e+02
4.900000e-07	-1.743842e-06	-4.210845e-09	-1.275160e+01	-2.758394e+02
5.000000e-07	-1.725642e-06	-4.190974e-09	-1.261852e+01	-2.741131e+02
5.100000e-07	-1.707123e-06	-4.163736e-09	-1.248310e+01	-2.723515e+02
5.200000e-07	-1.688326e-06	-4.130972e-09	-1.234565e+01	-2.705560e+02
5.300000e-07	-1.669293e-06	-4.092946e-09	-1.220647e+01	-2.687218e+02
5.400000e-07	-1.649970e-06	-4.065809e-09	-1.206518e+01	-2.668407e+02
5.500000e-07	-1.630236e-06	-4.044648e-09	-1.192087e+01	-2.649055e+02
5.600000e-07	-1.610035e-06	-4.009378e-09	-1.177316e+01	-2.629145e+02
5.700000e-07	-1.589456e-06	-3.978186e-09	-1.162267e+01	-2.608744e+02
5.800000e-07	-1.568548e-06	-3.947109e-09	-1.146979e+01	-2.587999e+02
5.900000e-07	-1.547336e-06	-3.915658e-09	-1.131468e+01	-2.567089e+02
6.000000e-07	-1.525866e-06	-3.885821e-09	-1.115768e+01	-2.546167e+02
6.100000e-07	-1.504127e-06	-3.847675e-09	-1.099872e+01	-2.525296e+02
6.200000e-07	-1.482085e-06	-3.814299e-09	-1.083754e+01	-2.504423e+02
6.300000e-07	-1.459830e-06	-3.783725e-09	-1.067480e+01	-2.483391e+02
6.400000e-07	-1.437419e-06	-3.754423e-09	-1.051093e+01	-2.461990e+02
6.500000e-07	-1.414758e-06	-3.718672e-09	-1.034522e+01	-2.440036e+02
6.600000e-07	-1.391723e-06	-3.680242e-09	-1.017678e+01	-2.417437e+02
6.700000e-07	-1.368291e-06	-3.649952e-09	-1.000544e+01	-2.394227e+02
6.800000e-07	-1.344567e-06	-3.615706e-09	-9.831961e+00	-2.370551e+02
6.900000e-07	-1.320667e-06	-3.580308e-09	-9.657192e+00	-2.346607e+02
7.000000e-07	-1.296588e-06	-3.539538e-09	-9.481121e+00	-2.322566e+02
7.100000e-07	-1.272298e-06	-3.499683e-09	-9.303499e+00	-2.298500e+02
7.200000e-07	-1.247805e-06	-3.465930e-09	-9.124402e+00	-2.274353e+02
7.300000e-07	-1.223120e-06	-3.426530e-09	-8.943894e+00	-2.249963e+02
7.400000e-07	-1.198231e-06	-3.385850e-09	-8.761901e+00	-2.225123e+02
7.500000e-07	-1.173103e-06	-3.345129e-09	-8.578155e+00	-2.199669e+02
7.600000e-07	-1.147772e-06	-3.309261e-09	-8.392920e+00	-2.173548e+02
7.700000e-07	-1.122294e-06	-3.272245e-09	-8.206621e+00	-2.146847e+02
7.800000e-07	-1.096675e-06	-3.225677e-09	-8.019287e+00	-2.119763e+02
7.900000e-07	-1.070912e-06	-3.179764e-09	-7.830897e+00	-2.092529e+02
8.000000e-07	-1.044928e-06	-3.135488e-09	-7.640888e+00	-2.065323e+02
8.100000e-07	-1.018713e-06	-3.094367e-09	-7.449198e+00	-2.038193e+02
8.200000e-07	-9.922904e-07	-3.050717e-09	-7.255986e+00	-2.011037e+02
8.300000e-07	-9.656058e-07	-3.004379e-09	-7.060858e+00	-1.983631e+02
8.400000e-07	-9.387182e-07	-2.963082e-09	-6.864246e+00	-1.955716e+02
8.500000e-07	-9.117173e-07	-2.920778e-09	-6.666806e+00	-1.927091e+02
8.600000e-07	-8.846150e-07	-2.877868e-09	-6.468624e+00	-1.897692e+02
8.700000e-07	-8.574057e-07	-2.830788e-09	-6.269660e+00	-1.867618e+02
8.800000e-07	-8.300707e-07	-2.780480e-09	-6.069777e+00	-1.837093e+02
8.900000e-07	-8.026067e-07	-2.731830e-09	-5.868950e+00	-1.806385e+02
9.000000e-07	-7.750150e-07	-2.681566e-09	-5.667189e+00	-1.775707e+02
9.100000e-07	-7.472723e-07	-2.632319e-09	-5.464325e+00	-1.745138e+02
9.200000e-07	-7.193819e-07	-2.581416e-09	-5.260380e+00	-1.714596e+02
9.300000e-07	-6.913535e-07	-2.534254e-09	-5.055426e+00	-1.683874e+02
9.400000e-07	-6.631841e-07	-2.489712e-09	-4.849442e+00	-1.652715e+02
9.500000e-07	-6.348958e-07	-2.441566e-09	-4.642587e+00	-1.620911e+02
9.600000e-07	-6.064994e-07	-2.392267e-09	-4.434942e+00	-1.588373e+02
9.700000e-07	-5.779593e-07	-2.338894e-09	-4.226247e+00	-1.555159e+02
9.800000e-07	-5.493252e-07	-2.284928e-09	-4.016864e+00	-1.521436e+02
9.900000e-07	-5.206541e-07	-2.230242e-09	-3.807211e+00	-1.487412e+02
1.000000e-06	-4.919399e-07	-2.175148e-09	-3.597242e+00	-1.453251e+02
1.010000e-06	-4.631830e-07	-2.121739e-09	-3.386961e+00	-1.419004e+02
1.020000e-06	-4.343698e-07	-2.068820e-09	-3.176269e+00	-1.384606e+02
1.030000e-06	-4.054906e-07	-2.018510e-09	-2.965093e+00	-1.349901e+02
1.040000e-06	-3.765511e-07	-1.964948e-09	-2.753478e+00	-1.314718e+02
1.050000e-06	-3.475267e-07	-1.907460e-09	-2.541241e+00	-1.278948e+02
1.060000e-06	-3.184101e-07	-1.849642e-09	-2.328330e+00	-1.242586e+02
1.070000e-06	-2.892085e-07	-1.791401e-09	-2.114797e+00	-1.205740e+02
1.080000e-06	-2.598972e-07	-1.735202e-09	-1.900462e+00	-1.168582e+02
1.090000e-06	-2.305120e-07	-1.677143e-09	-1.685587e+00	-1.131277e+02
1.100000e-06	-2.010725e-07	-1.618306e-09	-1.470315e+00	-1.093917e+02
1.110000e-06	-1.715574e-07	-1.560318e-09	-1.254490e+00	-1.056478e+02
1.120000e-06	-1.419742e-07	-1.502992e-09	-1.038167e+00	-1.018837e+02
1.130000e-06	-1.123345e-07	-1.447397e-09	-8.214308e-01	-9.808202e+01
1.140000e-06	-8.267698e-08	-1.390206e-09	-6.045639e-01	-9.422786e+01
1.150000e-06	-5.302341e-08	-1.331922e-09	-3.877263e-01	-9.031542e+01
1.160000e-06	-2.334847e-08	-1.271004e-09	-1.707324e-01	-8.635067e+01
1.170000e-06	6.332288e-09	-1.206613e-09	4.630398e-02	-8.234928e+01
1.180000e-06	3.595559e-08	-1.141573e-09	2.629202e-01	-7.833037e+01
1.190000e-06	6.552685e-08	-1.076936e-09	4.791559e-01	-7.430873e+01
1.200000e-06	9.512483e-08	-1.016014e-09	6.955871e-01	-7.028852e+01
1.210000e-06	1.247208e-07	-9.581188e-10	9.120032e-01	-6.626103e+01
1.220000e-06	1.542659e-07	-9.013270e-10	1.128048e+00	-6.220759e+01
1.230000e-06	1.837545e-07	-8.427245e-10	1.343679e+00	-5.810640e+01
1.240000e-06	2.131736e-07	-7.800748e-10	1.558803e+00	-5.394060e+01
1.250000e-06	2.424945e-07	-7.151193e-10	1.773207e+00	-4.970452e+01
1.260000e-06	2.716619e-07	-6.464354e-10	1.986490e+00	-4.540552e+01
1.270000e-06	3.007584e-07	-5.764401e-10	2.199254e+00	-4.106085e+01
1.280000e-06	3.298195e-07	-5.088729e-10	2.411759e+00	-3.669075e+01
1.290000e-06	3.587915e-07	-4.430241e-10	2.623613e+00	-3.231054e+01
1.300000e-06	3.876788e-07	-3.785123e-10	2.834847e+00	-2.792496e+01
1.310000e-06	4.165052e-07	-3.144391e-10	3.045636e+00	-2.352686e+01
1.320000e-06	4.452854e-07	-2.500263e-10	3.256087e+00	-1.910077e+01
1.330000e-06	4.740253e-07	-1.827679e-10	3.466244e+00	-1.462993e+01
1.340000e-06	5.027299e-07	-1.114441e-10	3.676143e+00	-1.010383e+01
1.350000e-06	5.313924e-07	-3.790288e-11	3.885733e+00	-5.523265e+00
1.360000e-06	5.600034e-07	3.614595e-11	4.094947e+00	-9.008997e-01
1.370000e-06	5.885411e-07	1.079949e-10	4.303625e+00	3.742972e+00
1.380000e-06	6.169628e-07	1.778331e-10	4.511455e+00	8.387768e+00
1.390000e-06	6.452668e-07	2.463860e-10	4.718424e+00	1.302023e+01
1.400000e-06	6.734653e-07	3.143968e-10	4.924622e+00	1.763931e+01
1.410000e-06	7.015546e-07	3.837400e-10	5.130020e+00	2.225648e+01
1.420000e-06	7.295231e-07	4.546285e-10	5.334536e+00	2.689130e+01
1.430000e-06	7.573568e-07	5.281484e-10	5.538066e+00	3.156399e+01
1.440000e-06	7.850511e-07	6.035677e-10	5.740577e+00	3.628783e+01
1.450000e-06	8.125926e-07	6.785303e-10	5.941971e+00	4.106409e+01
1.460000e-06	8.399674e-07	7.509551e-10	6.142145e+00	4.588150e+01
1.470000e-06	8.671963e-07	8.213476e-10	6.341253e+00	5.072002e+01
1.480000e-06	8.943336e-07	8.931829e-10	6.539690e+00	5.555765e+01
1.490000e-06	9.213924e-07	9.659631e-10	6.737554e+00	6.037737e+01
1.500000e-06	9.483595e-07	1.039004e-09	6.934747e+00	6.517198e+01
1.510000e-06	9.751595e-07	1.113511e-09	7.130719e+00	6.994499e+01
1.520000e-06	1.001691e-06	1.187700e-09	7.324729e+00	7.470771e+01
1.530000e-06	1.027905e-06	1.260994e-09	7.516413e+00	7.947384e+01
1.540000e-06	1.053832e-06	1.334148e-09	7.705998e+00	8.425385e+01
1.550000e-06	1.079541e-06	1.407367e-09	7.893992e+00	8.905111e+01
1.560000e-06	1.105101e-06	1.479330e-09	8.080900e+00	9.386116e+01
1.570000e-06	1.130536e-06	1.549668e-09	8.266886e+00	9.867392e+01
1.580000e-06	1.155801e-06	1.619746e-09	8.451638e+00	1.034776e+02
1.590000e-06	1.180852e-06	1.690996e-09	8.634816e+00	1.082629e+02
1.600000e-06	1.205706e-06	1.764663e-09	8.816555e+00	1.130250e+02
1.610000e-06	1.230393e-06	1.838990e-09	8.997077e+00	1.177639e+02
1.620000e-06	1.254897e-06	1.912809e-09	9.176258e+00	1.224824e+02
1.630000e-06	1.279187e-06	1.984284e-09	9.353878e+00	1.271833e+02
1.640000e-06	1.303258e-06	2.054206e-09	9.529890e+00	1.318668e+02
1.650000e-06	1.327170e-06	2.122932e-09	9.704744e+00	1.365298e+02
1.660000e-06	1.350930e-06	2.189564e-09	9.878488e+00	1.411668e+02
1.670000e-06	1.374416e-06	2.256947e-09	1.005023e+01	1.457717e+02
1.680000e-06	1.397494e-06	2.325742e-09	1.021898e+01	1.503402e+02
1.690000e-06	1.420192e-06	2.395691e-09	1.038495e+01	1.548708e+02
1.700000e-06	1.442631e-06	2.466582e-09	1.054904e+01	1.593646e+02
1.710000e-06	1.464910e-06	2.535668e-09	1.071195e+01	1.638233e+02
1.720000e-06	1.486993e-06	2.601266e-09	1.087343e+01	1.682470e+02
1.730000e-06	1.508782e-06	2.663951e-09	1.103276e+01	1.726330e+02
1.740000e-06	1.530322e-06	2.725617e-09	1.119027e+01	1.769755e+02
1.750000e-06	1.551624e-06	2.789135e-09	1.134603e+01	1.812668e+02
1.760000e-06	1.572673e-06	2.852914e-09	1.149995e+01	1.855000e+02
1.770000e-06	1.593435e-06	2.915113e-09	1.165177e+01	1.896711e+02
1.780000e-06	1.613803e-06	2.976562e-09	1.180071e+01	1.937801e+02
1.790000e-06	1.633752e-06	3.037369e-09	1.194659e+01	1.978305e+02
1.800000e-06	1.653297e-06	3.096445e-09	1.208951e+01	2.018266e+02
1.810000e-06	1.672516e-06	3.152390e-09	1.223004e+01	2.057715e+02
1.820000e-06	1.691486e-06	3.207504e-09	1.236875e+01	2.096642e+02
1.830000e-06	1.710185e-06	3.263467e-09	1.250549e+01	2.134995e+02
1.840000e-06	1.728594e-06	3.319282e-09	1.264011e+01	2.172692e+02
1.850000e-06	1.746687e-06	3.372870e-09	1.277241e+01	2.209655e+02
1.860000e-06	1.764487e-06	3.424505e-09	1.290257e+01	2.245834e+02
1.870000e-06	1.782049e-06	3.476692e-09	1.303098e+01	2.281231e+02
1.880000e-06	1.799367e-06	3.528837e-09	1.315762e+01	2.315900e+02
1.890000e-06	1.816334e-06	3.578154e-09	1.328169e+01	2.349918e+02
1.900000e-06	1.832845e-06	3.624651e-09	1.340243e+01	2.383356e+02
1.910000e-06	1.848962e-06	3.671312e-09	1.352028e+01	2.416236e+02
1.920000e-06	1.864787e-06	3.718344e-09	1.363599e+01	2.448520e+02
1.930000e-06	1.880322e-06	3.763907e-09	1.374960e+01	2.480106e+02
1.940000e-06	1.895542e-06	3.807881e-09	1.386089e+01	2.510863e+02
1.950000e-06	1.910435e-06	3.850286e-09	1.396979e+01	2.540669e+02
1.960000e-06	1.925026e-06	3.891451e-09	1.407648e+01	2.569452e+02
1.970000e-06	1.939369e-06	3.932911e-09	1.418137e+01	2.597205e+02
1.980000e-06	1.953414e-06	3.972075e-09	1.428407e+01	2.623989e+02
1.990000e-06	1.967012e-06	4.006869e-09	1.438350e+01	2.649901e+02
2.000000e-06	1.980119e-06	4.041392e-09	1.447935e+01	2.675035e+02
2.010000e-06	1.992882e-06	4.077249e-09	1.457267e+01	2.699453e+02
2.020000e-06	2.005362e-06	4.111794e-09	1.466393e+01	2.723165e+02
2.030000e-06	2.017512e-06	4.144191e-09	1.475278e+01	2.746139e+02
2.040000e-06	2.029341e-06	4.175871e-09	1.483927e+01	2.768328e+02
2.050000e-06	2.040845e-06	4.208236e-09	1.492340e+01	2.789705e+02
2.060000e-06	2.052060e-06	4.239552e-09	1.500540e+01	2.810290e+02
2.070000e-06	2.062992e-06	4.267681e-09	1.508534e+01	2.830149e+02
2.080000e-06	2.073482e-06	4.293824e-09	1.516205e+01	2.849380e+02
2.090000e-06	2.083462e-06	4.320788e-09	1.523502e+01	2.868077e+02
2.100000e-06	2.093027e-06	4.347982e-09	1.530497e+01	2.886293e+02
2.110000e-06	2.102235e-06	4.373440e-09	1.537230e+01	2.904020e+02
2.120000e-06	2.111113e-06	4.395711e-09	1.543722e+01	2.921188e+02
2.130000e-06	2.119642e-06	4.417222e-09	1.549959e+01	2.937691e+02
2.140000e-06	2.127833e-06	4.440326e-09	1.555949e+01	2.953432e+02
2.150000e-06	2.135738e-06	4.463037e-09	1.561729e+01	2.968356e+02
2.160000e-06	2.143316e-06	4.484497e-09	1.567270e+01	2.982478e+02
2.170000e-06	2.150493e-06	4.505539e-09	1.572518e+01	2.995873e+02
2.180000e-06	2.157263e-06	4.526254e-09	1.577468e+01	3.008652e+02
2.190000e-06	2.163634e-06	4.544768e-09	1.582127e+01	3.020917e+02
2.200000e-06	2.169598e-06	4.561713e-09	1.586488e+01	3.032726e+02
2.210000e-06	2.175153e-06	4.578622e-09	1.590551e+01	3.044071e+02
2.220000e-06	2.180315e-06	4.594578e-09	1.594325e+01	3.054885e+02
2.230000e-06	2.185117e-06	4.610008e-09	1.597836e+01	3.065074e+02
2.240000e-06	2.189498e-06	4.625261e-09	1.601040e+01	3.074552e+02
2.250000e-06	2.193332e-06	4.640627e-09	1.603844e+01	3.083284e+02
2.260000e-06	2.196674e-06	4.655495e-09	1.606287e+01	3.091293e+02
2.270000e-06	2.199660e-06	4.667776e-09	1.608471e+01	3.098659e+02
2.280000e-06	2.202294e-06	4.678596e-09	1.610397e+01	3.105487e+02
2.290000e-06	2.204544e-06	4.687064e-09	1.612042e+01	3.111872e+02
2.300000e-06	2.206426e-06	4.694200e-09	1.613418e+01	3.117870e+02
2.310000e-06	2.208007e-06	4.702880e-09	1.614574e+01	3.123486e+02
2.320000e-06	2.209235e-06	4.712103e-09	1.615472e+01	3.128687e+02
2.330000e-06	2.209977e-06	4.720311e-09	1.616015e+01	3.133420e+02
2.340000e-06	2.210257e-06	4.727756e-09	1.616220e+01	3.137645e+02
2.350000e-06	2.210176e-06	4.733518e-09	1.616160e+01	3.141347e+02
2.360000e-06	2.209743e-06	4.737563e-09	1.615844e+01	3.144539e+02
2.370000e-06	2.208938e-06	4.742457e-09	1.615255e+01	3.147242e+02
2.380000e-06	2.207773e-06	4.747804e-09	1.614403e+01	3.149470e+02
2.390000e-06	2.206302e-06	4.755552e-09	1.613327e+01	3.151204e+02
2.400000e-06	2.204556e-06	4.758734e-09	1.612051e+01	3.152393e+02
2.410000e-06	2.202345e-06	4.739818e-09	1.610434e+01	3.152972e+02
2.420000e-06	2.199532e-06	4.770421e-09	1.608377e+01	3.152887e+02
2.430000e-06	2.196362e-06	4.754381e-09	1.606059e+01	3.152123e+02
2.440000e-06	2.192889e-06	4.715547e-09	1.603519e+01	3.150720e+02
2.450000e-06	2.188890e-06	4.765965e-09	1.600596e+01	3.148765e+02
2.460000e-06	2.184492e-06	4.769594e-09	1.597380e+01	3.146364e+02
2.470000e-06	2.179944e-06	4.755399e-09	1.594054e+01	3.143603e+02
2.480000e-06	2.175079e-06	4.707369e-09	1.590496e+01	3.140516e+02
2.490000e-06	2.169545e-06	4.747276e-09	1.586450e+01	3.137067e+02
2.500000e-06	2.163400e-06	4.768090e-09	1.581956e+01	3.133168e+02
2.510000e-06	2.156993e-06	4.722649e-09	1.577271e+01	3.128711e+02
2.520000e-06	2.150314e-06	4.697748e-09	1.572387e+01	3.123615e+02
2.530000e-06	2.143124e-06	4.720490e-09	1.567130e+01	3.117866e+02
2.540000e-06	2.135492e-06	4.737553e-09	1.561549e+01	3.111530e+02
2.550000e-06	2.127658e-06	4.679281e-09	1.555820e+01	3.104732e+02
2.560000e-06	2.119542e-06	4.680029e-09	1.549885e+01	3.097619e+02
2.570000e-06	2.110876e-06	4.694982e-09	1.543548e+01	3.090308e+02
2.580000e-06	2.101671e-06	4.672777e-09	1.536818e+01	3.082841e+02
2.590000e-06	2.092137e-06	4.634577e-09	1.529846e+01	3.075180e+02
2.600000e-06	2.082289e-06	4.658444e-09	1.522645e+01	3.067220e+02
2.610000e-06	2.072072e-06	4.662761e-09	1.515174e+01	3.058835e+02
2.620000e-06	2.061513e-06	4.605531e-09	1.507452e+01	3.049930e+02
2.630000e-06	2.050637e-06	4.587571e-09	1.499500e+01	3.040478e+02
2.640000e-06	2.039454e-06	4.616728e-09	1.491322e+01	3.030528e+02
2.650000e-06	2.027934e-06	4.582381e-09	1.482899e+01	3.020183e+02
2.660000e-06	2.015984e-06	4.535521e-09	1.474161e+01	3.009552e+02
2.670000e-06	2.003538e-06	4.548899e-09	1.465059e+01	2.998707e+02
2.680000e-06	1.990726e-06	4.558892e-09	1.455691e+01	2.987644e+02
2.690000e-06	1.977607e-06	4.511588e-09	1.446098e+01	2.976290e+02
2.700000e-06	1.964115e-06	4.484570e-09	1.436232e+01	2.964530e+02
2.710000e-06	1.950268e-06	4.496176e-09	1.426106e+01	2.952254e+02
2.720000e-06	1.936171e-06	4.466858e-09	1.415798e+01	2.939413e+02
2.730000e-06	1.921830e-06	4.436749e-09	1.405312e+01	2.926035e+02
2.740000e-06	1.907091e-06	4.427805e-09	1.394534e+01	2.912229e+02
2.750000e-06	1.891922e-06	4.410022e-09	1.383441e+01	2.898139e+02
2.760000e-06	1.876379e-06	4.385803e-09	1.372076e+01	2.883896e+02
2.770000e-06	1.860480e-06	4.365989e-09	1.360450e+01	2.869566e+02
2.780000e-06	1.844266e-06	4.347928e-09	1.348594e+01	2.855130e+02
2.790000e-06	1.827775e-06	4.320356e-09	1.336535e+01	2.840491e+02
2.800000e-06	1.811009e-06	4.300620e-09	1.324275e+01	2.825511e+02
2.810000e-06	1.793933e-06	4.280332e-09	1.311789e+01	2.810069e+02
2.820000e-06	1.776570e-06	4.254543e-09	1.299092e+01	2.794095e+02
2.830000e-06	1.759007e-06	4.235238e-09	1.286249e+01	2.777592e+02
2.840000e-06	1.741187e-06	4.201134e-09	1.273219e+01	2.760620e+02
2.850000e-06	1.722998e-06	4.177228e-09	1.259918e+01	2.743256e+02
2.860000e-06	1.704452e-06	4.162852e-09	1.246357e+01	2.725550e+02
2.870000e-06	1.685666e-06	4.128238e-09	1.232620e+01	2.707495e+02
2.880000e-06	1.666627e-06	4.094936e-09	1.218698e+01	2.689031e+02
2.890000e-06	1.647202e-06	4.072939e-09	1.204494e+01	2.670074e+02
2.900000e-06	1.627438e-06	4.048038e-09	1.190041e+01	2.650562e+02
2.910000e-06	1.607403e-06	4.012207e-09	1.175391e+01	2.630502e+02
2.920000e-06	1.587063e-06	3.981147e-09	1.160518e+01	2.609990e+02
2.930000e-06	1.566406e-06	3.951714e-09	1.145413e+01	2.589186e+02
2.940000e-06	1.545471e-06	3.918408e-09	1.130104e+01	2.568269e+02
