# Temperatura_=_20.0
# Concentracion g/m^3_=_10000.0
# C_Vs_to_Am_M_A/Vsm_=_65563218390.804596
# pendiente_HvsI_1/m_=_3716.3
# ordenada_HvsI_A/m_=_1297.0
# frecuencia_Hz_=_213064.50766771002

Tiempo_(s)	Campo_(V.s)	Magnetizacion_(V.s)	Campo_(kA/m)	Magnetizacion_(A/m)
0.000000e+00	-2.207185e-06	-4.861184e-09	-1.612081e+01	-3.143531e+02
1.000000e-08	-2.207133e-06	-4.867417e-09	-1.612043e+01	-3.146990e+02
2.000000e-08	-2.206697e-06	-4.870406e-09	-1.611725e+01	-3.149901e+02
3.000000e-08	-2.205764e-06	-4.870334e-09	-1.611043e+01	-3.152154e+02
4.000000e-08	-2.204376e-06	-4.869012e-09	-1.610029e+01	-3.153690e+02
5.000000e-08	-2.202678e-06	-4.862631e-09	-1.608789e+01	-3.154521e+02
6.000000e-08	-2.200626e-06	-4.854399e-09	-1.607290e+01	-3.154723e+02
7.000000e-08	-2.198100e-06	-4.878617e-09	-1.605445e+01	-3.154408e+02
8.000000e-08	-2.195132e-06	-4.877524e-09	-1.603278e+01	-3.153679e+02
9.000000e-08	-2.191917e-06	-4.831760e-09	-1.600930e+01	-3.152596e+02
1.000000e-07	-2.188437e-06	-4.867799e-09	-1.598388e+01	-3.151149e+02
1.100000e-07	-2.184408e-06	-4.910366e-09	-1.595445e+01	-3.149269e+02
1.200000e-07	-2.179865e-06	-4.823235e-09	-1.592127e+01	-3.146846e+02
1.300000e-07	-2.174970e-06	-4.793848e-09	-1.588552e+01	-3.143775e+02
1.400000e-07	-2.169672e-06	-4.844367e-09	-1.584682e+01	-3.140001e+02
1.500000e-07	-2.163858e-06	-4.841597e-09	-1.580436e+01	-3.135538e+02
1.600000e-07	-2.157480e-06	-4.828618e-09	-1.575777e+01	-3.130479e+02
1.700000e-07	-2.150695e-06	-4.796890e-09	-1.570822e+01	-3.124968e+02
1.800000e-07	-2.143614e-06	-4.792447e-09	-1.565650e+01	-3.119157e+02
1.900000e-07	-2.136155e-06	-4.827424e-09	-1.560202e+01	-3.113160e+02
2.000000e-07	-2.128343e-06	-4.798584e-09	-1.554497e+01	-3.107018e+02
2.100000e-07	-2.120285e-06	-4.736265e-09	-1.548611e+01	-3.100687e+02
2.200000e-07	-2.111894e-06	-4.749421e-09	-1.542483e+01	-3.094052e+02
2.300000e-07	-2.103077e-06	-4.763193e-09	-1.536042e+01	-3.086977e+02
2.400000e-07	-2.093904e-06	-4.729891e-09	-1.529343e+01	-3.079349e+02
2.500000e-07	-2.084439e-06	-4.717514e-09	-1.522430e+01	-3.071127e+02
2.600000e-07	-2.074605e-06	-4.717605e-09	-1.515247e+01	-3.062358e+02
2.700000e-07	-2.064264e-06	-4.687232e-09	-1.507694e+01	-3.053166e+02
2.800000e-07	-2.053446e-06	-4.657148e-09	-1.499793e+01	-3.043714e+02
2.900000e-07	-2.042303e-06	-4.671016e-09	-1.491654e+01	-3.034143e+02
3.000000e-07	-2.030842e-06	-4.660346e-09	-1.483284e+01	-3.024522e+02
3.100000e-07	-2.019026e-06	-4.615840e-09	-1.474654e+01	-3.014816e+02
3.200000e-07	-2.006863e-06	-4.603668e-09	-1.465770e+01	-3.004894e+02
3.300000e-07	-1.994362e-06	-4.614871e-09	-1.456640e+01	-2.994562e+02
3.400000e-07	-1.981604e-06	-4.585687e-09	-1.447321e+01	-2.983634e+02
3.500000e-07	-1.968560e-06	-4.534572e-09	-1.437794e+01	-2.971991e+02
3.600000e-07	-1.955082e-06	-4.527551e-09	-1.427950e+01	-2.959627e+02
3.700000e-07	-1.941126e-06	-4.523678e-09	-1.417757e+01	-2.946655e+02
3.800000e-07	-1.926806e-06	-4.495262e-09	-1.407298e+01	-2.933276e+02
3.900000e-07	-1.912189e-06	-4.475652e-09	-1.396622e+01	-2.919714e+02
4.000000e-07	-1.897226e-06	-4.451045e-09	-1.385693e+01	-2.906148e+02
4.100000e-07	-1.881964e-06	-4.424310e-09	-1.374546e+01	-2.892650e+02
4.200000e-07	-1.866409e-06	-4.411885e-09	-1.363185e+01	-2.879169e+02
4.300000e-07	-1.850569e-06	-4.392785e-09	-1.351616e+01	-2.865555e+02
4.400000e-07	-1.834479e-06	-4.353029e-09	-1.339864e+01	-2.851613e+02
4.500000e-07	-1.818034e-06	-4.325137e-09	-1.327854e+01	-2.837174e+02
4.600000e-07	-1.801132e-06	-4.321609e-09	-1.315508e+01	-2.822154e+02
4.700000e-07	-1.783801e-06	-4.299162e-09	-1.302850e+01	-2.806577e+02
4.800000e-07	-1.766174e-06	-4.263527e-09	-1.289976e+01	-2.790554e+02
4.900000e-07	-1.748300e-06	-4.235134e-09	-1.276921e+01	-2.774230e+02
5.000000e-07	-1.730129e-06	-4.213874e-09	-1.263649e+01	-2.757712e+02
5.100000e-07	-1.711647e-06	-4.195589e-09	-1.250150e+01	-2.741015e+02
5.200000e-07	-1.692867e-06	-4.161715e-09	-1.236434e+01	-2.724040e+02
5.300000e-07	-1.673829e-06	-4.122783e-09	-1.222529e+01	-2.706605e+02
5.400000e-07	-1.654533e-06	-4.095084e-09	-1.208436e+01	-2.688504e+02
5.500000e-07	-1.634822e-06	-4.074499e-09	-1.194039e+01	-2.669592e+02
5.600000e-07	-1.614622e-06	-4.045448e-09	-1.179285e+01	-2.649847e+02
5.700000e-07	-1.594031e-06	-4.007301e-09	-1.164246e+01	-2.629392e+02
5.800000e-07	-1.573114e-06	-3.977805e-09	-1.148969e+01	-2.608468e+02
5.900000e-07	-1.551915e-06	-3.949040e-09	-1.133486e+01	-2.587360e+02
6.000000e-07	-1.530470e-06	-3.918414e-09	-1.117823e+01	-2.566300e+02
6.100000e-07	-1.508758e-06	-3.883014e-09	-1.101965e+01	-2.545393e+02
6.200000e-07	-1.486744e-06	-3.841443e-09	-1.085886e+01	-2.524582e+02
6.300000e-07	-1.464509e-06	-3.810062e-09	-1.069646e+01	-2.503669e+02
6.400000e-07	-1.442109e-06	-3.782562e-09	-1.053286e+01	-2.482385e+02
6.500000e-07	-1.419461e-06	-3.749682e-09	-1.036744e+01	-2.460494e+02
6.600000e-07	-1.396455e-06	-3.711370e-09	-1.019941e+01	-2.437870e+02
6.700000e-07	-1.373056e-06	-3.675735e-09	-1.002851e+01	-2.414548e+02
6.800000e-07	-1.349351e-06	-3.644218e-09	-9.855372e+00	-2.390702e+02
6.900000e-07	-1.325468e-06	-3.605415e-09	-9.680936e+00	-2.366580e+02
7.000000e-07	-1.301416e-06	-3.562053e-09	-9.505262e+00	-2.342405e+02
7.100000e-07	-1.277129e-06	-3.520486e-09	-9.327875e+00	-2.318289e+02
7.200000e-07	-1.252618e-06	-3.486446e-09	-9.148854e+00	-2.294192e+02
7.300000e-07	-1.227934e-06	-3.453667e-09	-8.968568e+00	-2.269926e+02
7.400000e-07	-1.203054e-06	-3.411764e-09	-8.786850e+00	-2.245232e+02
7.500000e-07	-1.177946e-06	-3.369746e-09	-8.603464e+00	-2.219873e+02
7.600000e-07	-1.152633e-06	-3.330215e-09	-8.418585e+00	-2.193720e+02
7.700000e-07	-1.127169e-06	-3.291399e-09	-8.232600e+00	-2.166808e+02
7.800000e-07	-1.101569e-06	-3.249017e-09	-8.045627e+00	-2.139315e+02
7.900000e-07	-1.075804e-06	-3.202494e-09	-7.857446e+00	-2.111503e+02
8.000000e-07	-1.049821e-06	-3.159450e-09	-7.667668e+00	-2.083623e+02
8.100000e-07	-1.023579e-06	-3.116677e-09	-7.476005e+00	-2.055818e+02
8.200000e-07	-9.970739e-07	-3.071840e-09	-7.282415e+00	-2.028084e+02
8.300000e-07	-9.703236e-07	-3.023174e-09	-7.087037e+00	-2.000267e+02
8.400000e-07	-9.433921e-07	-2.975811e-09	-6.890335e+00	-1.972131e+02
8.500000e-07	-9.163354e-07	-2.935212e-09	-6.692718e+00	-1.943448e+02
8.600000e-07	-8.892079e-07	-2.894520e-09	-6.494585e+00	-1.914081e+02
8.700000e-07	-8.619989e-07	-2.850478e-09	-6.295856e+00	-1.884033e+02
8.800000e-07	-8.346276e-07	-2.802085e-09	-6.095942e+00	-1.853446e+02
8.900000e-07	-8.070922e-07	-2.752852e-09	-5.894830e+00	-1.822538e+02
9.000000e-07	-7.794300e-07	-2.703880e-09	-5.692790e+00	-1.791522e+02
9.100000e-07	-7.516498e-07	-2.652078e-09	-5.489890e+00	-1.760528e+02
9.200000e-07	-7.237603e-07	-2.600519e-09	-5.286191e+00	-1.729558e+02
9.300000e-07	-6.957444e-07	-2.552794e-09	-5.081569e+00	-1.698493e+02
9.400000e-07	-6.675891e-07	-2.508327e-09	-4.875928e+00	-1.667144e+02
9.500000e-07	-6.393035e-07	-2.462645e-09	-4.669337e+00	-1.635326e+02
9.600000e-07	-6.108733e-07	-2.413864e-09	-4.461688e+00	-1.602924e+02
9.700000e-07	-5.822965e-07	-2.361858e-09	-4.252970e+00	-1.569929e+02
9.800000e-07	-5.536355e-07	-2.306864e-09	-4.043636e+00	-1.536425e+02
9.900000e-07	-5.249371e-07	-2.252435e-09	-3.834029e+00	-1.502540e+02
1.000000e-06	-4.962092e-07	-2.197555e-09	-3.624207e+00	-1.468383e+02
1.010000e-06	-4.674445e-07	-2.140900e-09	-3.414115e+00	-1.433995e+02
1.020000e-06	-4.386346e-07	-2.085791e-09	-3.203693e+00	-1.399332e+02
1.030000e-06	-4.097648e-07	-2.032328e-09	-2.992834e+00	-1.364284e+02
1.040000e-06	-3.808012e-07	-1.979636e-09	-2.781291e+00	-1.328737e+02
1.050000e-06	-3.517383e-07	-1.924773e-09	-2.569021e+00	-1.292628e+02
1.060000e-06	-3.225569e-07	-1.868241e-09	-2.355887e+00	-1.255982e+02
1.070000e-06	-2.932624e-07	-1.811336e-09	-2.141926e+00	-1.218914e+02
1.080000e-06	-2.638705e-07	-1.752309e-09	-1.927254e+00	-1.181585e+02
1.090000e-06	-2.343985e-07	-1.692839e-09	-1.711997e+00	-1.144139e+02
1.100000e-06	-2.048783e-07	-1.631881e-09	-1.496387e+00	-1.106636e+02
1.110000e-06	-1.752890e-07	-1.572204e-09	-1.280274e+00	-1.069022e+02
1.120000e-06	-1.456471e-07	-1.515714e-09	-1.063776e+00	-1.031145e+02
1.130000e-06	-1.160051e-07	-1.459504e-09	-8.472765e-01	-9.928050e+01
1.140000e-06	-8.636493e-08	-1.400880e-09	-6.307910e-01	-9.538359e+01
1.150000e-06	-5.665552e-08	-1.338981e-09	-4.137998e-01	-9.141744e+01
1.160000e-06	-2.689284e-08	-1.276882e-09	-1.964196e-01	-8.738922e+01
1.170000e-06	2.882276e-09	-1.213120e-09	2.105153e-02	-8.331773e+01
1.180000e-06	3.265160e-08	-1.147028e-09	2.384803e-01	-7.922691e+01
1.190000e-06	6.238391e-08	-1.083192e-09	4.556388e-01	-7.513712e+01
1.200000e-06	9.207516e-08	-1.022185e-09	6.724973e-01	-7.105756e+01
1.210000e-06	1.217089e-07	-9.630493e-10	8.889360e-01	-6.698278e+01
1.220000e-06	1.512720e-07	-9.039480e-10	1.104858e+00	-6.289466e+01
1.230000e-06	1.807879e-07	-8.425393e-10	1.320437e+00	-5.876911e+01
1.240000e-06	2.102416e-07	-7.792833e-10	1.535560e+00	-5.458500e+01
1.250000e-06	2.396154e-07	-7.142353e-10	1.750100e+00	-5.033187e+01
1.260000e-06	2.689086e-07	-6.466739e-10	1.964051e+00	-4.601332e+01
1.270000e-06	2.980974e-07	-5.768676e-10	2.177240e+00	-4.164505e+01
1.280000e-06	3.271962e-07	-5.085021e-10	2.389772e+00	-3.724816e+01
1.290000e-06	3.562239e-07	-4.436735e-10	2.601784e+00	-3.284058e+01
1.300000e-06	3.851899e-07	-3.786140e-10	2.813345e+00	-2.843003e+01
1.310000e-06	4.140638e-07	-3.127704e-10	3.024234e+00	-2.401125e+01
1.320000e-06	4.428532e-07	-2.459195e-10	3.234506e+00	-1.956882e+01
1.330000e-06	4.716030e-07	-1.783982e-10	3.444488e+00	-1.508408e+01
1.340000e-06	5.003233e-07	-1.089602e-10	3.654255e+00	-1.054369e+01
1.350000e-06	5.289930e-07	-3.537769e-11	3.863653e+00	-5.946022e+00
1.360000e-06	5.575981e-07	3.872708e-11	4.072578e+00	-1.302869e+00
1.370000e-06	5.861355e-07	1.104924e-10	4.281009e+00	3.364365e+00
1.380000e-06	6.146046e-07	1.794981e-10	4.488941e+00	8.032643e+00
1.390000e-06	6.429724e-07	2.484435e-10	4.696134e+00	1.268629e+01
1.400000e-06	6.711856e-07	3.177787e-10	4.902196e+00	1.732341e+01
1.410000e-06	6.992686e-07	3.878373e-10	5.107309e+00	2.195713e+01
1.420000e-06	7.272757e-07	4.588615e-10	5.311867e+00	2.661099e+01
1.430000e-06	7.551705e-07	5.303673e-10	5.515605e+00	3.131011e+01
1.440000e-06	7.829197e-07	6.043426e-10	5.718279e+00	3.607145e+01
1.450000e-06	8.105222e-07	6.790704e-10	5.919882e+00	4.089691e+01
1.460000e-06	8.379490e-07	7.522059e-10	6.120201e+00	4.577190e+01
1.470000e-06	8.652186e-07	8.245027e-10	6.319373e+00	5.066993e+01
1.480000e-06	8.923841e-07	8.980251e-10	6.517783e+00	5.556160e+01
1.490000e-06	9.194818e-07	9.738280e-10	6.715699e+00	6.042458e+01
1.500000e-06	9.464829e-07	1.048359e-09	6.912910e+00	6.525084e+01
1.510000e-06	9.733161e-07	1.120797e-09	7.108893e+00	7.004842e+01
1.520000e-06	9.998747e-07	1.192749e-09	7.302872e+00	7.483734e+01
1.530000e-06	1.026139e-06	1.265689e-09	7.494704e+00	7.964109e+01
1.540000e-06	1.052137e-06	1.340862e-09	7.684583e+00	8.447714e+01
1.550000e-06	1.077883e-06	1.415061e-09	7.872630e+00	8.934996e+01
1.560000e-06	1.103461e-06	1.487783e-09	8.059442e+00	9.424915e+01
1.570000e-06	1.128918e-06	1.560302e-09	8.245377e+00	9.915315e+01
1.580000e-06	1.154230e-06	1.632913e-09	8.430247e+00	1.040369e+02
1.590000e-06	1.179324e-06	1.705818e-09	8.613534e+00	1.088806e+02
1.600000e-06	1.204208e-06	1.778906e-09	8.795276e+00	1.136756e+02
1.610000e-06	1.228924e-06	1.852321e-09	8.975802e+00	1.184261e+02
1.620000e-06	1.253469e-06	1.926395e-09	9.155071e+00	1.231459e+02
1.630000e-06	1.277823e-06	1.998477e-09	9.332948e+00	1.278511e+02
1.640000e-06	1.301967e-06	2.068574e-09	9.509287e+00	1.325529e+02
1.650000e-06	1.325923e-06	2.137215e-09	9.684257e+00	1.372527e+02
1.660000e-06	1.349733e-06	2.205358e-09	9.858159e+00	1.419411e+02
1.670000e-06	1.373303e-06	2.273975e-09	1.003032e+01	1.466023e+02
1.680000e-06	1.396498e-06	2.343114e-09	1.019972e+01	1.512196e+02
1.690000e-06	1.419275e-06	2.412539e-09	1.036608e+01	1.557826e+02
1.700000e-06	1.441739e-06	2.482272e-09	1.053015e+01	1.602905e+02
1.710000e-06	1.464018e-06	2.552156e-09	1.069288e+01	1.647513e+02
1.720000e-06	1.486127e-06	2.618539e-09	1.085436e+01	1.691779e+02
1.730000e-06	1.508002e-06	2.682511e-09	1.101412e+01	1.735813e+02
1.740000e-06	1.529611e-06	2.746359e-09	1.117195e+01	1.779648e+02
1.750000e-06	1.550970e-06	2.811707e-09	1.132796e+01	1.823212e+02
1.760000e-06	1.572047e-06	2.877180e-09	1.148190e+01	1.866347e+02
1.770000e-06	1.592822e-06	2.940481e-09	1.163363e+01	1.908856e+02
1.780000e-06	1.613255e-06	3.002435e-09	1.178287e+01	1.950572e+02
1.790000e-06	1.633285e-06	3.063537e-09	1.192917e+01	1.991416e+02
1.800000e-06	1.652896e-06	3.122740e-09	1.207240e+01	2.031414e+02
1.810000e-06	1.672152e-06	3.180399e-09	1.221304e+01	2.070683e+02
1.820000e-06	1.691134e-06	3.237363e-09	1.235169e+01	2.109369e+02
1.830000e-06	1.709853e-06	3.292747e-09	1.248840e+01	2.147585e+02
1.840000e-06	1.728322e-06	3.346252e-09	1.262330e+01	2.185356e+02
1.850000e-06	1.746500e-06	3.399105e-09	1.275606e+01	2.222603e+02
1.860000e-06	1.764361e-06	3.452238e-09	1.288652e+01	2.259172e+02
1.870000e-06	1.781984e-06	3.505697e-09	1.301523e+01	2.294891e+02
1.880000e-06	1.799386e-06	3.557989e-09	1.314233e+01	2.329639e+02
1.890000e-06	1.816430e-06	3.606540e-09	1.326682e+01	2.363394e+02
1.900000e-06	1.832988e-06	3.653347e-09	1.338775e+01	2.396243e+02
1.910000e-06	1.849136e-06	3.700310e-09	1.350570e+01	2.428351e+02
1.920000e-06	1.864981e-06	3.745159e-09	1.362143e+01	2.459898e+02
1.930000e-06	1.880543e-06	3.787600e-09	1.373509e+01	2.491000e+02
1.940000e-06	1.895816e-06	3.829589e-09	1.384664e+01	2.521668e+02
1.950000e-06	1.910773e-06	3.873162e-09	1.395588e+01	2.551789e+02
1.960000e-06	1.925409e-06	3.916505e-09	1.406277e+01	2.581167e+02
1.970000e-06	1.939779e-06	3.956493e-09	1.416773e+01	2.609583e+02
1.980000e-06	1.953874e-06	3.992878e-09	1.427068e+01	2.636876e+02
1.990000e-06	1.967570e-06	4.027667e-09	1.437071e+01	2.662996e+02
2.000000e-06	1.980779e-06	4.062123e-09	1.446719e+01	2.688016e+02
2.010000e-06	1.993592e-06	4.094953e-09	1.456077e+01	2.712109e+02
2.020000e-06	2.006104e-06	4.126759e-09	1.465216e+01	2.735479e+02
2.030000e-06	2.018314e-06	4.158863e-09	1.474134e+01	2.758295e+02
2.040000e-06	2.030206e-06	4.191256e-09	1.482819e+01	2.780637e+02
2.050000e-06	2.041749e-06	4.223369e-09	1.491250e+01	2.802472e+02
2.060000e-06	2.053008e-06	4.253680e-09	1.499473e+01	2.823684e+02
2.070000e-06	2.064013e-06	4.281803e-09	1.507511e+01	2.844120e+02
2.080000e-06	2.074625e-06	4.308783e-09	1.515262e+01	2.863662e+02
2.090000e-06	2.084743e-06	4.335571e-09	1.522652e+01	2.882269e+02
2.100000e-06	2.094406e-06	4.362157e-09	1.529709e+01	2.899997e+02
2.110000e-06	2.103692e-06	4.387861e-09	1.536492e+01	2.916980e+02
2.120000e-06	2.112624e-06	4.411116e-09	1.543016e+01	2.933377e+02
2.130000e-06	2.121187e-06	4.431010e-09	1.549270e+01	2.949320e+02
2.140000e-06	2.129442e-06	4.450487e-09	1.555299e+01	2.964868e+02
2.150000e-06	2.137412e-06	4.472439e-09	1.561120e+01	2.979990e+02
2.160000e-06	2.145038e-06	4.495300e-09	1.566690e+01	2.994587e+02
2.170000e-06	2.152248e-06	4.516467e-09	1.571956e+01	3.008529e+02
2.180000e-06	2.159056e-06	4.536303e-09	1.576929e+01	3.021710e+02
2.190000e-06	2.165524e-06	4.555817e-09	1.581652e+01	3.034083e+02
2.200000e-06	2.171573e-06	4.573714e-09	1.586071e+01	3.045675e+02
2.210000e-06	2.177165e-06	4.589922e-09	1.590155e+01	3.056571e+02
2.220000e-06	2.182348e-06	4.604933e-09	1.593941e+01	3.066878e+02
2.230000e-06	2.187144e-06	4.619161e-09	1.597444e+01	3.076679e+02
2.240000e-06	2.191541e-06	4.633184e-09	1.600655e+01	3.086007e+02
2.250000e-06	2.195430e-06	4.647478e-09	1.603495e+01	3.094834e+02
2.260000e-06	2.198821e-06	4.661918e-09	1.605972e+01	3.103087e+02
2.270000e-06	2.201865e-06	4.674434e-09	1.608195e+01	3.110688e+02
2.280000e-06	2.204553e-06	4.685766e-09	1.610158e+01	3.117590e+02
2.290000e-06	2.206839e-06	4.696609e-09	1.611828e+01	3.123803e+02
2.300000e-06	2.208776e-06	4.705001e-09	1.613243e+01	3.129401e+02
2.310000e-06	2.210393e-06	4.712429e-09	1.614424e+01	3.134497e+02
2.320000e-06	2.211669e-06	4.719874e-09	1.615356e+01	3.139211e+02
2.330000e-06	2.212508e-06	4.726498e-09	1.615969e+01	3.143622e+02
2.340000e-06	2.212852e-06	4.733228e-09	1.616220e+01	3.147744e+02
2.350000e-06	2.212795e-06	4.739827e-09	1.616178e+01	3.151520e+02
2.360000e-06	2.212393e-06	4.744903e-09	1.615885e+01	3.154837e+02
2.370000e-06	2.211629e-06	4.749471e-09	1.615327e+01	3.157571e+02
2.380000e-06	2.210510e-06	4.755863e-09	1.614510e+01	3.159621e+02
2.390000e-06	2.209077e-06	4.765852e-09	1.613463e+01	3.160950e+02
2.400000e-06	2.207356e-06	4.777233e-09	1.612206e+01	3.161592e+02
2.410000e-06	2.205190e-06	4.756545e-09	1.610624e+01	3.161637e+02
2.420000e-06	2.202446e-06	4.760090e-09	1.608620e+01	3.161198e+02
2.430000e-06	2.199292e-06	4.786883e-09	1.606316e+01	3.160369e+02
2.440000e-06	2.195865e-06	4.725459e-09	1.603813e+01	3.159190e+02
2.450000e-06	2.191981e-06	4.727689e-09	1.600976e+01	3.157633e+02
2.460000e-06	2.187602e-06	4.808803e-09	1.597778e+01	3.155612e+02
2.470000e-06	2.183021e-06	4.795303e-09	1.594432e+01	3.153013e+02
2.480000e-06	2.178205e-06	4.731162e-09	1.590914e+01	3.149745e+02
2.490000e-06	2.172765e-06	4.715248e-09	1.586942e+01	3.145768e+02
2.500000e-06	2.166663e-06	4.792604e-09	1.582484e+01	3.141124e+02
2.510000e-06	2.160247e-06	4.771361e-09	1.577798e+01	3.135922e+02
2.520000e-06	2.153608e-06	4.681899e-09	1.572949e+01	3.130315e+02
2.530000e-06	2.146491e-06	4.696314e-09	1.567751e+01	3.124449e+02
2.540000e-06	2.138862e-06	4.765697e-09	1.562180e+01	3.118418e+02
2.550000e-06	2.130993e-06	4.735780e-09	1.556432e+01	3.112238e+02
2.560000e-06	2.122906e-06	4.661955e-09	1.550525e+01	3.105838e+02
2.570000e-06	2.114290e-06	4.698412e-09	1.544233e+01	3.099096e+02
2.580000e-06	2.105090e-06	4.715525e-09	1.537513e+01	3.091874e+02
2.590000e-06	2.095566e-06	4.651416e-09	1.530556e+01	3.084078e+02
2.600000e-06	2.085751e-06	4.632104e-09	1.523388e+01	3.075692e+02
2.610000e-06	2.075535e-06	4.686812e-09	1.515927e+01	3.066790e+02
2.620000e-06	2.065009e-06	4.654147e-09	1.508239e+01	3.057513e+02
2.630000e-06	2.054217e-06	4.579410e-09	1.500356e+01	3.048022e+02
2.640000e-06	2.043091e-06	4.605710e-09	1.492230e+01	3.038443e+02
2.650000e-06	2.031592e-06	4.630065e-09	1.483831e+01	3.028815e+02
2.660000e-06	2.019659e-06	4.554410e-09	1.475116e+01	3.019072e+02
2.670000e-06	2.007242e-06	4.525711e-09	1.466047e+01	3.009057e+02
2.680000e-06	1.994449e-06	4.575097e-09	1.456703e+01	2.998574e+02
2.690000e-06	1.981369e-06	4.561952e-09	1.447150e+01	2.987449e+02
2.700000e-06	1.967943e-06	4.500318e-09	1.437343e+01	2.975594e+02
2.710000e-06	1.954137e-06	4.496785e-09	1.427260e+01	2.963040e+02
2.720000e-06	1.940055e-06	4.496047e-09	1.416975e+01	2.949932e+02
2.730000e-06	1.925735e-06	4.453006e-09	1.406516e+01	2.936486e+02
2.740000e-06	1.911067e-06	4.437626e-09	1.395803e+01	2.922918e+02
2.750000e-06	1.895946e-06	4.423422e-09	1.384758e+01	2.909379e+02
2.760000e-06	1.880389e-06	4.390465e-09	1.373396e+01	2.895907e+02
2.770000e-06	1.864497e-06	4.382087e-09	1.361789e+01	2.882415e+02
2.780000e-06	1.848337e-06	4.377571e-09	1.349986e+01	2.868733e+02
2.790000e-06	1.831900e-06	4.339942e-09	1.337981e+01	2.854666e+02
2.800000e-06	1.815144e-06	4.308702e-09	1.325742e+01	2.840067e+02
2.810000e-06	1.798079e-06	4.303947e-09	1.313279e+01	2.824882e+02
2.820000e-06	1.780719e-06	4.280043e-09	1.300599e+01	2.809166e+02
2.830000e-06	1.763123e-06	4.245591e-09	1.287748e+01	2.793047e+02
2.840000e-06	1.745308e-06	4.220775e-09	1.274736e+01	2.776667e+02
2.850000e-06	1.727183e-06	4.194994e-09	1.261498e+01	2.760109e+02
2.860000e-06	1.708683e-06	4.180380e-09	1.247986e+01	2.743353e+02
2.870000e-06	1.689884e-06	4.156583e-09	1.234255e+01	2.726272e+02
2.880000e-06	1.670820e-06	4.118230e-09	1.220331e+01	2.708667e+02
2.890000e-06	1.651424e-06	4.094735e-09	1.206165e+01	2.690343e+02
2.900000e-06	1.631686e-06	4.072136e-09	1.191749e+01	2.671186e+02
2.910000e-06	1.611656e-06	4.035048e-09	1.177119e+01	2.651218e+02
2.920000e-06	1.591351e-06	3.999593e-09	1.162289e+01	2.630604e+02
2.930000e-06	1.570744e-06	3.969433e-09	1.147238e+01	2.609605e+02
2.940000e-06	1.549817e-06	3.934078e-09	1.131954e+01	2.588501e+02
