# Temperatura_=_20.0
# Concentracion g/m^3_=_10000.0
# C_Vs_to_Am_M_A/Vsm_=_65563218390.804596
# pendiente_HvsI_1/m_=_3716.3
# ordenada_HvsI_A/m_=_1297.0
# frecuencia_Hz_=_135115.90293657483

Tiempo_(s)	Campo_(V.s)	Magnetizacion_(V.s)	Campo_(kA/m)	Magnetizacion_(A/m)
0.000000e+00	-8.535215e-07	-1.256989e-09	-6.854785e+00	-8.234081e+01
1.000000e-08	-8.535296e-07	-1.282994e-09	-6.854851e+00	-8.233793e+01
2.000000e-08	-8.535306e-07	-1.273758e-09	-6.854859e+00	-8.232956e+01
3.000000e-08	-8.534952e-07	-1.228477e-09	-6.854574e+00	-8.231542e+01
4.000000e-08	-8.533851e-07	-1.190823e-09	-6.853690e+00	-8.229529e+01
5.000000e-08	-8.531976e-07	-1.196614e-09	-6.852184e+00	-8.226931e+01
6.000000e-08	-8.529268e-07	-1.235943e-09	-6.850009e+00	-8.223818e+01
7.000000e-08	-8.525755e-07	-1.275120e-09	-6.847188e+00	-8.220329e+01
8.000000e-08	-8.521806e-07	-1.318744e-09	-6.844017e+00	-8.216663e+01
9.000000e-08	-8.517808e-07	-1.327093e-09	-6.840805e+00	-8.213059e+01
1.000000e-07	-8.513464e-07	-1.302330e-09	-6.837317e+00	-8.209761e+01
1.100000e-07	-8.508468e-07	-1.226621e-09	-6.833304e+00	-8.206975e+01
1.200000e-07	-8.502661e-07	-1.170322e-09	-6.828641e+00	-8.204829e+01
1.300000e-07	-8.495859e-07	-1.184338e-09	-6.823178e+00	-8.203330e+01
1.400000e-07	-8.487965e-07	-1.233409e-09	-6.816838e+00	-8.202347e+01
1.500000e-07	-8.478811e-07	-1.281596e-09	-6.809486e+00	-8.201606e+01
1.600000e-07	-8.468923e-07	-1.315539e-09	-6.801545e+00	-8.200705e+01
1.700000e-07	-8.458722e-07	-1.303598e-09	-6.793352e+00	-8.199160e+01
1.800000e-07	-8.448279e-07	-1.262716e-09	-6.784965e+00	-8.196452e+01
1.900000e-07	-8.437512e-07	-1.241895e-09	-6.776318e+00	-8.192092e+01
2.000000e-07	-8.426310e-07	-1.239503e-09	-6.767322e+00	-8.185686e+01
2.100000e-07	-8.414462e-07	-1.236249e-09	-6.757806e+00	-8.176985e+01
2.200000e-07	-8.401767e-07	-1.245487e-09	-6.747611e+00	-8.165921e+01
2.300000e-07	-8.388317e-07	-1.261142e-09	-6.736809e+00	-8.152622e+01
2.400000e-07	-8.374383e-07	-1.273008e-09	-6.725618e+00	-8.137396e+01
2.500000e-07	-8.360012e-07	-1.259354e-09	-6.714077e+00	-8.120703e+01
2.600000e-07	-8.345246e-07	-1.233558e-09	-6.702218e+00	-8.103090e+01
2.700000e-07	-8.329801e-07	-1.225472e-09	-6.689814e+00	-8.085137e+01
2.800000e-07	-8.313726e-07	-1.229142e-09	-6.676904e+00	-8.067382e+01
2.900000e-07	-8.297197e-07	-1.241828e-09	-6.663629e+00	-8.050265e+01
3.000000e-07	-8.280086e-07	-1.246574e-09	-6.649887e+00	-8.034080e+01
3.100000e-07	-8.262496e-07	-1.246776e-09	-6.635760e+00	-8.018951e+01
3.200000e-07	-8.244496e-07	-1.228427e-09	-6.621304e+00	-8.004831e+01
3.300000e-07	-8.226026e-07	-1.213777e-09	-6.606470e+00	-7.991517e+01
3.400000e-07	-8.207112e-07	-1.207551e-09	-6.591280e+00	-7.978690e+01
3.500000e-07	-8.187734e-07	-1.215242e-09	-6.575717e+00	-7.965961e+01
3.600000e-07	-8.167255e-07	-1.220763e-09	-6.559270e+00	-7.952918e+01
3.700000e-07	-8.145337e-07	-1.219836e-09	-6.541667e+00	-7.939179e+01
3.800000e-07	-8.122474e-07	-1.212048e-09	-6.523305e+00	-7.924425e+01
3.900000e-07	-8.099112e-07	-1.206284e-09	-6.504543e+00	-7.908422e+01
4.000000e-07	-8.075225e-07	-1.204984e-09	-6.485359e+00	-7.891030e+01
4.100000e-07	-8.050429e-07	-1.200768e-09	-6.465445e+00	-7.872198e+01
4.200000e-07	-8.024840e-07	-1.194959e-09	-6.444894e+00	-7.851944e+01
4.300000e-07	-7.998771e-07	-1.188656e-09	-6.423958e+00	-7.830334e+01
4.400000e-07	-7.972191e-07	-1.189267e-09	-6.402610e+00	-7.807458e+01
4.500000e-07	-7.945131e-07	-1.188183e-09	-6.380878e+00	-7.783412e+01
4.600000e-07	-7.917382e-07	-1.184391e-09	-6.358593e+00	-7.758286e+01
4.700000e-07	-7.888997e-07	-1.173940e-09	-6.335796e+00	-7.732158e+01
4.800000e-07	-7.859992e-07	-1.170031e-09	-6.312501e+00	-7.705102e+01
4.900000e-07	-7.830321e-07	-1.167091e-09	-6.288673e+00	-7.677196e+01
5.000000e-07	-7.800285e-07	-1.160067e-09	-6.264550e+00	-7.648530e+01
5.100000e-07	-7.769639e-07	-1.143808e-09	-6.239938e+00	-7.619219e+01
5.200000e-07	-7.738080e-07	-1.129623e-09	-6.214592e+00	-7.589396e+01
5.300000e-07	-7.705883e-07	-1.124377e-09	-6.188734e+00	-7.559215e+01
5.400000e-07	-7.673093e-07	-1.129115e-09	-6.162400e+00	-7.528826e+01
5.500000e-07	-7.639752e-07	-1.130708e-09	-6.135623e+00	-7.498362e+01
5.600000e-07	-7.605737e-07	-1.126189e-09	-6.108305e+00	-7.467908e+01
5.700000e-07	-7.570948e-07	-1.119869e-09	-6.080365e+00	-7.437483e+01
5.800000e-07	-7.535554e-07	-1.114662e-09	-6.051940e+00	-7.407024e+01
5.900000e-07	-7.499527e-07	-1.105662e-09	-6.023006e+00	-7.376377e+01
6.000000e-07	-7.462858e-07	-1.094741e-09	-5.993557e+00	-7.345314e+01
6.100000e-07	-7.425826e-07	-1.088058e-09	-5.963815e+00	-7.313549e+01
6.200000e-07	-7.388524e-07	-1.087133e-09	-5.933857e+00	-7.280777e+01
6.300000e-07	-7.350670e-07	-1.087469e-09	-5.903456e+00	-7.246711e+01
6.400000e-07	-7.312141e-07	-1.082612e-09	-5.872512e+00	-7.211125e+01
6.500000e-07	-7.273167e-07	-1.074214e-09	-5.841212e+00	-7.173893e+01
6.600000e-07	-7.233733e-07	-1.064893e-09	-5.809542e+00	-7.135010e+01
6.700000e-07	-7.193624e-07	-1.057719e-09	-5.777330e+00	-7.094598e+01
6.800000e-07	-7.152942e-07	-1.052482e-09	-5.744657e+00	-7.052899e+01
6.900000e-07	-7.111856e-07	-1.050431e-09	-5.711660e+00	-7.010242e+01
7.000000e-07	-7.070502e-07	-1.049015e-09	-5.678448e+00	-6.967000e+01
7.100000e-07	-7.028795e-07	-1.043973e-09	-5.644953e+00	-6.923543e+01
7.200000e-07	-6.986771e-07	-1.034002e-09	-5.611202e+00	-6.880179e+01
7.300000e-07	-6.944555e-07	-1.024783e-09	-5.577298e+00	-6.837119e+01
7.400000e-07	-6.902090e-07	-1.016711e-09	-5.543193e+00	-6.794444e+01
7.500000e-07	-6.859160e-07	-1.011284e-09	-5.508715e+00	-6.752096e+01
7.600000e-07	-6.815638e-07	-1.009154e-09	-5.473762e+00	-6.709893e+01
7.700000e-07	-6.771478e-07	-1.007137e-09	-5.438297e+00	-6.667559e+01
7.800000e-07	-6.726855e-07	-1.002482e-09	-5.402458e+00	-6.624775e+01
7.900000e-07	-6.681767e-07	-9.952955e-10	-5.366247e+00	-6.581232e+01
8.000000e-07	-6.636244e-07	-9.858025e-10	-5.329687e+00	-6.536689e+01
8.100000e-07	-6.590356e-07	-9.770343e-10	-5.292834e+00	-6.491016e+01
8.200000e-07	-6.544019e-07	-9.689106e-10	-5.255620e+00	-6.444223e+01
8.300000e-07	-6.497326e-07	-9.614911e-10	-5.218120e+00	-6.396471e+01
8.400000e-07	-6.450196e-07	-9.557605e-10	-5.180269e+00	-6.348055e+01
8.500000e-07	-6.402421e-07	-9.524510e-10	-5.141900e+00	-6.299366e+01
8.600000e-07	-6.353958e-07	-9.495443e-10	-5.102978e+00	-6.250845e+01
8.700000e-07	-6.305104e-07	-9.428607e-10	-5.063743e+00	-6.202919e+01
8.800000e-07	-6.255880e-07	-9.330175e-10	-5.024210e+00	-6.155947e+01
8.900000e-07	-6.206280e-07	-9.237454e-10	-4.984376e+00	-6.110171e+01
9.000000e-07	-6.156399e-07	-9.165109e-10	-4.944315e+00	-6.065684e+01
9.100000e-07	-6.106283e-07	-9.100621e-10	-4.904066e+00	-6.022422e+01
9.200000e-07	-6.055947e-07	-9.031002e-10	-4.863641e+00	-5.980178e+01
9.300000e-07	-6.005196e-07	-8.956227e-10	-4.822882e+00	-5.938629e+01
9.400000e-07	-5.953922e-07	-8.894966e-10	-4.781702e+00	-5.897392e+01
9.500000e-07	-5.902222e-07	-8.840217e-10	-4.740182e+00	-5.856068e+01
9.600000e-07	-5.850090e-07	-8.778197e-10	-4.698313e+00	-5.814300e+01
9.700000e-07	-5.797247e-07	-8.715324e-10	-4.655874e+00	-5.771815e+01
9.800000e-07	-5.743642e-07	-8.642769e-10	-4.612822e+00	-5.728449e+01
9.900000e-07	-5.689241e-07	-8.551262e-10	-4.569132e+00	-5.684155e+01
1.000000e-06	-5.634013e-07	-8.451968e-10	-4.524778e+00	-5.638989e+01
1.010000e-06	-5.578335e-07	-8.355371e-10	-4.480062e+00	-5.593088e+01
1.020000e-06	-5.522182e-07	-8.282954e-10	-4.434964e+00	-5.546623e+01
1.030000e-06	-5.465392e-07	-8.227850e-10	-4.389355e+00	-5.499761e+01
1.040000e-06	-5.408194e-07	-8.179444e-10	-4.343418e+00	-5.452624e+01
1.050000e-06	-5.350738e-07	-8.120562e-10	-4.297274e+00	-5.405257e+01
1.060000e-06	-5.293104e-07	-8.037199e-10	-4.250987e+00	-5.357620e+01
1.070000e-06	-5.235272e-07	-7.946449e-10	-4.204542e+00	-5.309584e+01
1.080000e-06	-5.177246e-07	-7.877042e-10	-4.157940e+00	-5.260953e+01
1.090000e-06	-5.118992e-07	-7.791337e-10	-4.111155e+00	-5.211495e+01
1.100000e-06	-5.060483e-07	-7.671810e-10	-4.064166e+00	-5.160978e+01
1.110000e-06	-5.001641e-07	-7.559342e-10	-4.016908e+00	-5.109208e+01
1.120000e-06	-4.942525e-07	-7.466369e-10	-3.969431e+00	-5.056063e+01
1.130000e-06	-4.883187e-07	-7.386715e-10	-3.921775e+00	-5.001509e+01
1.140000e-06	-4.823510e-07	-7.292368e-10	-3.873848e+00	-4.945606e+01
1.150000e-06	-4.763385e-07	-7.207630e-10	-3.825560e+00	-4.888498e+01
1.160000e-06	-4.702688e-07	-7.140418e-10	-3.776814e+00	-4.830391e+01
1.170000e-06	-4.641622e-07	-7.058055e-10	-3.727770e+00	-4.771521e+01
1.180000e-06	-4.580302e-07	-6.961666e-10	-3.678523e+00	-4.712117e+01
1.190000e-06	-4.518670e-07	-6.842136e-10	-3.629026e+00	-4.652375e+01
1.200000e-06	-4.456847e-07	-6.729010e-10	-3.579375e+00	-4.592430e+01
1.210000e-06	-4.394893e-07	-6.625957e-10	-3.529618e+00	-4.532350e+01
1.220000e-06	-4.332703e-07	-6.522740e-10	-3.479672e+00	-4.472136e+01
1.230000e-06	-4.270091e-07	-6.439260e-10	-3.429387e+00	-4.411736e+01
1.240000e-06	-4.207185e-07	-6.378719e-10	-3.378867e+00	-4.351074e+01
1.250000e-06	-4.144171e-07	-6.324988e-10	-3.328259e+00	-4.290074e+01
1.260000e-06	-4.080854e-07	-6.243120e-10	-3.277407e+00	-4.228688e+01
1.270000e-06	-4.017216e-07	-6.131044e-10	-3.226299e+00	-4.166914e+01
1.280000e-06	-3.953340e-07	-6.004597e-10	-3.174999e+00	-4.104806e+01
1.290000e-06	-3.889242e-07	-5.891209e-10	-3.123520e+00	-4.042472e+01
1.300000e-06	-3.824805e-07	-5.787357e-10	-3.071770e+00	-3.980053e+01
1.310000e-06	-3.760035e-07	-5.679145e-10	-3.019752e+00	-3.917704e+01
1.320000e-06	-3.695009e-07	-5.592877e-10	-2.967528e+00	-3.855559e+01
1.330000e-06	-3.629733e-07	-5.531812e-10	-2.915104e+00	-3.793707e+01
1.340000e-06	-3.564312e-07	-5.477928e-10	-2.862563e+00	-3.732170e+01
1.350000e-06	-3.498729e-07	-5.402651e-10	-2.809892e+00	-3.670888e+01
1.360000e-06	-3.432989e-07	-5.314069e-10	-2.757095e+00	-3.609731e+01
1.370000e-06	-3.367191e-07	-5.229151e-10	-2.704252e+00	-3.548506e+01
1.380000e-06	-3.301249e-07	-5.137021e-10	-2.651293e+00	-3.486994e+01
1.390000e-06	-3.235126e-07	-5.040096e-10	-2.598188e+00	-3.424983e+01
1.400000e-06	-3.168905e-07	-4.934667e-10	-2.545005e+00	-3.362303e+01
1.410000e-06	-3.102521e-07	-4.848688e-10	-2.491690e+00	-3.298862e+01
1.420000e-06	-3.035959e-07	-4.772716e-10	-2.438233e+00	-3.234664e+01
1.430000e-06	-2.969258e-07	-4.709880e-10	-2.384665e+00	-3.169816e+01
1.440000e-06	-2.902147e-07	-4.637143e-10	-2.330766e+00	-3.104521e+01
1.450000e-06	-2.834543e-07	-4.520519e-10	-2.276473e+00	-3.039051e+01
1.460000e-06	-2.766909e-07	-4.409884e-10	-2.222155e+00	-2.973711e+01
1.470000e-06	-2.699245e-07	-4.325137e-10	-2.167813e+00	-2.908799e+01
1.480000e-06	-2.631371e-07	-4.251718e-10	-2.113302e+00	-2.844564e+01
1.490000e-06	-2.563319e-07	-4.167002e-10	-2.058648e+00	-2.781170e+01
1.500000e-06	-2.495020e-07	-4.073685e-10	-2.003795e+00	-2.718680e+01
1.510000e-06	-2.426576e-07	-3.977297e-10	-1.948827e+00	-2.657046e+01
1.520000e-06	-2.357858e-07	-3.906738e-10	-1.893638e+00	-2.596121e+01
1.530000e-06	-2.288516e-07	-3.854051e-10	-1.837948e+00	-2.535684e+01
1.540000e-06	-2.218598e-07	-3.790416e-10	-1.781796e+00	-2.475478e+01
1.550000e-06	-2.148331e-07	-3.711086e-10	-1.725363e+00	-2.415243e+01
1.560000e-06	-2.077996e-07	-3.624072e-10	-1.668876e+00	-2.354759e+01
1.570000e-06	-2.007639e-07	-3.524145e-10	-1.612371e+00	-2.293868e+01
1.580000e-06	-1.936929e-07	-3.415816e-10	-1.555583e+00	-2.232491e+01
1.590000e-06	-1.865962e-07	-3.303673e-10	-1.498587e+00	-2.170626e+01
1.600000e-06	-1.794995e-07	-3.195532e-10	-1.441593e+00	-2.108334e+01
1.610000e-06	-1.723764e-07	-3.106340e-10	-1.384386e+00	-2.045710e+01
1.620000e-06	-1.652056e-07	-3.031433e-10	-1.326796e+00	-1.982852e+01
1.630000e-06	-1.580084e-07	-2.963958e-10	-1.268994e+00	-1.919827e+01
1.640000e-06	-1.507981e-07	-2.886158e-10	-1.211087e+00	-1.856647e+01
1.650000e-06	-1.435597e-07	-2.798351e-10	-1.152954e+00	-1.793251e+01
1.660000e-06	-1.362945e-07	-2.704324e-10	-1.094606e+00	-1.729507e+01
1.670000e-06	-1.290209e-07	-2.608493e-10	-1.036190e+00	-1.665229e+01
1.680000e-06	-1.217360e-07	-2.496984e-10	-9.776836e-01	-1.600203e+01
1.690000e-06	-1.144472e-07	-2.369137e-10	-9.191464e-01	-1.534222e+01
1.700000e-06	-1.071644e-07	-2.238765e-10	-8.606564e-01	-1.467130e+01
1.710000e-06	-9.986807e-08	-2.114196e-10	-8.020585e-01	-1.398853e+01
1.720000e-06	-9.256919e-08	-2.010712e-10	-7.434399e-01	-1.329423e+01
1.730000e-06	-8.526676e-08	-1.925387e-10	-6.847928e-01	-1.258985e+01
1.740000e-06	-7.794348e-08	-1.840328e-10	-6.259782e-01	-1.187793e+01
1.750000e-06	-7.062421e-08	-1.757143e-10	-5.671958e-01	-1.116181e+01
1.760000e-06	-6.331453e-08	-1.660008e-10	-5.084904e-01	-1.044526e+01
1.770000e-06	-5.600035e-08	-1.540827e-10	-4.497489e-01	-9.732052e+00
1.780000e-06	-4.867622e-08	-1.413799e-10	-3.909276e-01	-9.025472e+00
1.790000e-06	-4.136009e-08	-1.300340e-10	-3.321703e-01	-8.327967e+00
1.800000e-06	-3.404924e-08	-1.200975e-10	-2.734556e-01	-7.640871e+00
1.810000e-06	-2.672009e-08	-1.101364e-10	-2.145939e-01	-6.964302e+00
1.820000e-06	-1.937304e-08	-9.924352e-11	-1.555884e-01	-6.297244e+00
1.830000e-06	-1.202326e-08	-8.703928e-11	-9.656095e-02	-5.637772e+00
1.840000e-06	-4.683539e-09	-7.553642e-11	-3.761435e-02	-4.983402e+00
1.850000e-06	2.641831e-09	-6.648096e-11	2.121702e-02	-4.331490e+00
1.860000e-06	9.959726e-09	-5.957243e-11	7.998836e-02	-3.679616e+00
1.870000e-06	1.729049e-08	-5.441565e-11	1.388631e-01	-3.025899e+00
1.880000e-06	2.462204e-08	-4.810649e-11	1.977441e-01	-2.369181e+00
1.890000e-06	3.194243e-08	-3.736839e-11	2.565355e-01	-1.709064e+00
1.900000e-06	3.926565e-08	-2.306214e-11	3.153495e-01	-1.045804e+00
1.910000e-06	4.660665e-08	-9.336435e-12	3.743064e-01	-3.800782e-01
1.920000e-06	5.394779e-08	4.214433e-13	4.332645e-01	2.873130e-01
1.930000e-06	6.128362e-08	7.621558e-12	4.921799e-01	9.557512e-01
1.940000e-06	6.861362e-08	1.388722e-11	5.510483e-01	1.625055e+00
1.950000e-06	7.593734e-08	1.976738e-11	6.098665e-01	2.295630e+00
1.960000e-06	8.325880e-08	2.616610e-11	6.686665e-01	2.968475e+00
1.970000e-06	9.055958e-08	3.402762e-11	7.273004e-01	3.645056e+00
1.980000e-06	9.785513e-08	4.419563e-11	7.858922e-01	4.327045e+00
1.990000e-06	1.051450e-07	5.589006e-11	8.444381e-01	5.015991e+00
2.000000e-06	1.124138e-07	6.575028e-11	9.028152e-01	5.712965e+00
2.010000e-06	1.196781e-07	7.314137e-11	9.611561e-01	6.418256e+00
2.020000e-06	1.269399e-07	8.076050e-11	1.019477e+00	7.131179e+00
2.030000e-06	1.341883e-07	9.006589e-11	1.077691e+00	7.850026e+00
2.040000e-06	1.414211e-07	1.002718e-10	1.135778e+00	8.572188e+00
2.050000e-06	1.486266e-07	1.105738e-10	1.193647e+00	9.294437e+00
2.060000e-06	1.558218e-07	1.203595e-10	1.251433e+00	1.001332e+01
2.070000e-06	1.630128e-07	1.298570e-10	1.309185e+00	1.072563e+01
2.080000e-06	1.701828e-07	1.393946e-10	1.366768e+00	1.142881e+01
2.090000e-06	1.773267e-07	1.493042e-10	1.424143e+00	1.212134e+01
2.100000e-06	1.844649e-07	1.599119e-10	1.481471e+00	1.280297e+01
2.110000e-06	1.915883e-07	1.708893e-10	1.538680e+00	1.347468e+01
2.120000e-06	1.986567e-07	1.798021e-10	1.595447e+00	1.413858e+01
2.130000e-06	2.056668e-07	1.844684e-10	1.651748e+00	1.479755e+01
2.140000e-06	2.126530e-07	1.896235e-10	1.707855e+00	1.545484e+01
2.150000e-06	2.196434e-07	1.978294e-10	1.763996e+00	1.611350e+01
2.160000e-06	2.265993e-07	2.069085e-10	1.819860e+00	1.677602e+01
2.170000e-06	2.335134e-07	2.150573e-10	1.875389e+00	1.744388e+01
2.180000e-06	2.404276e-07	2.244134e-10	1.930918e+00	1.811740e+01
2.190000e-06	2.473330e-07	2.366551e-10	1.986376e+00	1.879574e+01
2.200000e-06	2.542008e-07	2.489890e-10	2.041533e+00	1.947701e+01
2.210000e-06	2.610338e-07	2.586548e-10	2.096410e+00	2.015866e+01
2.220000e-06	2.678458e-07	2.650288e-10	2.151118e+00	2.083790e+01
2.230000e-06	2.746296e-07	2.708492e-10	2.205600e+00	2.151208e+01
2.240000e-06	2.813517e-07	2.791527e-10	2.259587e+00	2.217921e+01
2.250000e-06	2.880289e-07	2.895898e-10	2.313212e+00	2.283813e+01
2.260000e-06	2.947081e-07	3.003987e-10	2.366854e+00	2.348875e+01
2.270000e-06	3.013819e-07	3.111728e-10	2.420452e+00	2.413190e+01
2.280000e-06	3.080275e-07	3.228098e-10	2.473824e+00	2.476921e+01
2.290000e-06	3.146461e-07	3.340545e-10	2.526980e+00	2.540273e+01
2.300000e-06	3.212547e-07	3.430293e-10	2.580054e+00	2.603456e+01
2.310000e-06	3.278602e-07	3.511127e-10	2.633105e+00	2.666648e+01
2.320000e-06	3.344530e-07	3.609020e-10	2.686053e+00	2.729963e+01
2.330000e-06	3.410335e-07	3.749358e-10	2.738902e+00	2.793435e+01
2.340000e-06	3.476110e-07	3.899770e-10	2.791727e+00	2.857018e+01
2.350000e-06	3.541813e-07	4.017634e-10	2.844494e+00	2.920603e+01
2.360000e-06	3.607385e-07	4.106941e-10	2.897156e+00	2.984041e+01
2.370000e-06	3.672760e-07	4.199637e-10	2.949660e+00	3.047186e+01
2.380000e-06	3.737884e-07	4.303577e-10	3.001962e+00	3.109927e+01
2.390000e-06	3.802713e-07	4.398414e-10	3.054028e+00	3.172220e+01
2.400000e-06	3.867256e-07	4.490685e-10	3.105863e+00	3.234107e+01
2.410000e-06	3.931536e-07	4.605715e-10	3.157488e+00	3.295721e+01
2.420000e-06	3.995433e-07	4.746693e-10	3.208805e+00	3.357267e+01
2.430000e-06	4.059127e-07	4.880787e-10	3.259958e+00	3.418995e+01
2.440000e-06	4.122578e-07	4.981171e-10	3.310917e+00	3.481159e+01
2.450000e-06	4.185466e-07	5.071431e-10	3.361424e+00	3.543975e+01
2.460000e-06	4.247957e-07	5.182259e-10	3.411611e+00	3.607577e+01
2.470000e-06	4.310307e-07	5.303674e-10	3.461685e+00	3.671993e+01
2.480000e-06	4.372477e-07	5.408495e-10	3.511615e+00	3.737128e+01
2.490000e-06	4.434576e-07	5.508399e-10	3.561488e+00	3.802773e+01
2.500000e-06	4.496509e-07	5.621032e-10	3.611228e+00	3.868628e+01
2.510000e-06	4.557966e-07	5.757365e-10	3.660585e+00	3.934342e+01
2.520000e-06	4.619002e-07	5.893260e-10	3.709604e+00	3.999564e+01
2.530000e-06	4.679796e-07	5.980723e-10	3.758429e+00	4.063990e+01
2.540000e-06	4.740372e-07	6.042392e-10	3.807079e+00	4.127403e+01
2.550000e-06	4.800593e-07	6.116738e-10	3.855443e+00	4.189709e+01
2.560000e-06	4.860372e-07	6.208421e-10	3.903453e+00	4.250937e+01
2.570000e-06	4.919639e-07	6.297334e-10	3.951051e+00	4.311232e+01
2.580000e-06	4.978590e-07	6.385047e-10	3.998396e+00	4.370829e+01
2.590000e-06	5.037321e-07	6.483004e-10	4.045564e+00	4.430003e+01
2.600000e-06	5.095629e-07	6.590935e-10	4.092391e+00	4.489022e+01
2.610000e-06	5.153651e-07	6.690657e-10	4.138991e+00	4.548100e+01
2.620000e-06	5.211627e-07	6.781636e-10	4.185552e+00	4.607361e+01
2.630000e-06	5.269544e-07	6.876768e-10	4.232066e+00	4.666812e+01
2.640000e-06	5.327295e-07	6.972791e-10	4.278447e+00	4.726347e+01
2.650000e-06	5.384802e-07	7.055519e-10	4.324632e+00	4.785763e+01
2.660000e-06	5.441927e-07	7.110048e-10	4.370510e+00	4.844797e+01
2.670000e-06	5.498663e-07	7.163318e-10	4.416076e+00	4.903175e+01
2.680000e-06	5.555056e-07	7.248786e-10	4.461366e+00	4.960655e+01
2.690000e-06	5.610774e-07	7.378064e-10	4.506114e+00	5.017078e+01
2.700000e-06	5.665629e-07	7.506103e-10	4.550169e+00	5.072394e+01
2.710000e-06	5.719778e-07	7.607312e-10	4.593657e+00	5.126677e+01
2.720000e-06	5.773226e-07	7.692519e-10	4.636582e+00	5.180111e+01
2.730000e-06	5.826010e-07	7.767366e-10	4.678974e+00	5.232965e+01
2.740000e-06	5.878228e-07	7.833661e-10	4.720911e+00	5.285546e+01
2.750000e-06	5.929813e-07	7.876448e-10	4.762340e+00	5.338149e+01
2.760000e-06	5.980870e-07	7.917223e-10	4.803345e+00	5.391003e+01
2.770000e-06	6.031526e-07	7.997815e-10	4.844027e+00	5.444232e+01
2.780000e-06	6.081820e-07	8.108369e-10	4.884419e+00	5.497829e+01
2.790000e-06	6.131857e-07	8.214683e-10	4.924605e+00	5.551653e+01
2.800000e-06	6.181624e-07	8.312338e-10	4.964574e+00	5.605446e+01
2.810000e-06	6.231000e-07	8.411031e-10	5.004228e+00	5.658871e+01
2.820000e-06	6.279965e-07	8.493904e-10	5.043553e+00	5.711564e+01
2.830000e-06	6.328522e-07	8.553853e-10	5.082551e+00	5.763185e+01
2.840000e-06	6.376881e-07	8.597639e-10	5.121388e+00	5.813475e+01
2.850000e-06	6.424831e-07	8.619974e-10	5.159898e+00	5.862295e+01
2.860000e-06	6.472065e-07	8.639795e-10	5.197833e+00	5.909641e+01
2.870000e-06	6.518850e-07	8.706376e-10	5.235406e+00	5.955651e+01
2.880000e-06	6.565238e-07	8.818181e-10	5.272662e+00	6.000578e+01
2.890000e-06	6.611241e-07	8.917188e-10	5.309607e+00	6.044754e+01
2.900000e-06	6.656839e-07	9.000270e-10	5.346227e+00	6.088539e+01
