# Temperatura_=_20.0
# Concentracion g/m^3_=_10000.0
# C_Vs_to_Am_M_A/Vsm_=_65563218390.804596
# pendiente_HvsI_1/m_=_3716.3
# ordenada_HvsI_A/m_=_1297.0
# frecuencia_Hz_=_135112.43751825418

Tiempo_(s)	Campo_(V.s)	Magnetizacion_(V.s)	Campo_(kA/m)	Magnetizacion_(A/m)
0.000000e+00	-8.533862e-07	-1.296487e-09	-6.854437e+00	-8.303371e+01
1.000000e-08	-8.533733e-07	-1.309576e-09	-6.854333e+00	-8.299599e+01
2.000000e-08	-8.533386e-07	-1.301074e-09	-6.854055e+00	-8.295140e+01
3.000000e-08	-8.532367e-07	-1.284361e-09	-6.853236e+00	-8.290315e+01
4.000000e-08	-8.530580e-07	-1.289980e-09	-6.851801e+00	-8.285433e+01
5.000000e-08	-8.528212e-07	-1.292782e-09	-6.849899e+00	-8.280774e+01
6.000000e-08	-8.525059e-07	-1.303021e-09	-6.847366e+00	-8.276574e+01
7.000000e-08	-8.521368e-07	-1.303018e-09	-6.844402e+00	-8.273017e+01
8.000000e-08	-8.517439e-07	-1.314853e-09	-6.841246e+00	-8.270220e+01
9.000000e-08	-8.512987e-07	-1.340309e-09	-6.837670e+00	-8.268222e+01
1.000000e-07	-8.508003e-07	-1.312936e-09	-6.833667e+00	-8.266975e+01
1.100000e-07	-8.502363e-07	-1.284148e-09	-6.829137e+00	-8.266341e+01
1.200000e-07	-8.495988e-07	-1.282963e-09	-6.824016e+00	-8.266091e+01
1.300000e-07	-8.488487e-07	-1.271339e-09	-6.817992e+00	-8.265913e+01
1.400000e-07	-8.479768e-07	-1.287535e-09	-6.810989e+00	-8.265433e+01
1.500000e-07	-8.470146e-07	-1.323043e-09	-6.803260e+00	-8.264242e+01
1.600000e-07	-8.459842e-07	-1.320641e-09	-6.794984e+00	-8.261927e+01
1.700000e-07	-8.449103e-07	-1.304321e-09	-6.786358e+00	-8.258113e+01
1.800000e-07	-8.438122e-07	-1.295210e-09	-6.777538e+00	-8.252499e+01
1.900000e-07	-8.426795e-07	-1.292352e-09	-6.768441e+00	-8.244896e+01
2.000000e-07	-8.414883e-07	-1.289317e-09	-6.758873e+00	-8.235242e+01
2.100000e-07	-8.402321e-07	-1.281329e-09	-6.748783e+00	-8.223623e+01
2.200000e-07	-8.389138e-07	-1.275230e-09	-6.738194e+00	-8.210257e+01
2.300000e-07	-8.375354e-07	-1.289783e-09	-6.727123e+00	-8.195477e+01
2.400000e-07	-8.361124e-07	-1.287948e-09	-6.715693e+00	-8.179693e+01
2.500000e-07	-8.346469e-07	-1.279232e-09	-6.703922e+00	-8.163345e+01
2.600000e-07	-8.331063e-07	-1.270744e-09	-6.691548e+00	-8.146851e+01
2.700000e-07	-8.315039e-07	-1.266121e-09	-6.678677e+00	-8.130560e+01
2.800000e-07	-8.298434e-07	-1.258046e-09	-6.665340e+00	-8.114713e+01
2.900000e-07	-8.281212e-07	-1.258670e-09	-6.651507e+00	-8.099413e+01
3.000000e-07	-8.263533e-07	-1.261368e-09	-6.637308e+00	-8.084625e+01
3.100000e-07	-8.245345e-07	-1.254880e-09	-6.622699e+00	-8.070184e+01
3.200000e-07	-8.226699e-07	-1.247754e-09	-6.607722e+00	-8.055823e+01
3.300000e-07	-8.207569e-07	-1.241310e-09	-6.592357e+00	-8.041217e+01
3.400000e-07	-8.187744e-07	-1.242012e-09	-6.576433e+00	-8.026032e+01
3.500000e-07	-8.167200e-07	-1.242194e-09	-6.559932e+00	-8.009969e+01
3.600000e-07	-8.146083e-07	-1.242351e-09	-6.542971e+00	-7.992806e+01
3.700000e-07	-8.124164e-07	-1.234702e-09	-6.525366e+00	-7.974427e+01
3.800000e-07	-8.101188e-07	-1.228552e-09	-6.506911e+00	-7.954827e+01
3.900000e-07	-8.077450e-07	-1.223331e-09	-6.487845e+00	-7.934104e+01
4.000000e-07	-8.052963e-07	-1.222682e-09	-6.468177e+00	-7.912439e+01
4.100000e-07	-8.027659e-07	-1.215351e-09	-6.447852e+00	-7.890053e+01
4.200000e-07	-8.001665e-07	-1.208285e-09	-6.426974e+00	-7.867167e+01
4.300000e-07	-7.975077e-07	-1.204493e-09	-6.405618e+00	-7.843963e+01
4.400000e-07	-7.947957e-07	-1.202499e-09	-6.383835e+00	-7.820545e+01
4.500000e-07	-7.920295e-07	-1.196354e-09	-6.361617e+00	-7.796926e+01
4.600000e-07	-7.892187e-07	-1.188941e-09	-6.339041e+00	-7.773015e+01
4.700000e-07	-7.863401e-07	-1.185019e-09	-6.315920e+00	-7.748638e+01
4.800000e-07	-7.833935e-07	-1.186548e-09	-6.292252e+00	-7.723557e+01
4.900000e-07	-7.803826e-07	-1.186399e-09	-6.268069e+00	-7.697509e+01
5.000000e-07	-7.773078e-07	-1.179044e-09	-6.243372e+00	-7.670248e+01
5.100000e-07	-7.741671e-07	-1.168822e-09	-6.218146e+00	-7.641573e+01
5.200000e-07	-7.709653e-07	-1.160962e-09	-6.192429e+00	-7.611364e+01
5.300000e-07	-7.677101e-07	-1.160303e-09	-6.166283e+00	-7.579592e+01
5.400000e-07	-7.643670e-07	-1.161535e-09	-6.139431e+00	-7.546317e+01
5.500000e-07	-7.609474e-07	-1.162332e-09	-6.111964e+00	-7.511675e+01
5.600000e-07	-7.574795e-07	-1.159435e-09	-6.084110e+00	-7.475849e+01
5.700000e-07	-7.539364e-07	-1.154357e-09	-6.055652e+00	-7.439039e+01
5.800000e-07	-7.503341e-07	-1.145807e-09	-6.026718e+00	-7.401425e+01
5.900000e-07	-7.466841e-07	-1.137778e-09	-5.997401e+00	-7.363145e+01
6.000000e-07	-7.429848e-07	-1.130414e-09	-5.967688e+00	-7.324271e+01
6.100000e-07	-7.392501e-07	-1.126078e-09	-5.937690e+00	-7.284814e+01
6.200000e-07	-7.354775e-07	-1.122855e-09	-5.907389e+00	-7.244728e+01
6.300000e-07	-7.316644e-07	-1.119961e-09	-5.876762e+00	-7.203939e+01
6.400000e-07	-7.277717e-07	-1.114610e-09	-5.845495e+00	-7.162372e+01
6.500000e-07	-7.238239e-07	-1.107394e-09	-5.813787e+00	-7.119983e+01
6.600000e-07	-7.198368e-07	-1.099674e-09	-5.781762e+00	-7.076793e+01
6.700000e-07	-7.157863e-07	-1.091862e-09	-5.749228e+00	-7.032902e+01
6.800000e-07	-7.116754e-07	-1.086162e-09	-5.716210e+00	-6.988492e+01
6.900000e-07	-7.075162e-07	-1.081733e-09	-5.682803e+00	-6.943824e+01
7.000000e-07	-7.033191e-07	-1.076119e-09	-5.649091e+00	-6.899202e+01
7.100000e-07	-6.990867e-07	-1.067331e-09	-5.615096e+00	-6.854944e+01
7.200000e-07	-6.948294e-07	-1.057536e-09	-5.580902e+00	-6.811333e+01
7.300000e-07	-6.905471e-07	-1.049491e-09	-5.546506e+00	-6.768582e+01
7.400000e-07	-6.862326e-07	-1.045327e-09	-5.511852e+00	-6.726794e+01
7.500000e-07	-6.818768e-07	-1.042052e-09	-5.476866e+00	-6.685943e+01
7.600000e-07	-6.774748e-07	-1.038401e-09	-5.441508e+00	-6.645874e+01
7.700000e-07	-6.730189e-07	-1.033246e-09	-5.405718e+00	-6.606315e+01
7.800000e-07	-6.685134e-07	-1.026718e-09	-5.369530e+00	-6.566911e+01
7.900000e-07	-6.639626e-07	-1.017370e-09	-5.332978e+00	-6.527267e+01
8.000000e-07	-6.593680e-07	-1.006709e-09	-5.296074e+00	-6.486999e+01
8.100000e-07	-6.547425e-07	-9.988852e-10	-5.258922e+00	-6.445781e+01
8.200000e-07	-6.500904e-07	-9.923939e-10	-5.221556e+00	-6.403391e+01
8.300000e-07	-6.453919e-07	-9.850821e-10	-5.183818e+00	-6.359728e+01
8.400000e-07	-6.406272e-07	-9.780850e-10	-5.145547e+00	-6.314829e+01
8.500000e-07	-6.358003e-07	-9.705060e-10	-5.106777e+00	-6.268854e+01
8.600000e-07	-6.309261e-07	-9.609170e-10	-5.067627e+00	-6.222063e+01
8.700000e-07	-6.260169e-07	-9.506599e-10	-5.028197e+00	-6.174770e+01
8.800000e-07	-6.210676e-07	-9.411519e-10	-4.988444e+00	-6.127306e+01
8.900000e-07	-6.160796e-07	-9.330575e-10	-4.948380e+00	-6.079967e+01
9.000000e-07	-6.110643e-07	-9.251690e-10	-4.908096e+00	-6.032982e+01
9.100000e-07	-6.060091e-07	-9.161104e-10	-4.867493e+00	-5.986484e+01
9.200000e-07	-6.009216e-07	-9.060040e-10	-4.826630e+00	-5.940503e+01
9.300000e-07	-5.958088e-07	-8.974116e-10	-4.785563e+00	-5.894969e+01
9.400000e-07	-5.906672e-07	-8.914263e-10	-4.744266e+00	-5.849736e+01
9.500000e-07	-5.854801e-07	-8.866839e-10	-4.702603e+00	-5.804607e+01
9.600000e-07	-5.802081e-07	-8.812206e-10	-4.660258e+00	-5.759371e+01
9.700000e-07	-5.748589e-07	-8.736715e-10	-4.617293e+00	-5.713833e+01
9.800000e-07	-5.694412e-07	-8.651602e-10	-4.573778e+00	-5.667839e+01
9.900000e-07	-5.639561e-07	-8.550112e-10	-4.529721e+00	-5.621291e+01
1.000000e-06	-5.584005e-07	-8.440423e-10	-4.485098e+00	-5.574149e+01
1.010000e-06	-5.527837e-07	-8.352970e-10	-4.439984e+00	-5.526420e+01
1.020000e-06	-5.471189e-07	-8.288359e-10	-4.394484e+00	-5.478141e+01
1.030000e-06	-5.413979e-07	-8.239314e-10	-4.348533e+00	-5.429353e+01
1.040000e-06	-5.356284e-07	-8.184888e-10	-4.302192e+00	-5.380079e+01
1.050000e-06	-5.298439e-07	-8.104150e-10	-4.255730e+00	-5.330306e+01
1.060000e-06	-5.240495e-07	-8.014490e-10	-4.209189e+00	-5.279972e+01
1.070000e-06	-5.182301e-07	-7.927567e-10	-4.162448e+00	-5.228968e+01
1.080000e-06	-5.123922e-07	-7.824963e-10	-4.115558e+00	-5.177151e+01
1.090000e-06	-5.065362e-07	-7.716676e-10	-4.068522e+00	-5.124362e+01
1.100000e-06	-5.006521e-07	-7.626239e-10	-4.021261e+00	-5.070454e+01
1.110000e-06	-4.947371e-07	-7.548640e-10	-3.973751e+00	-5.015316e+01
1.120000e-06	-4.887889e-07	-7.461252e-10	-3.925975e+00	-4.958899e+01
1.130000e-06	-4.827818e-07	-7.340868e-10	-3.877726e+00	-4.901230e+01
1.140000e-06	-4.767340e-07	-7.244764e-10	-3.829149e+00	-4.842414e+01
1.150000e-06	-4.706666e-07	-7.190020e-10	-3.780416e+00	-4.782632e+01
1.160000e-06	-4.645687e-07	-7.132184e-10	-3.731437e+00	-4.722116e+01
1.170000e-06	-4.584219e-07	-7.048172e-10	-3.682065e+00	-4.661131e+01
1.180000e-06	-4.522368e-07	-6.956426e-10	-3.632386e+00	-4.599941e+01
1.190000e-06	-4.460483e-07	-6.870671e-10	-3.582680e+00	-4.538783e+01
1.200000e-06	-4.398455e-07	-6.784049e-10	-3.532859e+00	-4.477844e+01
1.210000e-06	-4.336173e-07	-6.685132e-10	-3.482834e+00	-4.417247e+01
1.220000e-06	-4.273716e-07	-6.585838e-10	-3.432668e+00	-4.357048e+01
1.230000e-06	-4.211084e-07	-6.513864e-10	-3.382362e+00	-4.297244e+01
1.240000e-06	-4.148175e-07	-6.452667e-10	-3.331833e+00	-4.237784e+01
1.250000e-06	-4.084963e-07	-6.378213e-10	-3.281061e+00	-4.178597e+01
1.260000e-06	-4.021399e-07	-6.288794e-10	-3.230006e+00	-4.119605e+01
1.270000e-06	-3.957545e-07	-6.221132e-10	-3.178719e+00	-4.060746e+01
1.280000e-06	-3.893407e-07	-6.167190e-10	-3.127203e+00	-4.001987e+01
1.290000e-06	-3.828984e-07	-6.093729e-10	-3.075457e+00	-3.943323e+01
1.300000e-06	-3.764341e-07	-5.980324e-10	-3.023536e+00	-3.884776e+01
1.310000e-06	-3.699539e-07	-5.863824e-10	-2.971487e+00	-3.826378e+01
1.320000e-06	-3.634525e-07	-5.770436e-10	-2.919267e+00	-3.768155e+01
1.330000e-06	-3.569143e-07	-5.697348e-10	-2.866752e+00	-3.710108e+01
1.340000e-06	-3.503531e-07	-5.635675e-10	-2.814052e+00	-3.652202e+01
1.350000e-06	-3.437709e-07	-5.596496e-10	-2.761183e+00	-3.594350e+01
1.360000e-06	-3.371683e-07	-5.545262e-10	-2.708151e+00	-3.536424e+01
1.370000e-06	-3.305514e-07	-5.440213e-10	-2.655004e+00	-3.478257e+01
1.380000e-06	-3.239150e-07	-5.313468e-10	-2.601700e+00	-3.419669e+01
1.390000e-06	-3.172674e-07	-5.194042e-10	-2.548306e+00	-3.360492e+01
1.400000e-06	-3.106124e-07	-5.111685e-10	-2.494853e+00	-3.300591e+01
1.410000e-06	-3.039347e-07	-5.059997e-10	-2.441218e+00	-3.239897e+01
1.420000e-06	-2.972399e-07	-5.014342e-10	-2.387445e+00	-3.178416e+01
1.430000e-06	-2.905334e-07	-4.942767e-10	-2.333578e+00	-3.116237e+01
1.440000e-06	-2.838032e-07	-4.832870e-10	-2.279521e+00	-3.053525e+01
1.450000e-06	-2.770610e-07	-4.699182e-10	-2.225367e+00	-2.990502e+01
1.460000e-06	-2.703160e-07	-4.563135e-10	-2.171191e+00	-2.927420e+01
1.470000e-06	-2.635492e-07	-4.455137e-10	-2.116839e+00	-2.864526e+01
1.480000e-06	-2.567633e-07	-4.373685e-10	-2.062335e+00	-2.802025e+01
1.490000e-06	-2.499526e-07	-4.285105e-10	-2.007631e+00	-2.740056e+01
1.500000e-06	-2.430828e-07	-4.183575e-10	-1.952452e+00	-2.678667e+01
1.510000e-06	-2.361675e-07	-4.088341e-10	-1.896908e+00	-2.617813e+01
1.520000e-06	-2.292276e-07	-3.991206e-10	-1.841166e+00	-2.557353e+01
1.530000e-06	-2.222688e-07	-3.867569e-10	-1.785273e+00	-2.497078e+01
1.540000e-06	-2.152901e-07	-3.730437e-10	-1.729220e+00	-2.436732e+01
1.550000e-06	-2.082924e-07	-3.612884e-10	-1.673014e+00	-2.376049e+01
1.560000e-06	-2.012878e-07	-3.532538e-10	-1.616753e+00	-2.314785e+01
1.570000e-06	-1.942545e-07	-3.471566e-10	-1.560261e+00	-2.252745e+01
1.580000e-06	-1.871998e-07	-3.393961e-10	-1.503597e+00	-2.189805e+01
1.590000e-06	-1.801281e-07	-3.284122e-10	-1.446797e+00	-2.125918e+01
1.600000e-06	-1.730169e-07	-3.175425e-10	-1.389680e+00	-2.061110e+01
1.610000e-06	-1.658774e-07	-3.076387e-10	-1.332335e+00	-1.995462e+01
1.620000e-06	-1.587125e-07	-2.952223e-10	-1.274786e+00	-1.929094e+01
1.630000e-06	-1.515096e-07	-2.798532e-10	-1.216932e+00	-1.862134e+01
1.640000e-06	-1.442947e-07	-2.654608e-10	-1.158981e+00	-1.794699e+01
1.650000e-06	-1.370796e-07	-2.572457e-10	-1.101030e+00	-1.726874e+01
1.660000e-06	-1.298364e-07	-2.511311e-10	-1.042852e+00	-1.658703e+01
1.670000e-06	-1.225814e-07	-2.416787e-10	-9.845794e-01	-1.590193e+01
1.680000e-06	-1.153286e-07	-2.306286e-10	-9.263244e-01	-1.521321e+01
1.690000e-06	-1.080532e-07	-2.206035e-10	-8.678882e-01	-1.452051e+01
1.700000e-06	-1.007553e-07	-2.106985e-10	-8.092714e-01	-1.382352e+01
1.710000e-06	-9.344856e-08	-1.986311e-10	-7.505831e-01	-1.312220e+01
1.720000e-06	-8.614410e-08	-1.857585e-10	-6.919134e-01	-1.241687e+01
1.730000e-06	-7.883586e-08	-1.752613e-10	-6.332133e-01	-1.170828e+01
1.740000e-06	-7.151600e-08	-1.666228e-10	-5.744197e-01	-1.099755e+01
1.750000e-06	-6.418117e-08	-1.582950e-10	-5.155061e-01	-1.028608e+01
1.760000e-06	-5.684737e-08	-1.497169e-10	-4.566007e-01	-9.575331e+00
1.770000e-06	-4.952398e-08	-1.402350e-10	-3.977789e-01	-8.866597e+00
1.780000e-06	-4.220708e-08	-1.312809e-10	-3.390092e-01	-8.160838e+00
1.790000e-06	-3.489168e-08	-1.218385e-10	-2.802515e-01	-7.458519e+00
1.800000e-06	-2.755295e-08	-1.088832e-10	-2.213066e-01	-6.759560e+00
1.810000e-06	-2.020586e-08	-9.590230e-11	-1.622944e-01	-6.063390e+00
1.820000e-06	-1.285897e-08	-8.565704e-11	-1.032838e-01	-5.369098e+00
1.830000e-06	-5.510129e-09	-7.585645e-11	-4.425760e-02	-4.675660e+00
1.840000e-06	1.836434e-09	-6.620575e-11	1.475032e-02	-3.982198e+00
1.850000e-06	9.189375e-09	-5.879308e-11	7.380948e-02	-3.288227e+00
1.860000e-06	1.652890e-08	-5.528206e-11	1.327609e-01	-2.593825e+00
1.870000e-06	2.386754e-08	-5.096817e-11	1.917052e-01	-1.899711e+00
1.880000e-06	3.122052e-08	-4.133779e-11	2.507646e-01	-1.207178e+00
1.890000e-06	3.854865e-08	-2.896308e-11	3.096245e-01	-5.179056e-01
1.900000e-06	4.585520e-08	-1.793230e-11	3.683111e-01	1.663369e-01
1.910000e-06	5.316667e-08	-8.380210e-12	4.270371e-01	8.440501e-01
1.920000e-06	6.048670e-08	1.892964e-12	4.858320e-01	1.514359e+00
1.930000e-06	6.780114e-08	1.308571e-11	5.445819e-01	2.177300e+00
1.940000e-06	7.510311e-08	2.167000e-11	6.032316e-01	2.833987e+00
1.950000e-06	8.241955e-08	2.790629e-11	6.619976e-01	3.486602e+00
1.960000e-06	8.974838e-08	3.569375e-11	7.208631e-01	4.138205e+00
1.970000e-06	9.705947e-08	4.578205e-11	7.795861e-01	4.792371e+00
1.980000e-06	1.043562e-07	5.571898e-11	8.381937e-01	5.452698e+00
1.990000e-06	1.116366e-07	6.309623e-11	8.966704e-01	6.122262e+00
2.000000e-06	1.188903e-07	7.097618e-11	9.549322e-01	6.803091e+00
2.010000e-06	1.261317e-07	8.246402e-11	1.013096e+00	7.495748e+00
2.020000e-06	1.333613e-07	9.534430e-11	1.071164e+00	8.199103e+00
2.030000e-06	1.405877e-07	1.069545e-10	1.129207e+00	8.910333e+00
2.040000e-06	1.478091e-07	1.173769e-10	1.187210e+00	9.625174e+00
2.050000e-06	1.550111e-07	1.261585e-10	1.245056e+00	1.033839e+01
2.060000e-06	1.621937e-07	1.337112e-10	1.302747e+00	1.104444e+01
2.070000e-06	1.693386e-07	1.413828e-10	1.360135e+00	1.173819e+01
2.080000e-06	1.764467e-07	1.507626e-10	1.417228e+00	1.241562e+01
2.090000e-06	1.835378e-07	1.627607e-10	1.474184e+00	1.307445e+01
2.100000e-06	1.906165e-07	1.763843e-10	1.531040e+00	1.371448e+01
2.110000e-06	1.976642e-07	1.883432e-10	1.587648e+00	1.433774e+01
2.120000e-06	2.046743e-07	1.976834e-10	1.643953e+00	1.494825e+01
2.130000e-06	2.116574e-07	2.064352e-10	1.700042e+00	1.555161e+01
2.140000e-06	2.186249e-07	2.144163e-10	1.756005e+00	1.615428e+01
2.150000e-06	2.255681e-07	2.223831e-10	1.811774e+00	1.676282e+01
2.160000e-06	2.324812e-07	2.317308e-10	1.867299e+00	1.738300e+01
2.170000e-06	2.393742e-07	2.430544e-10	1.922664e+00	1.801917e+01
2.180000e-06	2.462337e-07	2.555661e-10	1.977761e+00	1.867365e+01
2.190000e-06	2.530532e-07	2.681112e-10	2.032535e+00	1.934655e+01
2.200000e-06	2.598582e-07	2.790661e-10	2.087193e+00	2.003575e+01
2.210000e-06	2.666454e-07	2.873787e-10	2.141708e+00	2.073728e+01
2.220000e-06	2.733886e-07	2.945800e-10	2.195870e+00	2.144588e+01
2.230000e-06	2.801121e-07	3.038852e-10	2.249873e+00	2.215570e+01
2.240000e-06	2.868199e-07	3.156615e-10	2.303751e+00	2.286110e+01
2.250000e-06	2.934993e-07	3.282976e-10	2.357400e+00	2.355733e+01
2.260000e-06	3.001678e-07	3.417688e-10	2.410962e+00	2.424108e+01
2.270000e-06	3.068246e-07	3.548109e-10	2.464429e+00	2.491082e+01
2.280000e-06	3.134657e-07	3.659910e-10	2.517771e+00	2.556686e+01
2.290000e-06	3.200975e-07	3.744395e-10	2.571038e+00	2.621112e+01
2.300000e-06	3.267202e-07	3.825245e-10	2.624232e+00	2.684677e+01
2.310000e-06	3.333378e-07	3.930572e-10	2.677384e+00	2.747764e+01
2.320000e-06	3.399377e-07	4.060360e-10	2.730395e+00	2.810765e+01
2.330000e-06	3.465176e-07	4.206254e-10	2.783245e+00	2.874023e+01
2.340000e-06	3.530918e-07	4.335077e-10	2.836050e+00	2.937793e+01
2.350000e-06	3.596606e-07	4.423237e-10	2.888810e+00	3.002209e+01
2.360000e-06	3.662104e-07	4.497235e-10	2.941418e+00	3.067284e+01
2.370000e-06	3.727327e-07	4.575215e-10	2.993806e+00	3.132923e+01
2.380000e-06	3.792135e-07	4.659470e-10	3.045860e+00	3.198950e+01
2.390000e-06	3.856552e-07	4.762757e-10	3.097600e+00	3.265148e+01
2.400000e-06	3.920766e-07	4.904301e-10	3.149177e+00	3.331299e+01
2.410000e-06	3.984658e-07	5.067211e-10	3.200495e+00	3.397224e+01
2.420000e-06	4.048182e-07	5.201590e-10	3.251519e+00	3.462801e+01
2.430000e-06	4.111405e-07	5.299608e-10	3.302300e+00	3.527982e+01
2.440000e-06	4.174321e-07	5.393278e-10	3.352833e+00	3.592784e+01
2.450000e-06	4.236891e-07	5.490154e-10	3.403090e+00	3.657279e+01
2.460000e-06	4.299249e-07	5.587209e-10	3.453176e+00	3.721560e+01
2.470000e-06	4.361433e-07	5.680756e-10	3.503123e+00	3.785720e+01
2.480000e-06	4.423344e-07	5.763467e-10	3.552850e+00	3.849823e+01
2.490000e-06	4.485077e-07	5.860076e-10	3.602434e+00	3.913885e+01
2.500000e-06	4.546670e-07	5.964961e-10	3.651906e+00	3.977869e+01
2.510000e-06	4.608042e-07	6.055950e-10	3.701201e+00	4.041691e+01
2.520000e-06	4.669081e-07	6.133646e-10	3.750227e+00	4.105236e+01
2.530000e-06	4.729559e-07	6.216783e-10	3.798804e+00	4.168383e+01
2.540000e-06	4.789577e-07	6.314965e-10	3.847010e+00	4.231030e+01
2.550000e-06	4.849387e-07	6.410520e-10	3.895050e+00	4.293122e+01
2.560000e-06	4.908790e-07	6.485894e-10	3.942762e+00	4.354659e+01
2.570000e-06	4.967877e-07	6.569464e-10	3.990221e+00	4.415707e+01
2.580000e-06	5.026845e-07	6.678859e-10	4.037585e+00	4.476385e+01
2.590000e-06	5.085462e-07	6.782237e-10	4.084666e+00	4.536844e+01
2.600000e-06	5.143812e-07	6.874522e-10	4.131534e+00	4.597235e+01
2.610000e-06	5.202073e-07	6.978513e-10	4.178329e+00	4.657681e+01
2.620000e-06	5.260198e-07	7.096138e-10	4.225015e+00	4.718244e+01
2.630000e-06	5.318171e-07	7.194508e-10	4.271579e+00	4.778899e+01
2.640000e-06	5.375888e-07	7.267807e-10	4.317938e+00	4.839532e+01
2.650000e-06	5.433227e-07	7.332180e-10	4.363992e+00	4.899940e+01
2.660000e-06	5.490126e-07	7.391822e-10	4.409694e+00	4.959858e+01
2.670000e-06	5.546544e-07	7.447142e-10	4.455010e+00	5.018988e+01
2.680000e-06	5.602088e-07	7.515724e-10	4.499623e+00	5.077047e+01
2.690000e-06	5.656774e-07	7.605526e-10	4.543547e+00	5.133803e+01
2.700000e-06	5.710912e-07	7.709813e-10	4.587031e+00	5.189115e+01
2.710000e-06	5.764416e-07	7.815830e-10	4.630005e+00	5.242958e+01
2.720000e-06	5.817402e-07	7.894919e-10	4.672564e+00	5.295433e+01
2.730000e-06	5.869770e-07	7.968124e-10	4.714626e+00	5.346752e+01
2.740000e-06	5.921439e-07	8.048500e-10	4.756127e+00	5.397217e+01
2.750000e-06	5.972667e-07	8.123212e-10	4.797273e+00	5.447178e+01
2.760000e-06	6.023479e-07	8.196734e-10	4.838086e+00	5.496986e+01
2.770000e-06	6.073907e-07	8.264325e-10	4.878590e+00	5.546945e+01
2.780000e-06	6.124085e-07	8.344071e-10	4.918893e+00	5.597275e+01
2.790000e-06	6.174007e-07	8.452884e-10	4.958991e+00	5.648081e+01
2.800000e-06	6.223628e-07	8.566004e-10	4.998847e+00	5.699348e+01
2.810000e-06	6.272714e-07	8.650972e-10	5.038273e+00	5.750940e+01
2.820000e-06	6.321328e-07	8.736184e-10	5.077320e+00	5.802637e+01
2.830000e-06	6.369684e-07	8.838453e-10	5.116159e+00	5.854158e+01
2.840000e-06	6.417662e-07	8.918518e-10	5.154696e+00	5.905214e+01
2.850000e-06	6.465136e-07	8.954903e-10	5.192827e+00	5.955549e+01
2.860000e-06	6.512008e-07	8.992088e-10	5.230475e+00	6.004969e+01
2.870000e-06	6.558371e-07	9.085126e-10	5.267713e+00	6.053372e+01
2.880000e-06	6.604368e-07	9.208903e-10	5.304659e+00	6.100753e+01
2.890000e-06	6.649869e-07	9.307124e-10	5.341205e+00	6.147198e+01
2.900000e-06	6.694887e-07	9.381055e-10	5.377364e+00	6.192860e+01
2.910000e-06	6.739649e-07	9.473299e-10	5.413317e+00	6.237933e+01
