# Temperatura_=_20.0
# Concentracion g/m^3_=_10000.0
# C_Vs_to_Am_M_A/Vsm_=_65563218390.804596
# pendiente_HvsI_1/m_=_3716.3
# ordenada_HvsI_A/m_=_1297.0
# frecuencia_Hz_=_135113.75926687373

Tiempo_(s)	Campo_(V.s)	Magnetizacion_(V.s)	Campo_(kA/m)	Magnetizacion_(A/m)
0.000000e+00	-8.536554e-07	-1.279596e-09	-6.852747e+00	-8.370964e+01
1.000000e-08	-8.536487e-07	-1.296469e-09	-6.852694e+00	-8.376977e+01
2.000000e-08	-8.536226e-07	-1.297774e-09	-6.852484e+00	-8.381512e+01
3.000000e-08	-8.535403e-07	-1.284349e-09	-6.851823e+00	-8.384589e+01
4.000000e-08	-8.534030e-07	-1.260894e-09	-6.850721e+00	-8.386334e+01
5.000000e-08	-8.532242e-07	-1.250326e-09	-6.849286e+00	-8.386974e+01
6.000000e-08	-8.529475e-07	-1.261598e-09	-6.847065e+00	-8.386826e+01
7.000000e-08	-8.526011e-07	-1.276901e-09	-6.844284e+00	-8.386258e+01
8.000000e-08	-8.522282e-07	-1.298273e-09	-6.841290e+00	-8.385648e+01
9.000000e-08	-8.517985e-07	-1.313024e-09	-6.837841e+00	-8.385335e+01
1.000000e-07	-8.513154e-07	-1.301938e-09	-6.833963e+00	-8.385564e+01
1.100000e-07	-8.507838e-07	-1.274553e-09	-6.829695e+00	-8.386451e+01
1.200000e-07	-8.501907e-07	-1.255708e-09	-6.824934e+00	-8.387949e+01
1.300000e-07	-8.494990e-07	-1.247470e-09	-6.819382e+00	-8.389844e+01
1.400000e-07	-8.486829e-07	-1.261070e-09	-6.812830e+00	-8.391770e+01
1.500000e-07	-8.477516e-07	-1.280584e-09	-6.805354e+00	-8.393246e+01
1.600000e-07	-8.467536e-07	-1.291800e-09	-6.797343e+00	-8.393726e+01
1.700000e-07	-8.457024e-07	-1.289974e-09	-6.788904e+00	-8.392672e+01
1.800000e-07	-8.446238e-07	-1.275796e-09	-6.780246e+00	-8.389612e+01
1.900000e-07	-8.435235e-07	-1.264166e-09	-6.771413e+00	-8.384207e+01
2.000000e-07	-8.423717e-07	-1.265447e-09	-6.762167e+00	-8.376292e+01
2.100000e-07	-8.411326e-07	-1.260462e-09	-6.752220e+00	-8.365903e+01
2.200000e-07	-8.398127e-07	-1.258385e-09	-6.741625e+00	-8.353266e+01
2.300000e-07	-8.384436e-07	-1.260308e-09	-6.730634e+00	-8.338780e+01
2.400000e-07	-8.370557e-07	-1.262434e-09	-6.719493e+00	-8.322954e+01
2.500000e-07	-8.356297e-07	-1.251693e-09	-6.708045e+00	-8.306353e+01
2.600000e-07	-8.341333e-07	-1.241899e-09	-6.696033e+00	-8.289518e+01
2.700000e-07	-8.325728e-07	-1.238187e-09	-6.683506e+00	-8.272903e+01
2.800000e-07	-8.309381e-07	-1.237904e-09	-6.670383e+00	-8.256820e+01
2.900000e-07	-8.292271e-07	-1.240639e-09	-6.656648e+00	-8.241403e+01
3.000000e-07	-8.274731e-07	-1.239953e-09	-6.642568e+00	-8.226601e+01
3.100000e-07	-8.256985e-07	-1.234106e-09	-6.628322e+00	-8.212195e+01
3.200000e-07	-8.238719e-07	-1.223079e-09	-6.613659e+00	-8.197834e+01
3.300000e-07	-8.219799e-07	-1.218556e-09	-6.598471e+00	-8.183094e+01
3.400000e-07	-8.200479e-07	-1.216594e-09	-6.582962e+00	-8.167538e+01
3.500000e-07	-8.180682e-07	-1.219776e-09	-6.567070e+00	-8.150778e+01
3.600000e-07	-8.160067e-07	-1.219104e-09	-6.550521e+00	-8.132528e+01
3.700000e-07	-8.138654e-07	-1.217814e-09	-6.533331e+00	-8.112636e+01
3.800000e-07	-8.116308e-07	-1.211974e-09	-6.515394e+00	-8.091095e+01
3.900000e-07	-8.092945e-07	-1.206640e-09	-6.496639e+00	-8.068034e+01
4.000000e-07	-8.068793e-07	-1.201648e-09	-6.477250e+00	-8.043689e+01
4.100000e-07	-8.043814e-07	-1.200180e-09	-6.457199e+00	-8.018351e+01
4.200000e-07	-8.018045e-07	-1.196500e-09	-6.436512e+00	-7.992326e+01
4.300000e-07	-7.991780e-07	-1.192903e-09	-6.415428e+00	-7.965876e+01
4.400000e-07	-7.965000e-07	-1.188898e-09	-6.393930e+00	-7.939184e+01
4.500000e-07	-7.937730e-07	-1.185680e-09	-6.372039e+00	-7.912329e+01
4.600000e-07	-7.909952e-07	-1.180780e-09	-6.349740e+00	-7.885283e+01
4.700000e-07	-7.881320e-07	-1.174766e-09	-6.326756e+00	-7.857920e+01
4.800000e-07	-7.852007e-07	-1.171068e-09	-6.303225e+00	-7.830052e+01
4.900000e-07	-7.822258e-07	-1.169739e-09	-6.279344e+00	-7.801465e+01
5.000000e-07	-7.791960e-07	-1.166332e-09	-6.255022e+00	-7.771964e+01
5.100000e-07	-7.761013e-07	-1.157769e-09	-6.230179e+00	-7.741413e+01
5.200000e-07	-7.729394e-07	-1.151227e-09	-6.204797e+00	-7.709766e+01
5.300000e-07	-7.697113e-07	-1.147790e-09	-6.178883e+00	-7.677073e+01
5.400000e-07	-7.664155e-07	-1.148314e-09	-6.152426e+00	-7.643484e+01
5.500000e-07	-7.630372e-07	-1.149458e-09	-6.125306e+00	-7.609218e+01
5.600000e-07	-7.595777e-07	-1.149270e-09	-6.097535e+00	-7.574536e+01
5.700000e-07	-7.560537e-07	-1.144276e-09	-6.069247e+00	-7.539692e+01
5.800000e-07	-7.524687e-07	-1.137046e-09	-6.040467e+00	-7.504893e+01
5.900000e-07	-7.488329e-07	-1.128491e-09	-6.011281e+00	-7.470265e+01
6.000000e-07	-7.451574e-07	-1.122714e-09	-5.981776e+00	-7.435826e+01
6.100000e-07	-7.414408e-07	-1.120814e-09	-5.951941e+00	-7.401482e+01
6.200000e-07	-7.376818e-07	-1.120518e-09	-5.921765e+00	-7.367040e+01
6.300000e-07	-7.338714e-07	-1.117745e-09	-5.891177e+00	-7.332236e+01
6.400000e-07	-7.300020e-07	-1.110997e-09	-5.860115e+00	-7.296773e+01
6.500000e-07	-7.260679e-07	-1.101005e-09	-5.828534e+00	-7.260372e+01
6.600000e-07	-7.220876e-07	-1.090559e-09	-5.796583e+00	-7.222812e+01
6.700000e-07	-7.180770e-07	-1.081873e-09	-5.764387e+00	-7.183972e+01
6.800000e-07	-7.140169e-07	-1.077180e-09	-5.731794e+00	-7.143849e+01
6.900000e-07	-7.098998e-07	-1.077300e-09	-5.698745e+00	-7.102567e+01
7.000000e-07	-7.057415e-07	-1.077963e-09	-5.665364e+00	-7.060359e+01
7.100000e-07	-7.015444e-07	-1.072679e-09	-5.631671e+00	-7.017542e+01
7.200000e-07	-6.973081e-07	-1.062464e-09	-5.597664e+00	-6.974471e+01
7.300000e-07	-6.930558e-07	-1.051113e-09	-5.563529e+00	-6.931491e+01
7.400000e-07	-6.887816e-07	-1.041282e-09	-5.529217e+00	-6.888891e+01
7.500000e-07	-6.844674e-07	-1.035246e-09	-5.494585e+00	-6.846864e+01
7.600000e-07	-6.801024e-07	-1.030529e-09	-5.459545e+00	-6.805481e+01
7.700000e-07	-6.756803e-07	-1.025593e-09	-5.424046e+00	-6.764681e+01
7.800000e-07	-6.712090e-07	-1.020017e-09	-5.388153e+00	-6.724279e+01
7.900000e-07	-6.667006e-07	-1.012906e-09	-5.351961e+00	-6.683994e+01
8.000000e-07	-6.621442e-07	-1.003003e-09	-5.315385e+00	-6.643482e+01
8.100000e-07	-6.575289e-07	-9.938977e-10	-5.278335e+00	-6.602385e+01
8.200000e-07	-6.528711e-07	-9.853155e-10	-5.240944e+00	-6.560376e+01
8.300000e-07	-6.481754e-07	-9.777626e-10	-5.203250e+00	-6.517199e+01
8.400000e-07	-6.434281e-07	-9.715978e-10	-5.165141e+00	-6.472699e+01
8.500000e-07	-6.386222e-07	-9.651717e-10	-5.126561e+00	-6.426842e+01
8.600000e-07	-6.337677e-07	-9.562217e-10	-5.087591e+00	-6.379714e+01
8.700000e-07	-6.288801e-07	-9.468506e-10	-5.048356e+00	-6.331511e+01
8.800000e-07	-6.239452e-07	-9.392102e-10	-5.008741e+00	-6.282512e+01
8.900000e-07	-6.189699e-07	-9.326824e-10	-4.968802e+00	-6.233050e+01
9.000000e-07	-6.139715e-07	-9.254407e-10	-4.928677e+00	-6.183470e+01
9.100000e-07	-6.089419e-07	-9.175945e-10	-4.888302e+00	-6.134099e+01
9.200000e-07	-6.038841e-07	-9.099892e-10	-4.847699e+00	-6.085213e+01
9.300000e-07	-5.988039e-07	-9.026017e-10	-4.806918e+00	-6.037013e+01
9.400000e-07	-5.936782e-07	-8.955948e-10	-4.765772e+00	-5.989612e+01
9.500000e-07	-5.884897e-07	-8.880264e-10	-4.724121e+00	-5.943032e+01
9.600000e-07	-5.832437e-07	-8.813671e-10	-4.682008e+00	-5.897205e+01
9.700000e-07	-5.779264e-07	-8.745169e-10	-4.639323e+00	-5.851987e+01
9.800000e-07	-5.725342e-07	-8.667016e-10	-4.596038e+00	-5.807169e+01
9.900000e-07	-5.670678e-07	-8.584581e-10	-4.552156e+00	-5.762498e+01
1.000000e-06	-5.615301e-07	-8.501555e-10	-4.507702e+00	-5.717694e+01
1.010000e-06	-5.559299e-07	-8.436825e-10	-4.462746e+00	-5.672464e+01
1.020000e-06	-5.502826e-07	-8.373461e-10	-4.417412e+00	-5.626523e+01
1.030000e-06	-5.445833e-07	-8.295233e-10	-4.371661e+00	-5.579603e+01
1.040000e-06	-5.388357e-07	-8.220917e-10	-4.325521e+00	-5.531465e+01
1.050000e-06	-5.330622e-07	-8.142754e-10	-4.279175e+00	-5.481914e+01
1.060000e-06	-5.272726e-07	-8.080278e-10	-4.232698e+00	-5.430804e+01
1.070000e-06	-5.214697e-07	-8.023134e-10	-4.186116e+00	-5.378048e+01
1.080000e-06	-5.156493e-07	-7.950787e-10	-4.139392e+00	-5.323623e+01
1.090000e-06	-5.098085e-07	-7.857967e-10	-4.092504e+00	-5.267571e+01
1.100000e-06	-5.039400e-07	-7.753914e-10	-4.045395e+00	-5.210002e+01
1.110000e-06	-4.980338e-07	-7.682473e-10	-3.997983e+00	-5.151083e+01
1.120000e-06	-4.921058e-07	-7.606152e-10	-3.950396e+00	-5.091034e+01
1.130000e-06	-4.861542e-07	-7.493735e-10	-3.902619e+00	-5.030106e+01
1.140000e-06	-4.801601e-07	-7.377610e-10	-3.854501e+00	-4.968569e+01
1.150000e-06	-4.741313e-07	-7.292887e-10	-3.806105e+00	-4.906688e+01
1.160000e-06	-4.680711e-07	-7.224445e-10	-3.757456e+00	-4.844705e+01
1.170000e-06	-4.619655e-07	-7.155997e-10	-3.708443e+00	-4.782824e+01
1.180000e-06	-4.558285e-07	-7.069251e-10	-3.659179e+00	-4.721193e+01
1.190000e-06	-4.496669e-07	-6.983842e-10	-3.609716e+00	-4.659905e+01
1.200000e-06	-4.434734e-07	-6.913195e-10	-3.559997e+00	-4.598994e+01
1.210000e-06	-4.372678e-07	-6.837067e-10	-3.510182e+00	-4.538448e+01
1.220000e-06	-4.310341e-07	-6.753199e-10	-3.460140e+00	-4.478218e+01
1.230000e-06	-4.247498e-07	-6.674150e-10	-3.409693e+00	-4.418236e+01
1.240000e-06	-4.184502e-07	-6.616057e-10	-3.359123e+00	-4.358433e+01
1.250000e-06	-4.121503e-07	-6.555070e-10	-3.308551e+00	-4.298752e+01
1.260000e-06	-4.058138e-07	-6.467944e-10	-3.257684e+00	-4.239160e+01
1.270000e-06	-3.994308e-07	-6.365780e-10	-3.206444e+00	-4.179649e+01
1.280000e-06	-3.930119e-07	-6.281213e-10	-3.154916e+00	-4.120235e+01
1.290000e-06	-3.865769e-07	-6.200975e-10	-3.103259e+00	-4.060948e+01
1.300000e-06	-3.801296e-07	-6.111946e-10	-3.051503e+00	-4.001819e+01
1.310000e-06	-3.736476e-07	-6.003972e-10	-2.999468e+00	-3.942864e+01
1.320000e-06	-3.671367e-07	-5.899566e-10	-2.947202e+00	-3.884074e+01
1.330000e-06	-3.606187e-07	-5.818656e-10	-2.894879e+00	-3.825403e+01
1.340000e-06	-3.540771e-07	-5.737390e-10	-2.842366e+00	-3.766768e+01
1.350000e-06	-3.475031e-07	-5.632970e-10	-2.789593e+00	-3.708055e+01
1.360000e-06	-3.409138e-07	-5.530136e-10	-2.736697e+00	-3.649132e+01
1.370000e-06	-3.343133e-07	-5.437484e-10	-2.683711e+00	-3.589865e+01
1.380000e-06	-3.276977e-07	-5.329072e-10	-2.630604e+00	-3.530142e+01
1.390000e-06	-3.210695e-07	-5.241930e-10	-2.577396e+00	-3.469892e+01
1.400000e-06	-3.144239e-07	-5.180633e-10	-2.524049e+00	-3.409100e+01
1.410000e-06	-3.077683e-07	-5.117681e-10	-2.470621e+00	-3.347815e+01
1.420000e-06	-3.010965e-07	-5.042976e-10	-2.417062e+00	-3.286150e+01
1.430000e-06	-2.944051e-07	-4.948333e-10	-2.363347e+00	-3.224267e+01
1.440000e-06	-2.877085e-07	-4.830898e-10	-2.309589e+00	-3.162356e+01
1.450000e-06	-2.809890e-07	-4.700939e-10	-2.255649e+00	-3.100610e+01
1.460000e-06	-2.742415e-07	-4.570024e-10	-2.201483e+00	-3.039193e+01
1.470000e-06	-2.674703e-07	-4.457189e-10	-2.147127e+00	-2.978213e+01
1.480000e-06	-2.606686e-07	-4.365777e-10	-2.092526e+00	-2.917698e+01
1.490000e-06	-2.538329e-07	-4.278467e-10	-2.037652e+00	-2.857592e+01
1.500000e-06	-2.469688e-07	-4.195097e-10	-1.982550e+00	-2.797746e+01
1.510000e-06	-2.400774e-07	-4.124807e-10	-1.927229e+00	-2.737940e+01
1.520000e-06	-2.331555e-07	-4.059631e-10	-1.871663e+00	-2.677903e+01
1.530000e-06	-2.262133e-07	-3.961967e-10	-1.815935e+00	-2.617346e+01
1.540000e-06	-2.192526e-07	-3.830877e-10	-1.760058e+00	-2.555998e+01
1.550000e-06	-2.122571e-07	-3.706578e-10	-1.703901e+00	-2.493636e+01
1.560000e-06	-2.052290e-07	-3.608063e-10	-1.647482e+00	-2.430114e+01
1.570000e-06	-1.981536e-07	-3.513922e-10	-1.590685e+00	-2.365378e+01
1.580000e-06	-1.910467e-07	-3.405306e-10	-1.533634e+00	-2.299464e+01
1.590000e-06	-1.839256e-07	-3.279097e-10	-1.476469e+00	-2.232493e+01
1.600000e-06	-1.767805e-07	-3.171656e-10	-1.419112e+00	-2.164645e+01
1.610000e-06	-1.696355e-07	-3.076545e-10	-1.361755e+00	-2.096129e+01
1.620000e-06	-1.624677e-07	-2.962623e-10	-1.304215e+00	-2.027153e+01
1.630000e-06	-1.552721e-07	-2.832934e-10	-1.246452e+00	-1.957891e+01
1.640000e-06	-1.480714e-07	-2.715627e-10	-1.188648e+00	-1.888460e+01
1.650000e-06	-1.408392e-07	-2.640998e-10	-1.130592e+00	-1.818910e+01
1.660000e-06	-1.335603e-07	-2.566436e-10	-1.072160e+00	-1.749220e+01
1.670000e-06	-1.262736e-07	-2.462372e-10	-1.013666e+00	-1.679313e+01
1.680000e-06	-1.189995e-07	-2.353704e-10	-9.552723e-01	-1.609079e+01
1.690000e-06	-1.117254e-07	-2.252397e-10	-8.968791e-01	-1.538402e+01
1.700000e-06	-1.044503e-07	-2.132555e-10	-8.384786e-01	-1.467191e+01
1.710000e-06	-9.716813e-08	-1.994057e-10	-7.800204e-01	-1.395406e+01
1.720000e-06	-8.987688e-08	-1.880120e-10	-7.214897e-01	-1.323077e+01
1.730000e-06	-8.257165e-08	-1.791833e-10	-6.628467e-01	-1.250309e+01
1.740000e-06	-7.525228e-08	-1.695383e-10	-6.040902e-01	-1.177279e+01
1.750000e-06	-6.793600e-08	-1.589775e-10	-5.453585e-01	-1.104215e+01
1.760000e-06	-6.061884e-08	-1.488509e-10	-4.866198e-01	-1.031375e+01
1.770000e-06	-5.329115e-08	-1.389778e-10	-4.277965e-01	-9.590085e+00
1.780000e-06	-4.595658e-08	-1.287433e-10	-3.689180e-01	-8.873306e+00
1.790000e-06	-3.863027e-08	-1.186631e-10	-3.101057e-01	-8.164945e+00
1.800000e-06	-3.131675e-08	-1.089954e-10	-2.513963e-01	-7.465745e+00
1.810000e-06	-2.400089e-08	-1.001693e-10	-1.926680e-01	-6.775620e+00
1.820000e-06	-1.667909e-08	-9.099239e-11	-1.338920e-01	-6.093720e+00
1.830000e-06	-9.354083e-09	-8.101859e-11	-7.509021e-02	-5.418627e+00
1.840000e-06	-2.030593e-09	-7.145666e-11	-1.630066e-02	-4.748613e+00
1.850000e-06	5.300192e-09	-6.316408e-11	4.254747e-02	-4.081940e+00
1.860000e-06	1.263752e-08	-5.630564e-11	1.014481e-01	-3.417139e+00
1.870000e-06	1.995879e-08	-4.941462e-11	1.602198e-01	-2.753225e+00
1.880000e-06	2.728608e-08	-4.052556e-11	2.190399e-01	-2.089816e+00
1.890000e-06	3.462940e-08	-3.008929e-11	2.779887e-01	-1.427133e+00
1.900000e-06	4.197631e-08	-1.914328e-11	3.369662e-01	-7.658778e-01
1.910000e-06	4.932314e-08	-7.156785e-12	3.959431e-01	-1.070264e-01
1.920000e-06	5.666382e-08	4.428455e-12	4.548707e-01	5.484456e-01
1.930000e-06	6.399964e-08	1.475451e-11	5.137593e-01	1.199840e+00
1.940000e-06	7.133393e-08	2.252096e-11	5.726355e-01	1.846976e+00
1.950000e-06	7.866582e-08	2.986332e-11	6.314925e-01	2.490347e+00
1.960000e-06	8.598618e-08	3.996429e-11	6.902570e-01	3.131156e+00
1.970000e-06	9.329414e-08	5.035359e-11	7.489218e-01	3.771239e+00
1.980000e-06	1.005986e-07	5.964164e-11	8.075589e-01	4.412857e+00
1.990000e-06	1.078927e-07	6.901037e-11	8.661121e-01	5.058413e+00
2.000000e-06	1.151592e-07	7.868513e-11	9.244444e-01	5.710121e+00
2.010000e-06	1.224043e-07	8.844054e-11	9.826044e-01	6.369682e+00
2.020000e-06	1.296441e-07	9.804608e-11	1.040722e+00	7.038026e+00
2.030000e-06	1.368699e-07	1.089768e-10	1.098727e+00	7.715155e+00
2.040000e-06	1.440878e-07	1.230754e-10	1.156670e+00	8.400119e+00
2.050000e-06	1.512944e-07	1.368658e-10	1.214521e+00	9.091124e+00
2.060000e-06	1.584746e-07	1.469440e-10	1.272160e+00	9.785772e+00
2.070000e-06	1.656433e-07	1.550606e-10	1.329707e+00	1.048139e+01
2.080000e-06	1.727995e-07	1.652255e-10	1.387154e+00	1.117538e+01
2.090000e-06	1.799450e-07	1.777513e-10	1.444515e+00	1.186559e+01
2.100000e-06	1.870835e-07	1.887542e-10	1.501819e+00	1.255063e+01
2.110000e-06	1.941873e-07	1.974931e-10	1.558845e+00	1.322997e+01
2.120000e-06	2.012442e-07	2.062062e-10	1.615494e+00	1.390408e+01
2.130000e-06	2.082759e-07	2.167425e-10	1.671942e+00	1.457427e+01
2.140000e-06	2.152690e-07	2.257596e-10	1.728079e+00	1.524249e+01
2.150000e-06	2.222263e-07	2.319864e-10	1.783929e+00	1.591102e+01
2.160000e-06	2.291666e-07	2.406447e-10	1.839643e+00	1.658212e+01
2.170000e-06	2.360800e-07	2.551652e-10	1.895140e+00	1.725765e+01
2.180000e-06	2.429624e-07	2.700934e-10	1.950389e+00	1.793884e+01
2.190000e-06	2.498227e-07	2.801644e-10	2.005460e+00	1.862604e+01
2.200000e-06	2.566693e-07	2.882103e-10	2.060421e+00	1.931872e+01
2.210000e-06	2.634730e-07	2.974212e-10	2.115039e+00	2.001551e+01
2.220000e-06	2.702382e-07	3.079297e-10	2.169346e+00	2.071442e+01
2.230000e-06	2.769847e-07	3.160700e-10	2.223504e+00	2.141309e+01
2.240000e-06	2.837066e-07	3.231822e-10	2.277465e+00	2.210916e+01
2.250000e-06	2.904138e-07	3.346734e-10	2.331307e+00	2.280056e+01
2.260000e-06	2.970996e-07	3.501035e-10	2.384977e+00	2.348581e+01
2.270000e-06	3.037583e-07	3.619014e-10	2.438430e+00	2.416417e+01
2.280000e-06	3.104060e-07	3.695280e-10	2.491794e+00	2.483576e+01
2.290000e-06	3.170525e-07	3.782080e-10	2.545149e+00	2.550148e+01
2.300000e-06	3.236806e-07	3.880184e-10	2.598357e+00	2.616290e+01
2.310000e-06	3.302861e-07	3.983554e-10	2.651383e+00	2.682199e+01
2.320000e-06	3.368868e-07	4.080529e-10	2.704370e+00	2.748089e+01
2.330000e-06	3.434842e-07	4.201565e-10	2.757331e+00	2.814158e+01
2.340000e-06	3.500599e-07	4.363115e-10	2.810117e+00	2.880569e+01
2.350000e-06	3.566200e-07	4.495358e-10	2.862779e+00	2.947425e+01
2.360000e-06	3.631708e-07	4.570158e-10	2.915366e+00	3.014767e+01
2.370000e-06	3.696996e-07	4.632533e-10	2.967776e+00	3.082564e+01
2.380000e-06	3.762047e-07	4.709400e-10	3.019996e+00	3.150727e+01
2.390000e-06	3.826914e-07	4.804046e-10	3.072068e+00	3.219121e+01
2.400000e-06	3.891422e-07	4.905469e-10	3.123852e+00	3.287581e+01
2.410000e-06	3.955448e-07	5.010227e-10	3.175249e+00	3.355934e+01
2.420000e-06	4.019068e-07	5.116062e-10	3.226321e+00	3.424017e+01
2.430000e-06	4.082391e-07	5.216967e-10	3.277153e+00	3.491689e+01
2.440000e-06	4.145533e-07	5.316659e-10	3.327841e+00	3.558844e+01
2.450000e-06	4.208462e-07	5.397793e-10	3.378357e+00	3.625414e+01
2.460000e-06	4.271067e-07	5.459382e-10	3.428613e+00	3.691370e+01
2.470000e-06	4.333345e-07	5.532860e-10	3.478607e+00	3.756714e+01
2.480000e-06	4.395454e-07	5.626335e-10	3.528465e+00	3.821477e+01
2.490000e-06	4.457336e-07	5.723424e-10	3.578141e+00	3.885707e+01
2.500000e-06	4.518999e-07	5.828494e-10	3.627641e+00	3.949462e+01
2.510000e-06	4.580512e-07	5.946861e-10	3.677021e+00	4.012802e+01
2.520000e-06	4.641603e-07	6.056665e-10	3.726062e+00	4.075782e+01
2.530000e-06	4.702215e-07	6.131501e-10	3.774719e+00	4.138453e+01
2.540000e-06	4.762567e-07	6.173011e-10	3.823167e+00	4.200851e+01
2.550000e-06	4.822518e-07	6.225128e-10	3.871293e+00	4.263002e+01
2.560000e-06	4.881994e-07	6.296017e-10	3.919037e+00	4.324918e+01
2.570000e-06	4.941217e-07	6.376864e-10	3.966578e+00	4.386597e+01
2.580000e-06	5.000303e-07	6.484293e-10	4.014010e+00	4.448023e+01
2.590000e-06	5.059176e-07	6.606365e-10	4.061270e+00	4.509165e+01
2.600000e-06	5.117715e-07	6.728406e-10	4.108263e+00	4.569981e+01
2.610000e-06	5.175954e-07	6.834170e-10	4.155015e+00	4.630419e+01
2.620000e-06	5.233983e-07	6.904714e-10	4.201597e+00	4.690421e+01
2.630000e-06	5.291811e-07	6.945890e-10	4.248019e+00	4.749931e+01
2.640000e-06	5.349481e-07	6.982732e-10	4.294314e+00	4.808899e+01
2.650000e-06	5.406898e-07	7.049046e-10	4.340405e+00	4.867291e+01
2.660000e-06	5.463835e-07	7.148518e-10	4.386112e+00	4.925090e+01
2.670000e-06	5.520329e-07	7.253173e-10	4.431462e+00	4.982308e+01
2.680000e-06	5.576355e-07	7.371368e-10	4.476438e+00	5.038979e+01
2.690000e-06	5.631810e-07	7.503589e-10	4.520954e+00	5.095165e+01
2.700000e-06	5.686801e-07	7.621981e-10	4.565098e+00	5.150945e+01
2.710000e-06	5.741169e-07	7.702252e-10	4.608743e+00	5.206407e+01
2.720000e-06	5.794501e-07	7.748605e-10	4.651555e+00	5.261641e+01
2.730000e-06	5.847063e-07	7.822110e-10	4.693750e+00	5.316722e+01
2.740000e-06	5.899142e-07	7.928984e-10	4.735556e+00	5.371705e+01
2.750000e-06	5.950633e-07	8.030924e-10	4.776891e+00	5.426612e+01
2.760000e-06	6.001826e-07	8.128434e-10	4.817985e+00	5.481433e+01
2.770000e-06	6.052672e-07	8.245183e-10	4.858803e+00	5.536124e+01
2.780000e-06	6.102973e-07	8.365539e-10	4.899182e+00	5.590616e+01
2.790000e-06	6.153018e-07	8.459313e-10	4.939355e+00	5.644821e+01
2.800000e-06	6.202828e-07	8.528330e-10	4.979341e+00	5.698644e+01
2.810000e-06	6.252221e-07	8.588734e-10	5.018992e+00	5.752001e+01
2.820000e-06	6.301210e-07	8.679207e-10	5.058317e+00	5.804820e+01
2.830000e-06	6.349815e-07	8.780329e-10	5.097335e+00	5.857055e+01
2.840000e-06	6.397981e-07	8.849923e-10	5.136001e+00	5.908685e+01
2.850000e-06	6.445686e-07	8.902715e-10	5.174296e+00	5.959711e+01
2.860000e-06	6.492905e-07	8.977324e-10	5.212201e+00	6.010149e+01
2.870000e-06	6.539608e-07	9.080331e-10	5.249692e+00	6.060022e+01
2.880000e-06	6.585824e-07	9.181182e-10	5.286793e+00	6.109345e+01
2.890000e-06	6.631508e-07	9.256702e-10	5.323465e+00	6.158123e+01
2.900000e-06	6.676884e-07	9.331692e-10	5.359891e+00	6.206339e+01
