# Temperatura_=_20.0
# Concentracion g/m^3_=_10000.0
# C_Vs_to_Am_M_A/Vsm_=_65563218390.804596
# pendiente_HvsI_1/m_=_3716.3
# ordenada_HvsI_A/m_=_1297.0
# frecuencia_Hz_=_135111.5053054153

Tiempo_(s)	Campo_(V.s)	Magnetizacion_(V.s)	Campo_(kA/m)	Magnetizacion_(A/m)
0.000000e+00	-8.535178e-07	-1.284476e-09	-6.852752e+00	-8.432076e+01
1.000000e-08	-8.535180e-07	-1.317923e-09	-6.852753e+00	-8.433458e+01
2.000000e-08	-8.535157e-07	-1.312442e-09	-6.852735e+00	-8.434936e+01
3.000000e-08	-8.534750e-07	-1.257206e-09	-6.852408e+00	-8.436419e+01
4.000000e-08	-8.533772e-07	-1.211309e-09	-6.851623e+00	-8.437735e+01
5.000000e-08	-8.531986e-07	-1.208028e-09	-6.850189e+00	-8.438680e+01
6.000000e-08	-8.529231e-07	-1.247843e-09	-6.847977e+00	-8.439071e+01
7.000000e-08	-8.525802e-07	-1.295361e-09	-6.845224e+00	-8.438784e+01
8.000000e-08	-8.522026e-07	-1.351458e-09	-6.842193e+00	-8.437789e+01
9.000000e-08	-8.518085e-07	-1.367219e-09	-6.839028e+00	-8.436149e+01
1.000000e-07	-8.513800e-07	-1.342023e-09	-6.835588e+00	-8.434008e+01
1.100000e-07	-8.509080e-07	-1.243638e-09	-6.831798e+00	-8.431551e+01
1.200000e-07	-8.503730e-07	-1.171980e-09	-6.827503e+00	-8.428953e+01
1.300000e-07	-8.497262e-07	-1.192197e-09	-6.822310e+00	-8.426333e+01
1.400000e-07	-8.489320e-07	-1.245232e-09	-6.815934e+00	-8.423704e+01
1.500000e-07	-8.479949e-07	-1.299601e-09	-6.808409e+00	-8.420946e+01
1.600000e-07	-8.469819e-07	-1.344955e-09	-6.800276e+00	-8.417805e+01
1.700000e-07	-8.459387e-07	-1.329018e-09	-6.791901e+00	-8.413914e+01
1.800000e-07	-8.448854e-07	-1.276943e-09	-6.783444e+00	-8.408839e+01
1.900000e-07	-8.438216e-07	-1.252658e-09	-6.774903e+00	-8.402145e+01
2.000000e-07	-8.427172e-07	-1.245661e-09	-6.766036e+00	-8.393461e+01
2.100000e-07	-8.415354e-07	-1.246070e-09	-6.756547e+00	-8.382557e+01
2.200000e-07	-8.402540e-07	-1.258134e-09	-6.746259e+00	-8.369383e+01
2.300000e-07	-8.389031e-07	-1.273545e-09	-6.735413e+00	-8.354102e+01
2.400000e-07	-8.375244e-07	-1.285136e-09	-6.724344e+00	-8.337080e+01
2.500000e-07	-8.361094e-07	-1.274822e-09	-6.712982e+00	-8.318850e+01
2.600000e-07	-8.346334e-07	-1.240779e-09	-6.701132e+00	-8.300050e+01
2.700000e-07	-8.330803e-07	-1.227720e-09	-6.688663e+00	-8.281336e+01
2.800000e-07	-8.314642e-07	-1.233390e-09	-6.675687e+00	-8.263302e+01
2.900000e-07	-8.298011e-07	-1.253573e-09	-6.662334e+00	-8.246394e+01
3.000000e-07	-8.280943e-07	-1.261486e-09	-6.648631e+00	-8.230857e+01
3.100000e-07	-8.263390e-07	-1.260879e-09	-6.634538e+00	-8.216703e+01
3.200000e-07	-8.245286e-07	-1.235251e-09	-6.620002e+00	-8.203713e+01
3.300000e-07	-8.226869e-07	-1.216182e-09	-6.605216e+00	-8.191478e+01
3.400000e-07	-8.208047e-07	-1.212039e-09	-6.590103e+00	-8.179465e+01
3.500000e-07	-8.188418e-07	-1.223706e-09	-6.574344e+00	-8.167094e+01
3.600000e-07	-8.167900e-07	-1.233689e-09	-6.557870e+00	-8.153826e+01
3.700000e-07	-8.146612e-07	-1.232810e-09	-6.540779e+00	-8.139240e+01
3.800000e-07	-8.124591e-07	-1.225530e-09	-6.523098e+00	-8.123085e+01
3.900000e-07	-8.101762e-07	-1.216724e-09	-6.504769e+00	-8.105302e+01
4.000000e-07	-8.078031e-07	-1.212375e-09	-6.485716e+00	-8.086021e+01
4.100000e-07	-8.053552e-07	-1.204695e-09	-6.466062e+00	-8.065515e+01
4.200000e-07	-8.028328e-07	-1.201733e-09	-6.445810e+00	-8.044142e+01
4.300000e-07	-8.002376e-07	-1.198898e-09	-6.424974e+00	-8.022263e+01
4.400000e-07	-7.975954e-07	-1.202357e-09	-6.403760e+00	-8.000175e+01
4.500000e-07	-7.948927e-07	-1.198220e-09	-6.382060e+00	-7.978043e+01
4.600000e-07	-7.921227e-07	-1.193086e-09	-6.359821e+00	-7.955868e+01
4.700000e-07	-7.892968e-07	-1.184762e-09	-6.337132e+00	-7.933478e+01
4.800000e-07	-7.864120e-07	-1.186296e-09	-6.313970e+00	-7.910557e+01
4.900000e-07	-7.834664e-07	-1.188054e-09	-6.290321e+00	-7.886696e+01
5.000000e-07	-7.804708e-07	-1.184430e-09	-6.266270e+00	-7.861464e+01
5.100000e-07	-7.774106e-07	-1.166696e-09	-6.241700e+00	-7.834488e+01
5.200000e-07	-7.742834e-07	-1.152250e-09	-6.216592e+00	-7.805525e+01
5.300000e-07	-7.710966e-07	-1.147714e-09	-6.191006e+00	-7.774509e+01
5.400000e-07	-7.678333e-07	-1.150267e-09	-6.164805e+00	-7.741576e+01
5.500000e-07	-7.644662e-07	-1.149525e-09	-6.137771e+00	-7.707051e+01
5.600000e-07	-7.610397e-07	-1.147903e-09	-6.110261e+00	-7.671408e+01
5.700000e-07	-7.575841e-07	-1.147471e-09	-6.082516e+00	-7.635197e+01
5.800000e-07	-7.540565e-07	-1.141927e-09	-6.054193e+00	-7.598959e+01
5.900000e-07	-7.504549e-07	-1.128344e-09	-6.025277e+00	-7.563143e+01
6.000000e-07	-7.467975e-07	-1.113191e-09	-5.995913e+00	-7.528029e+01
6.100000e-07	-7.431041e-07	-1.106087e-09	-5.966259e+00	-7.493682e+01
6.200000e-07	-7.393670e-07	-1.106747e-09	-5.936254e+00	-7.459929e+01
6.300000e-07	-7.355805e-07	-1.107315e-09	-5.905853e+00	-7.426386e+01
6.400000e-07	-7.317581e-07	-1.100040e-09	-5.875163e+00	-7.392506e+01
6.500000e-07	-7.278890e-07	-1.092464e-09	-5.844099e+00	-7.357660e+01
6.600000e-07	-7.239547e-07	-1.084945e-09	-5.812511e+00	-7.321230e+01
6.700000e-07	-7.199486e-07	-1.077767e-09	-5.780347e+00	-7.282701e+01
6.800000e-07	-7.158834e-07	-1.070288e-09	-5.747709e+00	-7.241741e+01
6.900000e-07	-7.117763e-07	-1.066377e-09	-5.714733e+00	-7.198254e+01
7.000000e-07	-7.076286e-07	-1.063899e-09	-5.681431e+00	-7.152396e+01
7.100000e-07	-7.034493e-07	-1.060228e-09	-5.647877e+00	-7.104557e+01
7.200000e-07	-6.992481e-07	-1.051692e-09	-5.614146e+00	-7.055313e+01
7.300000e-07	-6.950134e-07	-1.040775e-09	-5.580147e+00	-7.005343e+01
7.400000e-07	-6.907481e-07	-1.031003e-09	-5.545901e+00	-6.955339e+01
7.500000e-07	-6.864448e-07	-1.026203e-09	-5.511351e+00	-6.905919e+01
7.600000e-07	-6.821021e-07	-1.023019e-09	-5.476484e+00	-6.857541e+01
7.700000e-07	-6.777111e-07	-1.017520e-09	-5.441229e+00	-6.810458e+01
7.800000e-07	-6.732537e-07	-1.010458e-09	-5.405442e+00	-6.764692e+01
7.900000e-07	-6.687473e-07	-1.003162e-09	-5.369260e+00	-6.720044e+01
8.000000e-07	-6.642001e-07	-9.933326e-10	-5.332752e+00	-6.676143e+01
8.100000e-07	-6.596169e-07	-9.821888e-10	-5.295954e+00	-6.632505e+01
8.200000e-07	-6.549932e-07	-9.728738e-10	-5.258831e+00	-6.588618e+01
8.300000e-07	-6.503071e-07	-9.676305e-10	-5.221207e+00	-6.544014e+01
8.400000e-07	-6.455662e-07	-9.651278e-10	-5.183143e+00	-6.498337e+01
8.500000e-07	-6.407988e-07	-9.610270e-10	-5.144866e+00	-6.451394e+01
8.600000e-07	-6.359977e-07	-9.547924e-10	-5.106319e+00	-6.403163e+01
8.700000e-07	-6.311418e-07	-9.471734e-10	-5.067332e+00	-6.353795e+01
8.800000e-07	-6.262329e-07	-9.393692e-10	-5.027919e+00	-6.303572e+01
8.900000e-07	-6.212918e-07	-9.299979e-10	-4.988248e+00	-6.252858e+01
9.000000e-07	-6.163164e-07	-9.192998e-10	-4.948301e+00	-6.202037e+01
9.100000e-07	-6.113066e-07	-9.086918e-10	-4.908079e+00	-6.151456e+01
9.200000e-07	-6.062838e-07	-9.018930e-10	-4.867751e+00	-6.101372e+01
9.300000e-07	-6.012232e-07	-8.983511e-10	-4.827120e+00	-6.051921e+01
9.400000e-07	-5.960991e-07	-8.949716e-10	-4.785980e+00	-6.003110e+01
9.500000e-07	-5.909253e-07	-8.899342e-10	-4.744440e+00	-5.954822e+01
9.600000e-07	-5.857164e-07	-8.831733e-10	-4.702619e+00	-5.906849e+01
9.700000e-07	-5.804754e-07	-8.747918e-10	-4.660540e+00	-5.858926e+01
9.800000e-07	-5.751729e-07	-8.650218e-10	-4.617967e+00	-5.810778e+01
9.900000e-07	-5.697626e-07	-8.547026e-10	-4.574529e+00	-5.762158e+01
1.000000e-06	-5.642433e-07	-8.455736e-10	-4.530215e+00	-5.712877e+01
1.010000e-06	-5.586454e-07	-8.383343e-10	-4.485271e+00	-5.662824e+01
1.020000e-06	-5.529956e-07	-8.332350e-10	-4.439909e+00	-5.611960e+01
1.030000e-06	-5.473082e-07	-8.281713e-10	-4.394246e+00	-5.560314e+01
1.040000e-06	-5.415825e-07	-8.211537e-10	-4.348275e+00	-5.507956e+01
1.050000e-06	-5.358202e-07	-8.126002e-10	-4.302011e+00	-5.454973e+01
1.060000e-06	-5.300418e-07	-8.038465e-10	-4.255617e+00	-5.401441e+01
1.070000e-06	-5.242570e-07	-7.944072e-10	-4.209172e+00	-5.347408e+01
1.080000e-06	-5.184502e-07	-7.828060e-10	-4.162550e+00	-5.292885e+01
1.090000e-06	-5.126111e-07	-7.719461e-10	-4.115669e+00	-5.237846e+01
1.100000e-06	-5.067552e-07	-7.637733e-10	-4.068653e+00	-5.182239e+01
1.110000e-06	-5.008792e-07	-7.591092e-10	-4.021475e+00	-5.126002e+01
1.120000e-06	-4.949719e-07	-7.539032e-10	-3.974047e+00	-5.069084e+01
1.130000e-06	-4.890335e-07	-7.457328e-10	-3.926369e+00	-5.011461e+01
1.140000e-06	-4.830432e-07	-7.337556e-10	-3.878273e+00	-4.953144e+01
1.150000e-06	-4.770194e-07	-7.228479e-10	-3.829909e+00	-4.894188e+01
1.160000e-06	-4.709635e-07	-7.173626e-10	-3.781287e+00	-4.834674e+01
1.170000e-06	-4.648515e-07	-7.097143e-10	-3.732215e+00	-4.774702e+01
1.180000e-06	-4.587059e-07	-6.998305e-10	-3.682873e+00	-4.714368e+01
1.190000e-06	-4.525486e-07	-6.908615e-10	-3.633437e+00	-4.653741e+01
1.200000e-06	-4.463723e-07	-6.839377e-10	-3.583848e+00	-4.592854e+01
1.210000e-06	-4.401617e-07	-6.749864e-10	-3.533985e+00	-4.531692e+01
1.220000e-06	-4.339422e-07	-6.624408e-10	-3.484050e+00	-4.470199e+01
1.230000e-06	-4.277106e-07	-6.515270e-10	-3.434017e+00	-4.408293e+01
1.240000e-06	-4.214422e-07	-6.460090e-10	-3.383689e+00	-4.345890e+01
1.250000e-06	-4.151483e-07	-6.409534e-10	-3.333156e+00	-4.282931e+01
1.260000e-06	-4.088261e-07	-6.306299e-10	-3.282396e+00	-4.219412e+01
1.270000e-06	-4.024723e-07	-6.190543e-10	-3.231383e+00	-4.155401e+01
1.280000e-06	-3.960749e-07	-6.097389e-10	-3.180019e+00	-4.091053e+01
1.290000e-06	-3.896315e-07	-5.999565e-10	-3.128286e+00	-4.026600e+01
1.300000e-06	-3.831618e-07	-5.880933e-10	-3.076342e+00	-3.962332e+01
1.310000e-06	-3.766703e-07	-5.761966e-10	-3.024223e+00	-3.898564e+01
1.320000e-06	-3.701600e-07	-5.663691e-10	-2.971953e+00	-3.835590e+01
1.330000e-06	-3.636389e-07	-5.585348e-10	-2.919596e+00	-3.773640e+01
1.340000e-06	-3.570997e-07	-5.517698e-10	-2.867094e+00	-3.712843e+01
1.350000e-06	-3.505406e-07	-5.438727e-10	-2.814432e+00	-3.653193e+01
1.360000e-06	-3.439718e-07	-5.359553e-10	-2.761692e+00	-3.594545e+01
1.370000e-06	-3.373897e-07	-5.301166e-10	-2.708845e+00	-3.536619e+01
1.380000e-06	-3.307975e-07	-5.222303e-10	-2.655918e+00	-3.479037e+01
1.390000e-06	-3.241938e-07	-5.132922e-10	-2.602898e+00	-3.421359e+01
1.400000e-06	-3.175733e-07	-5.050320e-10	-2.549743e+00	-3.363147e+01
1.410000e-06	-3.109371e-07	-4.982785e-10	-2.496462e+00	-3.304018e+01
1.420000e-06	-3.042806e-07	-4.913051e-10	-2.443018e+00	-3.243693e+01
1.430000e-06	-2.976067e-07	-4.824501e-10	-2.389435e+00	-3.182037e+01
1.440000e-06	-2.909163e-07	-4.721050e-10	-2.335718e+00	-3.119069e+01
1.450000e-06	-2.842008e-07	-4.615740e-10	-2.281800e+00	-3.054959e+01
1.460000e-06	-2.774570e-07	-4.510020e-10	-2.227656e+00	-2.989999e+01
1.470000e-06	-2.706721e-07	-4.396040e-10	-2.173181e+00	-2.924559e+01
1.480000e-06	-2.638554e-07	-4.294192e-10	-2.118451e+00	-2.859027e+01
1.490000e-06	-2.570352e-07	-4.199686e-10	-2.063693e+00	-2.793760e+01
1.500000e-06	-2.502139e-07	-4.106151e-10	-2.008926e+00	-2.729031e+01
1.510000e-06	-2.433705e-07	-4.005110e-10	-1.953981e+00	-2.664995e+01
1.520000e-06	-2.364964e-07	-3.895249e-10	-1.898790e+00	-2.601677e+01
1.530000e-06	-2.295958e-07	-3.793402e-10	-1.843386e+00	-2.538975e+01
1.540000e-06	-2.226517e-07	-3.702435e-10	-1.787633e+00	-2.476690e+01
1.550000e-06	-2.156481e-07	-3.601713e-10	-1.731402e+00	-2.414562e+01
1.560000e-06	-2.086079e-07	-3.496664e-10	-1.674878e+00	-2.352321e+01
1.570000e-06	-2.015627e-07	-3.415187e-10	-1.618313e+00	-2.289730e+01
1.580000e-06	-1.944903e-07	-3.352414e-10	-1.561530e+00	-2.226623e+01
1.590000e-06	-1.873924e-07	-3.270816e-10	-1.504543e+00	-2.162927e+01
1.600000e-06	-1.802676e-07	-3.147392e-10	-1.447338e+00	-2.098666e+01
1.610000e-06	-1.731064e-07	-3.005528e-10	-1.389842e+00	-2.033948e+01
1.620000e-06	-1.659469e-07	-2.878929e-10	-1.332360e+00	-1.968930e+01
1.630000e-06	-1.587901e-07	-2.770217e-10	-1.274899e+00	-1.903789e+01
1.640000e-06	-1.516106e-07	-2.671002e-10	-1.217256e+00	-1.838670e+01
1.650000e-06	-1.444099e-07	-2.583670e-10	-1.159443e+00	-1.773662e+01
1.660000e-06	-1.371841e-07	-2.530967e-10	-1.101428e+00	-1.708770e+01
1.670000e-06	-1.299432e-07	-2.500884e-10	-1.043293e+00	-1.643908e+01
1.680000e-06	-1.226969e-07	-2.432039e-10	-9.851132e-01	-1.578916e+01
1.690000e-06	-1.154314e-07	-2.313304e-10	-9.267793e-01	-1.513582e+01
1.700000e-06	-1.081582e-07	-2.162676e-10	-8.683845e-01	-1.447686e+01
1.710000e-06	-1.008745e-07	-2.004518e-10	-8.099041e-01	-1.381036e+01
1.720000e-06	-9.357744e-08	-1.865362e-10	-7.513176e-01	-1.313512e+01
1.730000e-06	-8.627513e-08	-1.764693e-10	-6.926886e-01	-1.245094e+01
1.740000e-06	-7.897216e-08	-1.708625e-10	-6.340543e-01	-1.175869e+01
1.750000e-06	-7.167277e-08	-1.663989e-10	-5.754487e-01	-1.106031e+01
1.760000e-06	-6.436324e-08	-1.602941e-10	-5.167617e-01	-1.035853e+01
1.770000e-06	-5.703843e-08	-1.516148e-10	-4.579520e-01	-9.656522e+00
1.780000e-06	-4.970541e-08	-1.400384e-10	-3.990764e-01	-8.957421e+00
1.790000e-06	-4.237784e-08	-1.283459e-10	-3.402446e-01	-8.263900e+00
1.800000e-06	-3.506073e-08	-1.168878e-10	-2.814967e-01	-7.577789e+00
1.810000e-06	-2.773311e-08	-1.034715e-10	-2.226645e-01	-6.899835e+00
1.820000e-06	-2.038828e-08	-9.035460e-11	-1.636941e-01	-6.229657e+00
1.830000e-06	-1.303771e-08	-7.974801e-11	-1.046776e-01	-5.565866e+00
1.840000e-06	-5.684537e-09	-7.251556e-11	-4.564020e-02	-4.906358e+00
1.850000e-06	1.657056e-09	-6.784123e-11	1.330423e-02	-4.248703e+00
1.860000e-06	8.977313e-09	-6.332162e-11	7.207735e-02	-3.590574e+00
1.870000e-06	1.629617e-08	-5.832993e-11	1.308392e-01	-2.930127e+00
1.880000e-06	2.362733e-08	-5.140529e-11	1.896999e-01	-2.266271e+00
1.890000e-06	3.095944e-08	-3.960726e-11	2.485682e-01	-1.598774e+00
1.900000e-06	3.829329e-08	-2.277841e-11	3.074504e-01	-9.281986e-01
1.910000e-06	4.562697e-08	-6.658515e-12	3.663313e-01	-2.556608e-01
1.920000e-06	5.295702e-08	5.878029e-12	4.251830e-01	4.175138e-01
1.930000e-06	6.027990e-08	1.588035e-11	4.839773e-01	1.090190e+00
1.940000e-06	6.760703e-08	2.283156e-11	5.428055e-01	1.761787e+00
1.950000e-06	7.494270e-08	2.717755e-11	6.017024e-01	2.432537e+00
1.960000e-06	8.226617e-08	3.254641e-11	6.605013e-01	3.103574e+00
1.970000e-06	8.957112e-08	4.241604e-11	7.191515e-01	3.776836e+00
1.980000e-06	9.687520e-08	5.629313e-11	7.777948e-01	4.454774e+00
1.990000e-06	1.041901e-07	7.072020e-11	8.365248e-01	5.139930e+00
2.000000e-06	1.114821e-07	8.036049e-11	8.950708e-01	5.834429e+00
2.010000e-06	1.187416e-07	8.721339e-11	9.533561e-01	6.539507e+00
2.020000e-06	1.259906e-07	9.675183e-11	1.011557e+00	7.255134e+00
2.030000e-06	1.332305e-07	1.086007e-10	1.069686e+00	7.979832e+00
2.040000e-06	1.404531e-07	1.191972e-10	1.127674e+00	8.710722e+00
2.050000e-06	1.476572e-07	1.286923e-10	1.185515e+00	9.443812e+00
2.060000e-06	1.548525e-07	1.391392e-10	1.243285e+00	1.017450e+01
2.070000e-06	1.620222e-07	1.499443e-10	1.300849e+00	1.089819e+01
2.080000e-06	1.691796e-07	1.608475e-10	1.358315e+00	1.161102e+01
2.090000e-06	1.763225e-07	1.719440e-10	1.415664e+00	1.231042e+01
2.100000e-06	1.834406e-07	1.845647e-10	1.472814e+00	1.299557e+01
2.110000e-06	1.905515e-07	1.991953e-10	1.529906e+00	1.366761e+01
2.120000e-06	1.976411e-07	2.116928e-10	1.586827e+00	1.432948e+01
2.130000e-06	2.047003e-07	2.188214e-10	1.643505e+00	1.498559e+01
2.140000e-06	2.117243e-07	2.230628e-10	1.699899e+00	1.564116e+01
2.150000e-06	2.187052e-07	2.278279e-10	1.755948e+00	1.630145e+01
2.160000e-06	2.256478e-07	2.371893e-10	1.811689e+00	1.697099e+01
2.170000e-06	2.325671e-07	2.502088e-10	1.867242e+00	1.765285e+01
2.180000e-06	2.394822e-07	2.626210e-10	1.922762e+00	1.834816e+01
2.190000e-06	2.463736e-07	2.744463e-10	1.978093e+00	1.905597e+01
2.200000e-06	2.532172e-07	2.861725e-10	2.033039e+00	1.977331e+01
2.210000e-06	2.600392e-07	2.963676e-10	2.087811e+00	2.049572e+01
2.220000e-06	2.668387e-07	3.050129e-10	2.142404e+00	2.121788e+01
2.230000e-06	2.736122e-07	3.125021e-10	2.196786e+00	2.193451e+01
2.240000e-06	2.803693e-07	3.210929e-10	2.251038e+00	2.264117e+01
2.250000e-06	2.871187e-07	3.323315e-10	2.305228e+00	2.333498e+01
2.260000e-06	2.938370e-07	3.431531e-10	2.359168e+00	2.401513e+01
2.270000e-06	3.005113e-07	3.524539e-10	2.412755e+00	2.468302e+01
2.280000e-06	3.071667e-07	3.622715e-10	2.466190e+00	2.534206e+01
2.290000e-06	3.138071e-07	3.727404e-10	2.519505e+00	2.599720e+01
2.300000e-06	3.204296e-07	3.826521e-10	2.572676e+00	2.665410e+01
2.310000e-06	3.270404e-07	3.922838e-10	2.625753e+00	2.731830e+01
2.320000e-06	3.336455e-07	4.029547e-10	2.678784e+00	2.799434e+01
2.330000e-06	3.402471e-07	4.156615e-10	2.731787e+00	2.868501e+01
2.340000e-06	3.468395e-07	4.295202e-10	2.784717e+00	2.939087e+01
2.350000e-06	3.534196e-07	4.423043e-10	2.837547e+00	3.011015e+01
2.360000e-06	3.599870e-07	4.518472e-10	2.890276e+00	3.083893e+01
2.370000e-06	3.665366e-07	4.605548e-10	2.942861e+00	3.157167e+01
2.380000e-06	3.730657e-07	4.695149e-10	2.995282e+00	3.230203e+01
2.390000e-06	3.795769e-07	4.791990e-10	3.047559e+00	3.302369e+01
2.400000e-06	3.860604e-07	4.896574e-10	3.099615e+00	3.373126e+01
2.410000e-06	3.924902e-07	5.012086e-10	3.151238e+00	3.442096e+01
2.420000e-06	3.988770e-07	5.142295e-10	3.202517e+00	3.509110e+01
2.430000e-06	4.052251e-07	5.263839e-10	3.253485e+00	3.574220e+01
2.440000e-06	4.115368e-07	5.367393e-10	3.304160e+00	3.637677e+01
2.450000e-06	4.178230e-07	5.457676e-10	3.354631e+00	3.699884e+01
2.460000e-06	4.240810e-07	5.550391e-10	3.404875e+00	3.761330e+01
2.470000e-06	4.303199e-07	5.650009e-10	3.454967e+00	3.822502e+01
2.480000e-06	4.365452e-07	5.744205e-10	3.504949e+00	3.883821e+01
2.490000e-06	4.427555e-07	5.828042e-10	3.554810e+00	3.945576e+01
2.500000e-06	4.489351e-07	5.930275e-10	3.604425e+00	4.007894e+01
2.510000e-06	4.550830e-07	6.042861e-10	3.653785e+00	4.070729e+01
2.520000e-06	4.612073e-07	6.150732e-10	3.702956e+00	4.133890e+01
2.530000e-06	4.672907e-07	6.243253e-10	3.751799e+00	4.197086e+01
2.540000e-06	4.733281e-07	6.320169e-10	3.800272e+00	4.259983e+01
2.550000e-06	4.793295e-07	6.406256e-10	3.848457e+00	4.322273e+01
2.560000e-06	4.853010e-07	6.504193e-10	3.896400e+00	4.383729e+01
2.570000e-06	4.912453e-07	6.596549e-10	3.944126e+00	4.444245e+01
2.580000e-06	4.971730e-07	6.685860e-10	3.991719e+00	4.503850e+01
2.590000e-06	5.030718e-07	6.784286e-10	4.039079e+00	4.562703e+01
2.600000e-06	5.089297e-07	6.893076e-10	4.086111e+00	4.621056e+01
2.610000e-06	5.147618e-07	7.011030e-10	4.132937e+00	4.679205e+01
2.620000e-06	5.205718e-07	7.106734e-10	4.179584e+00	4.737434e+01
2.630000e-06	5.263667e-07	7.172703e-10	4.226110e+00	4.795960e+01
2.640000e-06	5.321573e-07	7.263308e-10	4.272602e+00	4.854890e+01
2.650000e-06	5.379395e-07	7.385876e-10	4.319026e+00	4.914199e+01
2.660000e-06	5.436928e-07	7.476170e-10	4.365219e+00	4.973730e+01
2.670000e-06	5.494112e-07	7.517998e-10	4.411130e+00	5.033222e+01
2.680000e-06	5.550900e-07	7.567401e-10	4.456725e+00	5.092349e+01
2.690000e-06	5.606877e-07	7.677702e-10	4.501668e+00	5.150777e+01
2.700000e-06	5.661855e-07	7.800695e-10	4.545809e+00	5.208220e+01
2.710000e-06	5.716071e-07	7.884487e-10	4.589338e+00	5.264488e+01
2.720000e-06	5.769627e-07	7.940352e-10	4.632337e+00	5.319519e+01
2.730000e-06	5.822317e-07	8.013272e-10	4.674641e+00	5.373385e+01
2.740000e-06	5.874383e-07	8.100524e-10	4.716444e+00	5.426284e+01
2.750000e-06	5.926097e-07	8.161886e-10	4.757965e+00	5.478503e+01
2.760000e-06	5.977319e-07	8.197901e-10	4.799089e+00	5.530369e+01
2.770000e-06	6.028130e-07	8.262896e-10	4.839885e+00	5.582197e+01
2.780000e-06	6.078471e-07	8.380978e-10	4.880303e+00	5.634237e+01
2.790000e-06	6.128492e-07	8.499311e-10	4.920464e+00	5.686637e+01
2.800000e-06	6.178346e-07	8.602672e-10	4.960491e+00	5.739424e+01
2.810000e-06	6.227897e-07	8.705153e-10	5.000274e+00	5.792504e+01
2.820000e-06	6.277176e-07	8.814000e-10	5.039840e+00	5.845687e+01
2.830000e-06	6.326061e-07	8.902146e-10	5.079088e+00	5.898726e+01
2.840000e-06	6.374290e-07	8.959669e-10	5.117811e+00	5.951362e+01
2.850000e-06	6.421882e-07	8.986652e-10	5.156022e+00	6.003378e+01
2.860000e-06	6.469101e-07	9.011218e-10	5.193933e+00	6.054629e+01
2.870000e-06	6.515998e-07	9.080828e-10	5.231586e+00	6.105073e+01
2.880000e-06	6.562411e-07	9.179902e-10	5.268850e+00	6.154769e+01
2.890000e-06	6.608374e-07	9.266317e-10	5.305753e+00	6.203862e+01
2.900000e-06	6.654025e-07	9.335823e-10	5.342406e+00	6.252545e+01
