# Temperatura_=_20.0
# Concentracion g/m^3_=_10000.0
# C_Vs_to_Am_M_A/Vsm_=_65563218390.804596
# pendiente_HvsI_1/m_=_3716.3
# ordenada_HvsI_A/m_=_1297.0
# frecuencia_Hz_=_135109.05789329618

Tiempo_(s)	Campo_(V.s)	Magnetizacion_(V.s)	Campo_(kA/m)	Magnetizacion_(A/m)
0.000000e+00	-8.537470e-07	-1.282542e-09	-6.854894e+00	-8.326422e+01
1.000000e-08	-8.537475e-07	-1.302005e-09	-6.854898e+00	-8.330524e+01
2.000000e-08	-8.537310e-07	-1.305005e-09	-6.854765e+00	-8.333605e+01
3.000000e-08	-8.536826e-07	-1.276957e-09	-6.854376e+00	-8.335721e+01
4.000000e-08	-8.535820e-07	-1.247244e-09	-6.853569e+00	-8.336951e+01
5.000000e-08	-8.533951e-07	-1.248255e-09	-6.852068e+00	-8.337407e+01
6.000000e-08	-8.531130e-07	-1.269584e-09	-6.849803e+00	-8.337244e+01
7.000000e-08	-8.527736e-07	-1.298322e-09	-6.847078e+00	-8.336653e+01
8.000000e-08	-8.524052e-07	-1.330580e-09	-6.844120e+00	-8.335860e+01
9.000000e-08	-8.520143e-07	-1.334972e-09	-6.840982e+00	-8.335094e+01
1.000000e-07	-8.515870e-07	-1.322775e-09	-6.837550e+00	-8.334566e+01
1.100000e-07	-8.511102e-07	-1.271896e-09	-6.833722e+00	-8.334426e+01
1.200000e-07	-8.505543e-07	-1.219518e-09	-6.829259e+00	-8.334735e+01
1.300000e-07	-8.498602e-07	-1.224856e-09	-6.823686e+00	-8.335440e+01
1.400000e-07	-8.490422e-07	-1.260589e-09	-6.817118e+00	-8.336356e+01
1.500000e-07	-8.481196e-07	-1.291975e-09	-6.809710e+00	-8.337178e+01
1.600000e-07	-8.471144e-07	-1.324213e-09	-6.801640e+00	-8.337501e+01
1.700000e-07	-8.460679e-07	-1.324309e-09	-6.793236e+00	-8.336866e+01
1.800000e-07	-8.449976e-07	-1.290839e-09	-6.784643e+00	-8.334811e+01
1.900000e-07	-8.439082e-07	-1.265947e-09	-6.775896e+00	-8.330931e+01
2.000000e-07	-8.427768e-07	-1.257582e-09	-6.766812e+00	-8.324939e+01
2.100000e-07	-8.415731e-07	-1.256007e-09	-6.757147e+00	-8.316705e+01
2.200000e-07	-8.402934e-07	-1.265958e-09	-6.746872e+00	-8.306284e+01
2.300000e-07	-8.389471e-07	-1.278273e-09	-6.736063e+00	-8.293916e+01
2.400000e-07	-8.375449e-07	-1.285950e-09	-6.724804e+00	-8.279999e+01
2.500000e-07	-8.360945e-07	-1.276284e-09	-6.713158e+00	-8.265040e+01
2.600000e-07	-8.345937e-07	-1.252103e-09	-6.701108e+00	-8.249593e+01
2.700000e-07	-8.330437e-07	-1.236074e-09	-6.688663e+00	-8.234180e+01
2.800000e-07	-8.314299e-07	-1.233792e-09	-6.675705e+00	-8.219229e+01
2.900000e-07	-8.297402e-07	-1.242186e-09	-6.662138e+00	-8.205009e+01
3.000000e-07	-8.279905e-07	-1.250391e-09	-6.648090e+00	-8.191603e+01
3.100000e-07	-8.262052e-07	-1.256352e-09	-6.633756e+00	-8.178896e+01
3.200000e-07	-8.243888e-07	-1.244279e-09	-6.619171e+00	-8.166598e+01
3.300000e-07	-8.225256e-07	-1.228198e-09	-6.604211e+00	-8.154291e+01
3.400000e-07	-8.205978e-07	-1.217132e-09	-6.588733e+00	-8.141491e+01
3.500000e-07	-8.186085e-07	-1.219201e-09	-6.572760e+00	-8.127723e+01
3.600000e-07	-8.165653e-07	-1.223398e-09	-6.556355e+00	-8.112586e+01
3.700000e-07	-8.144316e-07	-1.224532e-09	-6.539223e+00	-8.095815e+01
3.800000e-07	-8.121946e-07	-1.219400e-09	-6.521261e+00	-8.077303e+01
3.900000e-07	-8.098765e-07	-1.213507e-09	-6.502649e+00	-8.057119e+01
4.000000e-07	-8.074864e-07	-1.207059e-09	-6.483459e+00	-8.035474e+01
4.100000e-07	-8.050290e-07	-1.200454e-09	-6.463727e+00	-8.012687e+01
4.200000e-07	-8.024912e-07	-1.195337e-09	-6.443351e+00	-7.989115e+01
4.300000e-07	-7.998863e-07	-1.191778e-09	-6.422436e+00	-7.965093e+01
4.400000e-07	-7.972268e-07	-1.191803e-09	-6.401083e+00	-7.940871e+01
4.500000e-07	-7.945036e-07	-1.189047e-09	-6.379217e+00	-7.916573e+01
4.600000e-07	-7.917166e-07	-1.184883e-09	-6.356840e+00	-7.892174e+01
4.700000e-07	-7.888569e-07	-1.178598e-09	-6.333879e+00	-7.867506e+01
4.800000e-07	-7.859320e-07	-1.175994e-09	-6.310395e+00	-7.842291e+01
4.900000e-07	-7.829617e-07	-1.174125e-09	-6.286545e+00	-7.816192e+01
5.000000e-07	-7.799419e-07	-1.172298e-09	-6.262299e+00	-7.788870e+01
5.100000e-07	-7.768639e-07	-1.164682e-09	-6.237585e+00	-7.760053e+01
5.200000e-07	-7.737320e-07	-1.156913e-09	-6.212438e+00	-7.729581e+01
5.300000e-07	-7.705293e-07	-1.150866e-09	-6.186723e+00	-7.697439e+01
5.400000e-07	-7.672628e-07	-1.151832e-09	-6.160496e+00	-7.663760e+01
5.500000e-07	-7.639004e-07	-1.154820e-09	-6.133498e+00	-7.628808e+01
5.600000e-07	-7.604560e-07	-1.155661e-09	-6.105843e+00	-7.592929e+01
5.700000e-07	-7.569776e-07	-1.152407e-09	-6.077914e+00	-7.556494e+01
5.800000e-07	-7.534292e-07	-1.146527e-09	-6.049423e+00	-7.519829e+01
5.900000e-07	-7.498160e-07	-1.138654e-09	-6.020412e+00	-7.483161e+01
6.000000e-07	-7.461358e-07	-1.129958e-09	-5.990863e+00	-7.446573e+01
6.100000e-07	-7.424073e-07	-1.123107e-09	-5.960927e+00	-7.409988e+01
6.200000e-07	-7.386609e-07	-1.121425e-09	-5.930845e+00	-7.373180e+01
6.300000e-07	-7.348764e-07	-1.123889e-09	-5.900460e+00	-7.335817e+01
6.400000e-07	-7.310352e-07	-1.122558e-09	-5.869618e+00	-7.297520e+01
6.500000e-07	-7.271382e-07	-1.115128e-09	-5.838328e+00	-7.257940e+01
6.600000e-07	-7.231840e-07	-1.104329e-09	-5.806579e+00	-7.216830e+01
6.700000e-07	-7.191850e-07	-1.096244e-09	-5.774470e+00	-7.174109e+01
6.800000e-07	-7.151414e-07	-1.089864e-09	-5.742003e+00	-7.129898e+01
6.900000e-07	-7.110528e-07	-1.085030e-09	-5.709175e+00	-7.084525e+01
7.000000e-07	-7.069183e-07	-1.079607e-09	-5.675978e+00	-7.038501e+01
7.100000e-07	-7.027329e-07	-1.074193e-09	-5.642373e+00	-6.992455e+01
7.200000e-07	-6.985132e-07	-1.067436e-09	-5.608492e+00	-6.947057e+01
7.300000e-07	-6.942706e-07	-1.057598e-09	-5.574428e+00	-6.902923e+01
7.400000e-07	-6.900027e-07	-1.047184e-09	-5.540160e+00	-6.860524e+01
7.500000e-07	-6.856846e-07	-1.042601e-09	-5.505490e+00	-6.820114e+01
7.600000e-07	-6.813159e-07	-1.041516e-09	-5.470412e+00	-6.781686e+01
7.700000e-07	-6.769024e-07	-1.037188e-09	-5.434976e+00	-6.744964e+01
7.800000e-07	-6.724480e-07	-1.027937e-09	-5.399210e+00	-6.709436e+01
7.900000e-07	-6.679520e-07	-1.017533e-09	-5.363111e+00	-6.674415e+01
8.000000e-07	-6.634134e-07	-1.009622e-09	-5.326669e+00	-6.639134e+01
8.100000e-07	-6.588306e-07	-1.003218e-09	-5.289873e+00	-6.602848e+01
8.200000e-07	-6.541957e-07	-9.952693e-10	-5.252659e+00	-6.564934e+01
8.300000e-07	-6.495133e-07	-9.871503e-10	-5.215063e+00	-6.524974e+01
8.400000e-07	-6.447968e-07	-9.822774e-10	-5.177194e+00	-6.482808e+01
8.500000e-07	-6.400375e-07	-9.771030e-10	-5.138980e+00	-6.438546e+01
8.600000e-07	-6.352187e-07	-9.684463e-10	-5.100289e+00	-6.392550e+01
8.700000e-07	-6.303504e-07	-9.563071e-10	-5.061201e+00	-6.345369e+01
8.800000e-07	-6.254336e-07	-9.479955e-10	-5.021723e+00	-6.297657e+01
8.900000e-07	-6.204725e-07	-9.434352e-10	-4.981889e+00	-6.250070e+01
9.000000e-07	-6.154887e-07	-9.364338e-10	-4.941873e+00	-6.203175e+01
9.100000e-07	-6.104722e-07	-9.276148e-10	-4.901595e+00	-6.157365e+01
9.200000e-07	-6.054227e-07	-9.196224e-10	-4.861052e+00	-6.112810e+01
9.300000e-07	-6.003388e-07	-9.136485e-10	-4.820232e+00	-6.069435e+01
9.400000e-07	-5.952007e-07	-9.068543e-10	-4.778977e+00	-6.026943e+01
9.500000e-07	-5.900062e-07	-8.981169e-10	-4.737270e+00	-5.984866e+01
9.600000e-07	-5.847665e-07	-8.910492e-10	-4.695199e+00	-5.942637e+01
9.700000e-07	-5.794864e-07	-8.864670e-10	-4.652804e+00	-5.899675e+01
9.800000e-07	-5.741485e-07	-8.802308e-10	-4.609945e+00	-5.855471e+01
9.900000e-07	-5.687304e-07	-8.693631e-10	-4.566442e+00	-5.809654e+01
1.000000e-06	-5.632258e-07	-8.578947e-10	-4.522245e+00	-5.762031e+01
1.010000e-06	-5.576661e-07	-8.503158e-10	-4.477605e+00	-5.712599e+01
1.020000e-06	-5.520343e-07	-8.430321e-10	-4.432386e+00	-5.661524e+01
1.030000e-06	-5.463406e-07	-8.322795e-10	-4.386671e+00	-5.609098e+01
1.040000e-06	-5.406112e-07	-8.202087e-10	-4.340668e+00	-5.555668e+01
1.050000e-06	-5.348392e-07	-8.124466e-10	-4.294323e+00	-5.501571e+01
1.060000e-06	-5.290452e-07	-8.077015e-10	-4.247802e+00	-5.447066e+01
1.070000e-06	-5.232452e-07	-7.992808e-10	-4.201233e+00	-5.392291e+01
1.080000e-06	-5.174385e-07	-7.893826e-10	-4.154610e+00	-5.337235e+01
1.090000e-06	-5.116019e-07	-7.812161e-10	-4.107747e+00	-5.281747e+01
1.100000e-06	-5.057373e-07	-7.737363e-10	-4.060659e+00	-5.225566e+01
1.110000e-06	-4.998523e-07	-7.649391e-10	-4.013407e+00	-5.168375e+01
1.120000e-06	-4.939233e-07	-7.533959e-10	-3.965802e+00	-5.109866e+01
1.130000e-06	-4.879519e-07	-7.415689e-10	-3.917857e+00	-5.049802e+01
1.140000e-06	-4.819473e-07	-7.319978e-10	-3.869644e+00	-4.988072e+01
1.150000e-06	-4.759031e-07	-7.260481e-10	-3.821115e+00	-4.924728e+01
1.160000e-06	-4.698209e-07	-7.199468e-10	-3.772279e+00	-4.859990e+01
1.170000e-06	-4.637046e-07	-7.130454e-10	-3.723171e+00	-4.794227e+01
1.180000e-06	-4.575635e-07	-7.058113e-10	-3.673862e+00	-4.727920e+01
1.190000e-06	-4.514066e-07	-6.969382e-10	-3.624428e+00	-4.661598e+01
1.200000e-06	-4.452283e-07	-6.864978e-10	-3.574821e+00	-4.595769e+01
1.210000e-06	-4.390185e-07	-6.750980e-10	-3.524961e+00	-4.530864e+01
1.220000e-06	-4.327658e-07	-6.663070e-10	-3.474757e+00	-4.467177e+01
1.230000e-06	-4.264758e-07	-6.606974e-10	-3.424254e+00	-4.404840e+01
1.240000e-06	-4.201795e-07	-6.556375e-10	-3.373699e+00	-4.343815e+01
1.250000e-06	-4.138758e-07	-6.491300e-10	-3.323086e+00	-4.283917e+01
1.260000e-06	-4.075511e-07	-6.415006e-10	-3.272304e+00	-4.224849e+01
1.270000e-06	-4.011986e-07	-6.338444e-10	-3.221298e+00	-4.166261e+01
1.280000e-06	-3.948012e-07	-6.256508e-10	-3.169932e+00	-4.107807e+01
1.290000e-06	-3.883490e-07	-6.149882e-10	-3.118127e+00	-4.049199e+01
1.300000e-06	-3.818650e-07	-6.027584e-10	-3.066065e+00	-3.990247e+01
1.310000e-06	-3.753647e-07	-5.911021e-10	-3.013873e+00	-3.930879e+01
1.320000e-06	-3.688489e-07	-5.813162e-10	-2.961557e+00	-3.871139e+01
1.330000e-06	-3.623148e-07	-5.732007e-10	-2.909093e+00	-3.811169e+01
1.340000e-06	-3.557679e-07	-5.668547e-10	-2.856527e+00	-3.751165e+01
1.350000e-06	-3.492065e-07	-5.610085e-10	-2.803844e+00	-3.691336e+01
1.360000e-06	-3.426071e-07	-5.545549e-10	-2.750856e+00	-3.631855e+01
1.370000e-06	-3.359875e-07	-5.451264e-10	-2.697706e+00	-3.572821e+01
1.380000e-06	-3.293773e-07	-5.337500e-10	-2.644631e+00	-3.514236e+01
1.390000e-06	-3.227614e-07	-5.237964e-10	-2.591512e+00	-3.455999e+01
1.400000e-06	-3.161200e-07	-5.149905e-10	-2.538186e+00	-3.397923e+01
1.410000e-06	-3.094483e-07	-5.073386e-10	-2.484618e+00	-3.339761e+01
1.420000e-06	-3.027613e-07	-4.989376e-10	-2.430926e+00	-3.281247e+01
1.430000e-06	-2.960758e-07	-4.916631e-10	-2.377248e+00	-3.222143e+01
1.440000e-06	-2.893808e-07	-4.840562e-10	-2.323492e+00	-3.162274e+01
1.450000e-06	-2.826654e-07	-4.737904e-10	-2.269573e+00	-3.101556e+01
1.460000e-06	-2.759287e-07	-4.615139e-10	-2.215483e+00	-3.040007e+01
1.470000e-06	-2.691621e-07	-4.489969e-10	-2.161152e+00	-2.977738e+01
1.480000e-06	-2.623569e-07	-4.388029e-10	-2.106512e+00	-2.914931e+01
1.490000e-06	-2.555377e-07	-4.298467e-10	-2.051760e+00	-2.851798e+01
1.500000e-06	-2.487054e-07	-4.206973e-10	-1.996902e+00	-2.788546e+01
1.510000e-06	-2.418415e-07	-4.113909e-10	-1.941790e+00	-2.725328e+01
1.520000e-06	-2.349578e-07	-4.029957e-10	-1.886519e+00	-2.662219e+01
1.530000e-06	-2.280216e-07	-3.924672e-10	-1.830828e+00	-2.599194e+01
1.540000e-06	-2.210371e-07	-3.795406e-10	-1.774748e+00	-2.536131e+01
1.550000e-06	-2.140331e-07	-3.674488e-10	-1.718511e+00	-2.472830e+01
1.560000e-06	-2.070118e-07	-3.568546e-10	-1.662136e+00	-2.409043e+01
1.570000e-06	-1.999601e-07	-3.473248e-10	-1.605517e+00	-2.344519e+01
1.580000e-06	-1.928666e-07	-3.376312e-10	-1.548562e+00	-2.279047e+01
1.590000e-06	-1.857554e-07	-3.268403e-10	-1.491464e+00	-2.212494e+01
1.600000e-06	-1.786376e-07	-3.159959e-10	-1.434315e+00	-2.144830e+01
1.610000e-06	-1.715117e-07	-3.041809e-10	-1.377099e+00	-2.076141e+01
1.620000e-06	-1.643485e-07	-2.915148e-10	-1.319584e+00	-2.006617e+01
1.630000e-06	-1.571555e-07	-2.798849e-10	-1.261831e+00	-1.936528e+01
1.640000e-06	-1.499626e-07	-2.691623e-10	-1.204078e+00	-1.866184e+01
1.650000e-06	-1.427547e-07	-2.596571e-10	-1.146204e+00	-1.795890e+01
1.660000e-06	-1.355218e-07	-2.507036e-10	-1.088130e+00	-1.725905e+01
1.670000e-06	-1.282883e-07	-2.403656e-10	-1.030051e+00	-1.656399e+01
1.680000e-06	-1.210467e-07	-2.288154e-10	-9.719065e-01	-1.587433e+01
1.690000e-06	-1.137767e-07	-2.169870e-10	-9.135342e-01	-1.518955e+01
1.700000e-06	-1.064923e-07	-2.042318e-10	-8.550464e-01	-1.450806e+01
1.710000e-06	-9.919650e-08	-1.924509e-10	-7.964671e-01	-1.382756e+01
1.720000e-06	-9.189791e-08	-1.832362e-10	-7.378654e-01	-1.314536e+01
1.730000e-06	-8.460613e-08	-1.753371e-10	-6.793183e-01	-1.245885e+01
1.740000e-06	-7.730226e-08	-1.669601e-10	-6.206742e-01	-1.176593e+01
1.750000e-06	-6.998148e-08	-1.584704e-10	-5.618944e-01	-1.106533e+01
1.760000e-06	-6.265770e-08	-1.509716e-10	-5.030903e-01	-1.035684e+01
1.770000e-06	-5.533503e-08	-1.424811e-10	-4.442952e-01	-9.641336e+00
1.780000e-06	-4.800398e-08	-1.315630e-10	-3.854329e-01	-8.920698e+00
1.790000e-06	-4.067304e-08	-1.205982e-10	-3.265714e-01	-8.197541e+00
1.800000e-06	-3.334355e-08	-1.098988e-10	-2.677216e-01	-7.474893e+00
1.810000e-06	-2.601272e-08	-9.840617e-11	-2.088610e-01	-6.755822e+00
1.820000e-06	-1.867905e-08	-8.755098e-11	-1.499776e-01	-6.043077e+00
1.830000e-06	-1.133011e-08	-7.861612e-11	-9.097158e-02	-5.338804e+00
1.840000e-06	-3.988055e-09	-7.093051e-11	-3.202083e-02	-4.644366e+00
1.850000e-06	3.348144e-09	-6.280724e-11	2.688287e-02	-3.960276e+00
1.860000e-06	1.069273e-08	-5.600564e-11	8.585388e-02	-3.286240e+00
1.870000e-06	1.802836e-08	-5.195525e-11	1.447531e-01	-2.621298e+00
1.880000e-06	2.536771e-08	-4.684269e-11	2.036820e-01	-1.964010e+00
1.890000e-06	3.270902e-08	-3.678125e-11	2.626268e-01	-1.312664e+00
1.900000e-06	4.003348e-08	-2.321800e-11	3.214363e-01	-6.654521e-01
1.910000e-06	4.735133e-08	-1.043674e-11	3.801927e-01	-2.061725e-02
1.920000e-06	5.467326e-08	-1.110950e-12	4.389818e-01	6.234754e-01
1.930000e-06	6.199362e-08	6.560706e-12	4.977583e-01	1.268312e+00
1.940000e-06	6.931197e-08	1.508828e-11	5.565187e-01	1.915245e+00
1.950000e-06	7.664100e-08	2.182242e-11	6.153648e-01	2.565524e+00
1.960000e-06	8.397169e-08	2.745616e-11	6.742243e-01	3.220311e+00
1.970000e-06	9.127908e-08	3.431011e-11	7.328967e-01	3.880664e+00
1.980000e-06	9.857533e-08	4.529464e-11	7.914797e-01	4.547475e+00
1.990000e-06	1.058811e-07	5.791432e-11	8.501393e-01	5.221371e+00
2.000000e-06	1.131792e-07	6.799766e-11	9.087366e-01	5.902579e+00
2.010000e-06	1.204630e-07	7.756596e-11	9.672202e-01	6.590810e+00
2.020000e-06	1.277281e-07	8.797903e-11	1.025553e+00	7.285163e+00
2.030000e-06	1.349638e-07	9.857361e-11	1.083650e+00	7.984112e+00
2.040000e-06	1.421734e-07	1.079510e-10	1.141537e+00	8.685575e+00
2.050000e-06	1.493648e-07	1.171635e-10	1.199278e+00	9.387086e+00
2.060000e-06	1.565396e-07	1.265183e-10	1.256886e+00	1.008605e+01
2.070000e-06	1.637052e-07	1.359732e-10	1.314420e+00	1.078008e+01
2.080000e-06	1.708609e-07	1.472034e-10	1.371874e+00	1.146728e+01
2.090000e-06	1.779924e-07	1.602214e-10	1.429134e+00	1.214661e+01
2.100000e-06	1.850924e-07	1.729878e-10	1.486141e+00	1.281802e+01
2.110000e-06	1.921653e-07	1.837733e-10	1.542931e+00	1.348255e+01
2.120000e-06	1.992304e-07	1.918474e-10	1.599658e+00	1.414222e+01
2.130000e-06	2.062722e-07	2.004213e-10	1.656198e+00	1.479981e+01
2.140000e-06	2.132717e-07	2.088462e-10	1.712398e+00	1.545845e+01
2.150000e-06	2.202542e-07	2.162441e-10	1.768462e+00	1.612117e+01
2.160000e-06	2.272071e-07	2.254079e-10	1.824288e+00	1.679046e+01
2.170000e-06	2.341127e-07	2.384367e-10	1.879735e+00	1.746782e+01
2.180000e-06	2.409960e-07	2.541012e-10	1.935002e+00	1.815350e+01
2.190000e-06	2.478542e-07	2.677028e-10	1.990067e+00	1.884641e+01
2.200000e-06	2.546868e-07	2.777680e-10	2.044928e+00	1.954421e+01
2.210000e-06	2.614950e-07	2.860153e-10	2.099592e+00	2.024363e+01
2.220000e-06	2.682826e-07	2.933264e-10	2.154091e+00	2.094092e+01
2.230000e-06	2.750531e-07	3.010283e-10	2.208452e+00	2.163239e+01
2.240000e-06	2.817976e-07	3.103553e-10	2.262605e+00	2.231503e+01
2.250000e-06	2.885148e-07	3.204524e-10	2.316539e+00	2.298691e+01
2.260000e-06	2.952072e-07	3.329342e-10	2.370273e+00	2.364760e+01
2.270000e-06	3.018830e-07	3.465978e-10	2.423875e+00	2.429822e+01
2.280000e-06	3.085371e-07	3.588600e-10	2.477302e+00	2.494133e+01
2.290000e-06	3.151720e-07	3.696097e-10	2.530575e+00	2.558064e+01
2.300000e-06	3.218035e-07	3.791240e-10	2.583820e+00	2.622042e+01
2.310000e-06	3.284279e-07	3.889862e-10	2.637009e+00	2.686493e+01
2.320000e-06	3.350391e-07	4.000867e-10	2.690092e+00	2.751779e+01
2.330000e-06	3.416473e-07	4.113942e-10	2.743150e+00	2.818146e+01
2.340000e-06	3.482440e-07	4.240838e-10	2.796116e+00	2.885687e+01
2.350000e-06	3.548158e-07	4.374085e-10	2.848882e+00	2.954328e+01
2.360000e-06	3.613755e-07	4.489297e-10	2.901551e+00	3.023844e+01
2.370000e-06	3.679252e-07	4.577002e-10	2.954140e+00	3.093892e+01
2.380000e-06	3.744447e-07	4.654875e-10	3.006486e+00	3.164064e+01
2.390000e-06	3.809258e-07	4.744563e-10	3.058524e+00	3.233948e+01
2.400000e-06	3.873723e-07	4.846526e-10	3.110284e+00	3.303190e+01
2.410000e-06	3.937764e-07	4.957614e-10	3.161704e+00	3.371543e+01
2.420000e-06	4.001369e-07	5.073577e-10	3.212774e+00	3.438902e+01
2.430000e-06	4.064786e-07	5.195289e-10	3.263693e+00	3.505308e+01
2.440000e-06	4.128042e-07	5.313920e-10	3.314482e+00	3.570938e+01
2.450000e-06	4.191031e-07	5.422961e-10	3.365057e+00	3.636062e+01
2.460000e-06	4.253854e-07	5.507291e-10	3.415498e+00	3.700995e+01
2.470000e-06	4.316474e-07	5.584753e-10	3.465777e+00	3.766031e+01
2.480000e-06	4.378791e-07	5.672354e-10	3.515813e+00	3.831392e+01
2.490000e-06	4.440742e-07	5.763650e-10	3.565554e+00	3.897181e+01
2.500000e-06	4.502367e-07	5.856893e-10	3.615034e+00	3.963363e+01
2.510000e-06	4.563781e-07	5.943719e-10	3.664344e+00	4.029757e+01
2.520000e-06	4.625093e-07	6.030140e-10	3.713573e+00	4.096069e+01
2.530000e-06	4.686050e-07	6.131112e-10	3.762517e+00	4.161931e+01
2.540000e-06	4.746429e-07	6.225826e-10	3.810996e+00	4.226961e+01
2.550000e-06	4.806499e-07	6.307318e-10	3.859228e+00	4.290821e+01
2.560000e-06	4.866232e-07	6.389549e-10	3.907188e+00	4.353275e+01
2.570000e-06	4.925691e-07	6.480357e-10	3.954929e+00	4.414222e+01
2.580000e-06	4.984870e-07	6.577087e-10	4.002445e+00	4.473720e+01
2.590000e-06	5.043615e-07	6.648744e-10	4.049613e+00	4.531971e+01
2.600000e-06	5.102139e-07	6.728306e-10	4.096603e+00	4.589297e+01
2.610000e-06	5.160493e-07	6.851894e-10	4.143456e+00	4.646082e+01
2.620000e-06	5.218592e-07	6.988881e-10	4.190104e+00	4.702719e+01
2.630000e-06	5.276465e-07	7.097466e-10	4.236572e+00	4.759545e+01
2.640000e-06	5.334143e-07	7.169871e-10	4.282883e+00	4.816788e+01
2.650000e-06	5.391629e-07	7.230032e-10	4.329039e+00	4.874537e+01
2.660000e-06	5.448852e-07	7.299827e-10	4.374984e+00	4.932724e+01
2.670000e-06	5.505588e-07	7.364125e-10	4.420539e+00	4.991144e+01
2.680000e-06	5.561756e-07	7.422821e-10	4.465637e+00	5.049481e+01
2.690000e-06	5.617393e-07	7.511629e-10	4.510309e+00	5.107372e+01
2.700000e-06	5.672404e-07	7.631309e-10	4.554479e+00	5.164455e+01
2.710000e-06	5.726877e-07	7.758414e-10	4.598216e+00	5.220436e+01
2.720000e-06	5.780771e-07	7.861151e-10	4.641489e+00	5.275132e+01
2.730000e-06	5.833737e-07	7.939603e-10	4.684016e+00	5.328503e+01
2.740000e-06	5.885902e-07	8.027827e-10	4.725900e+00	5.380657e+01
2.750000e-06	5.937618e-07	8.117162e-10	4.767424e+00	5.431830e+01
2.760000e-06	5.988785e-07	8.183764e-10	4.808507e+00	5.482355e+01
2.770000e-06	6.039481e-07	8.237903e-10	4.849211e+00	5.532602e+01
2.780000e-06	6.089859e-07	8.324355e-10	4.889661e+00	5.582927e+01
2.790000e-06	6.139871e-07	8.448801e-10	4.929816e+00	5.633613e+01
2.800000e-06	6.189637e-07	8.577161e-10	4.969774e+00	5.684833e+01
2.810000e-06	6.239034e-07	8.682058e-10	5.009437e+00	5.736624e+01
2.820000e-06	6.288044e-07	8.761120e-10	5.048787e+00	5.788885e+01
2.830000e-06	6.336886e-07	8.840485e-10	5.088004e+00	5.841401e+01
2.840000e-06	6.385297e-07	8.916373e-10	5.126874e+00	5.893876e+01
2.850000e-06	6.433020e-07	8.975983e-10	5.165192e+00	5.945984e+01
2.860000e-06	6.480350e-07	9.026782e-10	5.203194e+00	5.997421e+01
2.870000e-06	6.527240e-07	9.103216e-10	5.240843e+00	6.047951e+01
2.880000e-06	6.573596e-07	9.207765e-10	5.278063e+00	6.097439e+01
2.890000e-06	6.619590e-07	9.308490e-10	5.314992e+00	6.145870e+01
2.900000e-06	6.665173e-07	9.401732e-10	5.351591e+00	6.193342e+01
