# Temperatura_=_20.0
# Concentracion g/m^3_=_10000.0
# C_Vs_to_Am_M_A/Vsm_=_65563218390.804596
# pendiente_HvsI_1/m_=_3716.3
# ordenada_HvsI_A/m_=_1297.0
# frecuencia_Hz_=_135113.35797806855

Tiempo_(s)	Campo_(V.s)	Magnetizacion_(V.s)	Campo_(kA/m)	Magnetizacion_(A/m)
0.000000e+00	-8.537327e-07	-1.361208e-09	-6.854791e+00	-8.450055e+01
1.000000e-08	-8.537396e-07	-1.367530e-09	-6.854846e+00	-8.453551e+01
2.000000e-08	-8.537090e-07	-1.336915e-09	-6.854601e+00	-8.456697e+01
3.000000e-08	-8.536329e-07	-1.289104e-09	-6.853989e+00	-8.459376e+01
4.000000e-08	-8.534943e-07	-1.264455e-09	-6.852877e+00	-8.461469e+01
5.000000e-08	-8.532558e-07	-1.280728e-09	-6.850962e+00	-8.462895e+01
6.000000e-08	-8.529364e-07	-1.313617e-09	-6.848397e+00	-8.463635e+01
7.000000e-08	-8.525819e-07	-1.383409e-09	-6.845551e+00	-8.463752e+01
8.000000e-08	-8.521871e-07	-1.410784e-09	-6.842381e+00	-8.463381e+01
9.000000e-08	-8.517508e-07	-1.391445e-09	-6.838878e+00	-8.462711e+01
1.000000e-07	-8.512710e-07	-1.333418e-09	-6.835026e+00	-8.461945e+01
1.100000e-07	-8.507264e-07	-1.262540e-09	-6.830653e+00	-8.461257e+01
1.200000e-07	-8.500966e-07	-1.239532e-09	-6.825596e+00	-8.460740e+01
1.300000e-07	-8.493526e-07	-1.289092e-09	-6.819622e+00	-8.460372e+01
1.400000e-07	-8.484676e-07	-1.344803e-09	-6.812517e+00	-8.459994e+01
1.500000e-07	-8.474867e-07	-1.376738e-09	-6.804640e+00	-8.459310e+01
1.600000e-07	-8.464591e-07	-1.371182e-09	-6.796390e+00	-8.457911e+01
1.700000e-07	-8.454085e-07	-1.341201e-09	-6.787954e+00	-8.455321e+01
1.800000e-07	-8.443560e-07	-1.314270e-09	-6.779504e+00	-8.451060e+01
1.900000e-07	-8.432588e-07	-1.306620e-09	-6.770694e+00	-8.444711e+01
2.000000e-07	-8.420893e-07	-1.298760e-09	-6.761304e+00	-8.435984e+01
2.100000e-07	-8.408461e-07	-1.306769e-09	-6.751321e+00	-8.424769e+01
2.200000e-07	-8.395314e-07	-1.326764e-09	-6.740766e+00	-8.411163e+01
2.300000e-07	-8.381637e-07	-1.339819e-09	-6.729784e+00	-8.395468e+01
2.400000e-07	-8.367643e-07	-1.331033e-09	-6.718548e+00	-8.378161e+01
2.500000e-07	-8.353224e-07	-1.302152e-09	-6.706971e+00	-8.359841e+01
2.600000e-07	-8.337828e-07	-1.283864e-09	-6.694609e+00	-8.341152e+01
2.700000e-07	-8.321486e-07	-1.279765e-09	-6.681488e+00	-8.322704e+01
2.800000e-07	-8.304840e-07	-1.298799e-09	-6.668122e+00	-8.304989e+01
2.900000e-07	-8.287930e-07	-1.309018e-09	-6.654545e+00	-8.288327e+01
3.000000e-07	-8.270482e-07	-1.315760e-09	-6.640536e+00	-8.272820e+01
3.100000e-07	-8.252496e-07	-1.300695e-09	-6.626094e+00	-8.258348e+01
3.200000e-07	-8.234122e-07	-1.286886e-09	-6.611341e+00	-8.244594e+01
3.300000e-07	-8.215426e-07	-1.275144e-09	-6.596330e+00	-8.231091e+01
3.400000e-07	-8.196054e-07	-1.278719e-09	-6.580776e+00	-8.217295e+01
3.500000e-07	-8.175792e-07	-1.285056e-09	-6.564508e+00	-8.202664e+01
3.600000e-07	-8.154621e-07	-1.287791e-09	-6.547508e+00	-8.186732e+01
3.700000e-07	-8.132613e-07	-1.281267e-09	-6.529838e+00	-8.169173e+01
3.800000e-07	-8.109643e-07	-1.272892e-09	-6.511394e+00	-8.149837e+01
3.900000e-07	-8.085595e-07	-1.268870e-09	-6.492086e+00	-8.128761e+01
4.000000e-07	-8.060984e-07	-1.265335e-09	-6.472325e+00	-8.106148e+01
4.100000e-07	-8.035841e-07	-1.262058e-09	-6.452138e+00	-8.082324e+01
4.200000e-07	-8.010012e-07	-1.255526e-09	-6.431399e+00	-8.057677e+01
4.300000e-07	-7.983743e-07	-1.256078e-09	-6.410307e+00	-8.032589e+01
4.400000e-07	-7.956939e-07	-1.250783e-09	-6.388786e+00	-8.007371e+01
4.500000e-07	-7.929392e-07	-1.243395e-09	-6.366668e+00	-7.982212e+01
4.600000e-07	-7.901276e-07	-1.231763e-09	-6.344093e+00	-7.957155e+01
4.700000e-07	-7.872593e-07	-1.231650e-09	-6.321063e+00	-7.932093e+01
4.800000e-07	-7.843197e-07	-1.232903e-09	-6.297460e+00	-7.906791e+01
4.900000e-07	-7.813162e-07	-1.232915e-09	-6.273344e+00	-7.880931e+01
5.000000e-07	-7.782606e-07	-1.220676e-09	-6.248810e+00	-7.854166e+01
5.100000e-07	-7.751502e-07	-1.209087e-09	-6.223836e+00	-7.826180e+01
5.200000e-07	-7.719798e-07	-1.200211e-09	-6.198381e+00	-7.796742e+01
5.300000e-07	-7.687357e-07	-1.198668e-09	-6.172333e+00	-7.765737e+01
5.400000e-07	-7.654140e-07	-1.196362e-09	-6.145663e+00	-7.733186e+01
5.500000e-07	-7.620080e-07	-1.194133e-09	-6.118315e+00	-7.699237e+01
5.600000e-07	-7.585280e-07	-1.191424e-09	-6.090373e+00	-7.664135e+01
5.700000e-07	-7.549976e-07	-1.186940e-09	-6.062027e+00	-7.628180e+01
5.800000e-07	-7.514037e-07	-1.177983e-09	-6.033171e+00	-7.591671e+01
5.900000e-07	-7.477536e-07	-1.167694e-09	-6.003863e+00	-7.554861e+01
6.000000e-07	-7.440727e-07	-1.163534e-09	-5.974309e+00	-7.517914e+01
6.100000e-07	-7.403501e-07	-1.163148e-09	-5.944419e+00	-7.480880e+01
6.200000e-07	-7.365808e-07	-1.163478e-09	-5.914155e+00	-7.443700e+01
6.300000e-07	-7.327741e-07	-1.156177e-09	-5.883590e+00	-7.406220e+01
6.400000e-07	-7.289024e-07	-1.147014e-09	-5.852503e+00	-7.368228e+01
6.500000e-07	-7.249623e-07	-1.137994e-09	-5.820867e+00	-7.329505e+01
6.600000e-07	-7.209734e-07	-1.130441e-09	-5.788839e+00	-7.289869e+01
6.700000e-07	-7.169334e-07	-1.120778e-09	-5.756402e+00	-7.249223e+01
6.800000e-07	-7.128380e-07	-1.113741e-09	-5.723519e+00	-7.207583e+01
6.900000e-07	-7.087093e-07	-1.107111e-09	-5.690369e+00	-7.165085e+01
7.000000e-07	-7.045538e-07	-1.101139e-09	-5.657003e+00	-7.121976e+01
7.100000e-07	-7.003578e-07	-1.093338e-09	-5.623313e+00	-7.078580e+01
7.200000e-07	-6.961248e-07	-1.085785e-09	-5.589325e+00	-7.035252e+01
7.300000e-07	-6.918571e-07	-1.079718e-09	-5.555059e+00	-6.992323e+01
7.400000e-07	-6.875523e-07	-1.075789e-09	-5.520495e+00	-6.950049e+01
7.500000e-07	-6.832155e-07	-1.072587e-09	-5.485674e+00	-6.908564e+01
7.600000e-07	-6.788366e-07	-1.068389e-09	-5.450515e+00	-6.867858e+01
7.700000e-07	-6.743936e-07	-1.061660e-09	-5.414841e+00	-6.827773e+01
7.800000e-07	-6.698822e-07	-1.052582e-09	-5.378619e+00	-6.788016e+01
7.900000e-07	-6.653204e-07	-1.042957e-09	-5.341991e+00	-6.748201e+01
8.000000e-07	-6.607282e-07	-1.033274e-09	-5.305119e+00	-6.707900e+01
8.100000e-07	-6.561144e-07	-1.026150e-09	-5.268074e+00	-6.666696e+01
8.200000e-07	-6.514642e-07	-1.020793e-09	-5.230737e+00	-6.624245e+01
8.300000e-07	-6.467559e-07	-1.016710e-09	-5.192933e+00	-6.580311e+01
8.400000e-07	-6.419869e-07	-1.011462e-09	-5.154642e+00	-6.534803e+01
8.500000e-07	-6.371747e-07	-1.005339e-09	-5.116003e+00	-6.487775e+01
8.600000e-07	-6.323102e-07	-9.973837e-10	-5.076945e+00	-6.439413e+01
8.700000e-07	-6.273906e-07	-9.892960e-10	-5.037445e+00	-6.390009e+01
8.800000e-07	-6.224352e-07	-9.803360e-10	-4.997657e+00	-6.339910e+01
8.900000e-07	-6.174556e-07	-9.704807e-10	-4.957675e+00	-6.289473e+01
9.000000e-07	-6.124591e-07	-9.624769e-10	-4.917557e+00	-6.239022e+01
9.100000e-07	-6.074335e-07	-9.574197e-10	-4.877205e+00	-6.188806e+01
9.200000e-07	-6.023739e-07	-9.533707e-10	-4.836581e+00	-6.138979e+01
9.300000e-07	-5.972656e-07	-9.465552e-10	-4.795565e+00	-6.089596e+01
9.400000e-07	-5.920901e-07	-9.387672e-10	-4.754010e+00	-6.040621e+01
9.500000e-07	-5.868656e-07	-9.320108e-10	-4.712062e+00	-5.991946e+01
9.600000e-07	-5.815979e-07	-9.251640e-10	-4.669766e+00	-5.943428e+01
9.700000e-07	-5.762873e-07	-9.168079e-10	-4.627126e+00	-5.894916e+01
9.800000e-07	-5.709035e-07	-9.064323e-10	-4.583898e+00	-5.846278e+01
9.900000e-07	-5.654197e-07	-8.952558e-10	-4.539868e+00	-5.797422e+01
1.000000e-06	-5.598809e-07	-8.862781e-10	-4.495396e+00	-5.748301e+01
1.010000e-06	-5.542840e-07	-8.793607e-10	-4.450458e+00	-5.698910e+01
1.020000e-06	-5.486092e-07	-8.718514e-10	-4.404893e+00	-5.649269e+01
1.030000e-06	-5.428874e-07	-8.648149e-10	-4.358952e+00	-5.599404e+01
1.040000e-06	-5.371508e-07	-8.604167e-10	-4.312891e+00	-5.549321e+01
1.050000e-06	-5.313965e-07	-8.564016e-10	-4.266689e+00	-5.498993e+01
1.060000e-06	-5.256194e-07	-8.500360e-10	-4.220303e+00	-5.448341e+01
1.070000e-06	-5.198309e-07	-8.400449e-10	-4.173826e+00	-5.397240e+01
1.080000e-06	-5.140275e-07	-8.283117e-10	-4.127230e+00	-5.345525e+01
1.090000e-06	-5.082038e-07	-8.156582e-10	-4.080470e+00	-5.293010e+01
1.100000e-06	-5.023520e-07	-8.057127e-10	-4.033484e+00	-5.239515e+01
1.110000e-06	-4.964618e-07	-7.982692e-10	-3.986191e+00	-5.184893e+01
1.120000e-06	-4.905346e-07	-7.906335e-10	-3.938600e+00	-5.129050e+01
1.130000e-06	-4.845607e-07	-7.831322e-10	-3.890635e+00	-5.071966e+01
1.140000e-06	-4.785421e-07	-7.771519e-10	-3.842311e+00	-5.013694e+01
1.150000e-06	-4.724825e-07	-7.706680e-10	-3.793657e+00	-4.954359e+01
1.160000e-06	-4.663788e-07	-7.589839e-10	-3.744649e+00	-4.894138e+01
1.170000e-06	-4.602396e-07	-7.469030e-10	-3.695356e+00	-4.833241e+01
1.180000e-06	-4.540873e-07	-7.372200e-10	-3.645958e+00	-4.771874e+01
1.190000e-06	-4.479236e-07	-7.292843e-10	-3.596468e+00	-4.710225e+01
1.200000e-06	-4.417342e-07	-7.180654e-10	-3.546772e+00	-4.648435e+01
1.210000e-06	-4.355339e-07	-7.062444e-10	-3.496989e+00	-4.586591e+01
1.220000e-06	-4.293145e-07	-6.992723e-10	-3.447052e+00	-4.524725e+01
1.230000e-06	-4.230609e-07	-6.962445e-10	-3.396841e+00	-4.462826e+01
1.240000e-06	-4.167683e-07	-6.910841e-10	-3.346316e+00	-4.400858e+01
1.250000e-06	-4.104399e-07	-6.808399e-10	-3.295504e+00	-4.338779e+01
1.260000e-06	-4.040873e-07	-6.681947e-10	-3.244498e+00	-4.276570e+01
1.270000e-06	-3.977098e-07	-6.562960e-10	-3.193292e+00	-4.214243e+01
1.280000e-06	-3.913031e-07	-6.453597e-10	-3.141851e+00	-4.151860e+01
1.290000e-06	-3.848623e-07	-6.326177e-10	-3.090136e+00	-4.089521e+01
1.300000e-06	-3.783922e-07	-6.193579e-10	-3.038187e+00	-4.027357e+01
1.310000e-06	-3.718827e-07	-6.110107e-10	-2.985920e+00	-3.965511e+01
1.320000e-06	-3.653468e-07	-6.071671e-10	-2.933443e+00	-3.904107e+01
1.330000e-06	-3.588112e-07	-6.014225e-10	-2.880967e+00	-3.843230e+01
1.340000e-06	-3.522685e-07	-5.911452e-10	-2.828434e+00	-3.782902e+01
1.350000e-06	-3.457116e-07	-5.813145e-10	-2.775788e+00	-3.723073e+01
1.360000e-06	-3.391398e-07	-5.745056e-10	-2.723021e+00	-3.663621e+01
1.370000e-06	-3.325596e-07	-5.637484e-10	-2.670188e+00	-3.604364e+01
1.380000e-06	-3.259634e-07	-5.515455e-10	-2.617226e+00	-3.545082e+01
1.390000e-06	-3.193446e-07	-5.413160e-10	-2.564082e+00	-3.485548e+01
1.400000e-06	-3.127063e-07	-5.354966e-10	-2.510781e+00	-3.425558e+01
1.410000e-06	-3.060474e-07	-5.301304e-10	-2.457316e+00	-3.364959e+01
1.420000e-06	-2.993652e-07	-5.210694e-10	-2.403663e+00	-3.303668e+01
1.430000e-06	-2.926643e-07	-5.102745e-10	-2.349860e+00	-3.241683e+01
1.440000e-06	-2.859378e-07	-4.991491e-10	-2.295852e+00	-3.179074e+01
1.450000e-06	-2.791826e-07	-4.875325e-10	-2.241613e+00	-3.115963e+01
1.460000e-06	-2.724095e-07	-4.730051e-10	-2.187231e+00	-3.052504e+01
1.470000e-06	-2.656333e-07	-4.593756e-10	-2.132823e+00	-2.988846e+01
1.480000e-06	-2.588366e-07	-4.492665e-10	-2.078251e+00	-2.925101e+01
1.490000e-06	-2.519794e-07	-4.424700e-10	-2.023193e+00	-2.861328e+01
1.500000e-06	-2.450735e-07	-4.349665e-10	-1.967744e+00	-2.797510e+01
1.510000e-06	-2.381492e-07	-4.256883e-10	-1.912148e+00	-2.733563e+01
1.520000e-06	-2.312114e-07	-4.183587e-10	-1.856443e+00	-2.669351e+01
1.530000e-06	-2.242503e-07	-4.122558e-10	-1.800551e+00	-2.604704e+01
1.540000e-06	-2.172602e-07	-4.020817e-10	-1.744425e+00	-2.539461e+01
1.550000e-06	-2.102307e-07	-3.891543e-10	-1.687984e+00	-2.473500e+01
1.560000e-06	-2.031587e-07	-3.775339e-10	-1.631202e+00	-2.406764e+01
1.570000e-06	-1.960504e-07	-3.682586e-10	-1.574128e+00	-2.339285e+01
1.580000e-06	-1.889188e-07	-3.589794e-10	-1.516867e+00	-2.271181e+01
1.590000e-06	-1.817709e-07	-3.463954e-10	-1.459475e+00	-2.202650e+01
1.600000e-06	-1.745976e-07	-3.341893e-10	-1.401879e+00	-2.133937e+01
1.610000e-06	-1.674074e-07	-3.248311e-10	-1.344148e+00	-2.065300e+01
1.620000e-06	-1.602165e-07	-3.161644e-10	-1.286410e+00	-1.996970e+01
1.630000e-06	-1.530162e-07	-3.057777e-10	-1.228598e+00	-1.929106e+01
1.640000e-06	-1.458088e-07	-2.949421e-10	-1.170728e+00	-1.861770e+01
1.650000e-06	-1.385911e-07	-2.874617e-10	-1.112776e+00	-1.794911e+01
1.660000e-06	-1.313422e-07	-2.819164e-10	-1.054573e+00	-1.728361e+01
1.670000e-06	-1.240667e-07	-2.723782e-10	-9.961562e-01	-1.661866e+01
1.680000e-06	-1.167834e-07	-2.592321e-10	-9.376773e-01	-1.595112e+01
1.690000e-06	-1.094961e-07	-2.455400e-10	-8.791660e-01	-1.527776e+01
1.700000e-06	-1.022038e-07	-2.331492e-10	-8.206146e-01	-1.459570e+01
1.710000e-06	-9.490350e-08	-2.225238e-10	-7.619992e-01	-1.390291e+01
1.720000e-06	-8.759105e-08	-2.136525e-10	-7.032861e-01	-1.319846e+01
1.730000e-06	-8.028527e-08	-2.055770e-10	-6.446265e-01	-1.248274e+01
1.740000e-06	-7.298887e-08	-1.980373e-10	-5.860423e-01	-1.175736e+01
1.750000e-06	-6.568809e-08	-1.902111e-10	-5.274229e-01	-1.102498e+01
1.760000e-06	-5.837840e-08	-1.802662e-10	-4.687319e-01	-1.028893e+01
1.770000e-06	-5.105778e-08	-1.668181e-10	-4.099532e-01	-9.552732e+00
1.780000e-06	-4.373312e-08	-1.528662e-10	-3.511420e-01	-8.819657e+00
1.790000e-06	-3.641176e-08	-1.418894e-10	-2.923573e-01	-8.092304e+00
1.800000e-06	-2.908467e-08	-1.308305e-10	-2.335267e-01	-7.372329e+00
1.810000e-06	-2.175315e-08	-1.194319e-10	-1.746604e-01	-6.660323e+00
1.820000e-06	-1.441648e-08	-1.083498e-10	-1.157528e-01	-5.955878e+00
1.830000e-06	-7.073847e-09	-9.884498e-11	-5.679733e-02	-5.257808e+00
1.840000e-06	2.661873e-10	-9.213580e-11	2.137271e-03	-4.564481e+00
1.850000e-06	7.605631e-09	-8.670190e-11	6.106713e-02	-3.874204e+00
1.860000e-06	1.494621e-08	-7.964942e-11	1.200061e-01	-3.185573e+00
1.870000e-06	2.229017e-08	-7.078685e-11	1.789723e-01	-2.497736e+00
1.880000e-06	2.963590e-08	-5.922721e-11	2.379526e-01	-1.810519e+00
1.890000e-06	3.697409e-08	-4.610708e-11	2.968724e-01	-1.124376e+00
1.900000e-06	4.430126e-08	-3.394770e-11	3.557037e-01	-4.402024e-01
1.910000e-06	5.162427e-08	-2.257210e-11	4.145016e-01	2.409815e-01
1.920000e-06	5.894123e-08	-1.336597e-11	4.732510e-01	9.183894e-01
1.930000e-06	6.624614e-08	-5.229227e-12	5.319035e-01	1.591810e+00
1.940000e-06	7.354489e-08	1.093683e-12	5.905067e-01	2.261853e+00
1.950000e-06	8.086232e-08	7.722077e-12	6.492598e-01	2.930040e+00
1.960000e-06	8.819023e-08	1.817407e-11	7.080971e-01	3.598715e+00
1.970000e-06	9.550053e-08	3.126708e-11	7.667929e-01	4.270765e+00
1.980000e-06	1.027879e-07	4.386699e-11	8.253046e-01	4.949202e+00
1.990000e-06	1.100578e-07	5.273512e-11	8.836762e-01	5.636656e+00
2.000000e-06	1.173256e-07	6.071016e-11	9.420311e-01	6.334869e+00
2.010000e-06	1.245835e-07	6.995362e-11	1.000306e+00	7.044289e+00
2.020000e-06	1.318191e-07	7.926010e-11	1.058402e+00	7.763830e+00
2.030000e-06	1.390393e-07	8.863299e-11	1.116374e+00	8.490859e+00
2.040000e-06	1.462464e-07	9.861955e-11	1.174241e+00	9.221438e+00
2.050000e-06	1.534352e-07	1.090867e-10	1.231962e+00	9.950782e+00
2.060000e-06	1.606095e-07	1.203076e-10	1.289566e+00	1.067390e+01
2.070000e-06	1.677830e-07	1.331361e-10	1.347163e+00	1.138629e+01
2.080000e-06	1.749477e-07	1.463791e-10	1.404690e+00	1.208466e+01
2.090000e-06	1.820944e-07	1.587864e-10	1.462072e+00	1.276742e+01
2.100000e-06	1.892254e-07	1.683489e-10	1.519329e+00	1.343506e+01
2.110000e-06	1.963398e-07	1.757893e-10	1.576452e+00	1.409011e+01
2.120000e-06	2.034172e-07	1.818375e-10	1.633278e+00	1.473695e+01
2.130000e-06	2.104526e-07	1.873749e-10	1.689766e+00	1.538121e+01
2.140000e-06	2.174563e-07	1.926543e-10	1.746000e+00	1.602903e+01
2.150000e-06	2.244177e-07	1.995703e-10	1.801894e+00	1.668624e+01
2.160000e-06	2.313478e-07	2.101300e-10	1.857538e+00	1.735751e+01
2.170000e-06	2.382542e-07	2.234947e-10	1.912991e+00	1.804572e+01
2.180000e-06	2.451311e-07	2.376569e-10	1.968207e+00	1.875152e+01
2.190000e-06	2.519757e-07	2.489206e-10	2.023164e+00	1.947323e+01
2.200000e-06	2.587996e-07	2.580724e-10	2.077954e+00	2.020705e+01
2.210000e-06	2.656031e-07	2.655659e-10	2.132580e+00	2.094759e+01
2.220000e-06	2.723897e-07	2.729323e-10	2.187072e+00	2.168861e+01
2.230000e-06	2.791556e-07	2.810736e-10	2.241396e+00	2.242386e+01
2.240000e-06	2.858888e-07	2.907074e-10	2.295459e+00	2.314791e+01
2.250000e-06	2.925878e-07	3.029088e-10	2.349246e+00	2.385685e+01
2.260000e-06	2.992617e-07	3.161692e-10	2.402832e+00	2.454877e+01
2.270000e-06	3.059361e-07	3.272902e-10	2.456422e+00	2.522390e+01
2.280000e-06	3.125979e-07	3.356448e-10	2.509912e+00	2.588443e+01
2.290000e-06	3.192408e-07	3.441095e-10	2.563248e+00	2.653414e+01
2.300000e-06	3.258604e-07	3.538158e-10	2.616399e+00	2.717767e+01
2.310000e-06	3.324570e-07	3.636653e-10	2.669364e+00	2.781984e+01
2.320000e-06	3.390446e-07	3.736175e-10	2.722257e+00	2.846490e+01
2.330000e-06	3.456209e-07	3.857572e-10	2.775060e+00	2.911589e+01
2.340000e-06	3.521876e-07	3.991746e-10	2.827785e+00	2.977432e+01
2.350000e-06	3.587453e-07	4.097936e-10	2.880438e+00	3.043998e+01
2.360000e-06	3.652832e-07	4.181658e-10	2.932932e+00	3.111117e+01
2.370000e-06	3.718066e-07	4.278169e-10	2.985310e+00	3.178505e+01
2.380000e-06	3.783184e-07	4.375513e-10	3.037594e+00	3.245823e+01
2.390000e-06	3.847962e-07	4.473573e-10	3.089606e+00	3.312737e+01
2.400000e-06	3.912317e-07	4.586472e-10	3.141278e+00	3.378980e+01
2.410000e-06	3.976410e-07	4.717834e-10	3.192739e+00	3.444394e+01
2.420000e-06	4.040077e-07	4.843568e-10	3.243859e+00	3.508956e+01
2.430000e-06	4.103281e-07	4.930763e-10	3.294606e+00	3.572776e+01
2.440000e-06	4.166253e-07	4.995580e-10	3.345168e+00	3.636073e+01
2.450000e-06	4.229030e-07	5.074597e-10	3.395572e+00	3.699135e+01
2.460000e-06	4.291551e-07	5.177683e-10	3.445772e+00	3.762263e+01
2.470000e-06	4.353845e-07	5.301946e-10	3.495789e+00	3.825715e+01
2.480000e-06	4.415884e-07	5.410417e-10	3.545602e+00	3.889664e+01
2.490000e-06	4.477625e-07	5.502018e-10	3.595175e+00	3.954159e+01
2.500000e-06	4.539269e-07	5.610015e-10	3.644670e+00	4.019125e+01
2.510000e-06	4.600759e-07	5.722831e-10	3.694042e+00	4.084365e+01
2.520000e-06	4.661949e-07	5.812591e-10	3.743172e+00	4.149599e+01
2.530000e-06	4.722666e-07	5.878377e-10	3.791923e+00	4.214510e+01
2.540000e-06	4.782878e-07	5.951243e-10	3.840268e+00	4.278794e+01
2.550000e-06	4.842722e-07	6.043392e-10	3.888319e+00	4.342212e+01
2.560000e-06	4.902218e-07	6.137297e-10	3.936089e+00	4.404627e+01
2.570000e-06	4.961430e-07	6.230413e-10	3.983632e+00	4.466024e+01
2.580000e-06	5.020338e-07	6.338271e-10	4.030930e+00	4.526509e+01
2.590000e-06	5.079006e-07	6.459302e-10	4.078036e+00	4.586287e+01
2.600000e-06	5.137451e-07	6.580566e-10	4.124962e+00	4.645624e+01
2.610000e-06	5.195746e-07	6.679069e-10	4.171769e+00	4.704799e+01
2.620000e-06	5.253841e-07	6.761185e-10	4.218414e+00	4.764054e+01
2.630000e-06	5.311576e-07	6.854321e-10	4.264771e+00	4.823549e+01
2.640000e-06	5.369063e-07	6.948022e-10	4.310928e+00	4.883338e+01
2.650000e-06	5.426356e-07	7.018299e-10	4.356930e+00	4.943357e+01
2.660000e-06	5.483279e-07	7.100445e-10	4.402634e+00	5.003436e+01
2.670000e-06	5.539563e-07	7.210707e-10	4.447826e+00	5.063331e+01
2.680000e-06	5.595400e-07	7.336691e-10	4.492658e+00	5.122764e+01
2.690000e-06	5.650937e-07	7.452253e-10	4.537251e+00	5.181475e+01
2.700000e-06	5.705905e-07	7.554468e-10	4.581385e+00	5.239267e+01
2.710000e-06	5.760017e-07	7.658414e-10	4.624833e+00	5.296043e+01
2.720000e-06	5.813216e-07	7.743497e-10	4.667547e+00	5.351822e+01
2.730000e-06	5.865680e-07	7.813441e-10	4.709672e+00	5.406743e+01
2.740000e-06	5.917460e-07	7.874147e-10	4.751248e+00	5.461040e+01
2.750000e-06	5.968756e-07	7.932385e-10	4.792434e+00	5.515007e+01
2.760000e-06	6.019661e-07	8.021496e-10	4.833307e+00	5.568949e+01
2.770000e-06	6.070137e-07	8.136355e-10	4.873835e+00	5.623136e+01
2.780000e-06	6.120258e-07	8.246517e-10	4.914078e+00	5.677757e+01
2.790000e-06	6.170027e-07	8.361810e-10	4.954038e+00	5.732890e+01
2.800000e-06	6.219542e-07	8.477008e-10	4.993795e+00	5.788491e+01
2.810000e-06	6.268682e-07	8.571816e-10	5.033250e+00	5.844397e+01
2.820000e-06	6.317403e-07	8.647311e-10	5.072370e+00	5.900357e+01
2.830000e-06	6.365829e-07	8.711184e-10	5.111252e+00	5.956062e+01
2.840000e-06	6.413796e-07	8.776322e-10	5.149765e+00	6.011197e+01
2.850000e-06	6.461153e-07	8.856923e-10	5.187789e+00	6.065485e+01
2.860000e-06	6.508003e-07	8.949538e-10	5.225406e+00	6.118719e+01
2.870000e-06	6.554388e-07	9.057173e-10	5.262649e+00	6.170789e+01
2.880000e-06	6.600483e-07	9.173232e-10	5.299660e+00	6.221687e+01
2.890000e-06	6.646330e-07	9.269566e-10	5.336471e+00	6.271499e+01
2.900000e-06	6.691718e-07	9.348615e-10	5.372914e+00	6.320376e+01
