# Temperatura_=_20.0
# Concentracion g/m^3_=_10000.0
# C_Vs_to_Am_M_A/Vsm_=_65563218390.804596
# pendiente_HvsI_1/m_=_3716.3
# ordenada_HvsI_A/m_=_1297.0
# frecuencia_Hz_=_135111.84185715992

Tiempo_(s)	Campo_(V.s)	Magnetizacion_(V.s)	Campo_(kA/m)	Magnetizacion_(A/m)
0.000000e+00	-8.540302e-07	-1.277274e-09	-6.853877e+00	-8.247193e+01
1.000000e-08	-8.540514e-07	-1.301300e-09	-6.854047e+00	-8.248621e+01
2.000000e-08	-8.540653e-07	-1.295601e-09	-6.854159e+00	-8.249699e+01
3.000000e-08	-8.540344e-07	-1.244958e-09	-6.853910e+00	-8.250573e+01
4.000000e-08	-8.539483e-07	-1.204237e-09	-6.853219e+00	-8.251310e+01
5.000000e-08	-8.537901e-07	-1.197094e-09	-6.851951e+00	-8.251907e+01
6.000000e-08	-8.535386e-07	-1.240646e-09	-6.849932e+00	-8.252323e+01
7.000000e-08	-8.531998e-07	-1.288517e-09	-6.847213e+00	-8.252502e+01
8.000000e-08	-8.528072e-07	-1.337138e-09	-6.844062e+00	-8.252407e+01
9.000000e-08	-8.523926e-07	-1.348134e-09	-6.840735e+00	-8.252029e+01
1.000000e-07	-8.519539e-07	-1.313645e-09	-6.837214e+00	-8.251400e+01
1.100000e-07	-8.514659e-07	-1.231060e-09	-6.833298e+00	-8.250577e+01
1.200000e-07	-8.509140e-07	-1.170277e-09	-6.828868e+00	-8.249630e+01
1.300000e-07	-8.502651e-07	-1.179936e-09	-6.823661e+00	-8.248611e+01
1.400000e-07	-8.494654e-07	-1.228025e-09	-6.817243e+00	-8.247527e+01
1.500000e-07	-8.485418e-07	-1.280048e-09	-6.809831e+00	-8.246324e+01
1.600000e-07	-8.475541e-07	-1.319541e-09	-6.801905e+00	-8.244869e+01
1.700000e-07	-8.465297e-07	-1.307738e-09	-6.793683e+00	-8.242959e+01
1.800000e-07	-8.454963e-07	-1.256564e-09	-6.785390e+00	-8.240339e+01
1.900000e-07	-8.444444e-07	-1.230704e-09	-6.776948e+00	-8.236732e+01
2.000000e-07	-8.433410e-07	-1.233799e-09	-6.768093e+00	-8.231875e+01
2.100000e-07	-8.421419e-07	-1.238568e-09	-6.758469e+00	-8.225567e+01
2.200000e-07	-8.408556e-07	-1.242449e-09	-6.748146e+00	-8.217696e+01
2.300000e-07	-8.395185e-07	-1.256752e-09	-6.737416e+00	-8.208262e+01
2.400000e-07	-8.381477e-07	-1.260763e-09	-6.726415e+00	-8.197384e+01
2.500000e-07	-8.367232e-07	-1.246674e-09	-6.714983e+00	-8.185289e+01
2.600000e-07	-8.352300e-07	-1.216484e-09	-6.702999e+00	-8.172273e+01
2.700000e-07	-8.336711e-07	-1.210507e-09	-6.690488e+00	-8.158666e+01
2.800000e-07	-8.320459e-07	-1.218148e-09	-6.677446e+00	-8.144779e+01
2.900000e-07	-8.303783e-07	-1.237937e-09	-6.664063e+00	-8.130857e+01
3.000000e-07	-8.286743e-07	-1.242294e-09	-6.650388e+00	-8.117042e+01
3.100000e-07	-8.269176e-07	-1.237950e-09	-6.636290e+00	-8.103353e+01
3.200000e-07	-8.251058e-07	-1.216720e-09	-6.621749e+00	-8.089680e+01
3.300000e-07	-8.232511e-07	-1.197731e-09	-6.606865e+00	-8.075810e+01
3.400000e-07	-8.213424e-07	-1.190260e-09	-6.591547e+00	-8.061455e+01
3.500000e-07	-8.193795e-07	-1.194800e-09	-6.575793e+00	-8.046303e+01
3.600000e-07	-8.173428e-07	-1.201493e-09	-6.559448e+00	-8.030068e+01
3.700000e-07	-8.152196e-07	-1.200844e-09	-6.542409e+00	-8.012535e+01
3.800000e-07	-8.130079e-07	-1.197695e-09	-6.524659e+00	-7.993590e+01
3.900000e-07	-8.106958e-07	-1.190482e-09	-6.506104e+00	-7.973239e+01
4.000000e-07	-8.083022e-07	-1.188802e-09	-6.486895e+00	-7.951598e+01
4.100000e-07	-8.058353e-07	-1.183113e-09	-6.467097e+00	-7.928867e+01
4.200000e-07	-8.032825e-07	-1.178019e-09	-6.446610e+00	-7.905291e+01
4.300000e-07	-8.006724e-07	-1.168118e-09	-6.425663e+00	-7.881114e+01
4.400000e-07	-7.980261e-07	-1.167884e-09	-6.404425e+00	-7.856525e+01
4.500000e-07	-7.953296e-07	-1.164959e-09	-6.382785e+00	-7.831630e+01
4.600000e-07	-7.925635e-07	-1.162430e-09	-6.360586e+00	-7.806422e+01
4.700000e-07	-7.897202e-07	-1.155615e-09	-6.337768e+00	-7.780785e+01
4.800000e-07	-7.868240e-07	-1.158293e-09	-6.314525e+00	-7.754515e+01
4.900000e-07	-7.838758e-07	-1.159834e-09	-6.290864e+00	-7.727353e+01
5.000000e-07	-7.808801e-07	-1.155352e-09	-6.266823e+00	-7.699043e+01
5.100000e-07	-7.778220e-07	-1.138723e-09	-6.242281e+00	-7.669379e+01
5.200000e-07	-7.746946e-07	-1.124176e-09	-6.217182e+00	-7.638253e+01
5.300000e-07	-7.715124e-07	-1.119278e-09	-6.191645e+00	-7.605690e+01
5.400000e-07	-7.682381e-07	-1.122548e-09	-6.165367e+00	-7.571857e+01
5.500000e-07	-7.648726e-07	-1.124390e-09	-6.138357e+00	-7.537050e+01
5.600000e-07	-7.614423e-07	-1.122577e-09	-6.110828e+00	-7.501660e+01
5.700000e-07	-7.579589e-07	-1.121109e-09	-6.082873e+00	-7.466122e+01
5.800000e-07	-7.544210e-07	-1.115238e-09	-6.054480e+00	-7.430847e+01
5.900000e-07	-7.508220e-07	-1.105002e-09	-6.025597e+00	-7.396168e+01
6.000000e-07	-7.471616e-07	-1.094730e-09	-5.996221e+00	-7.362282e+01
6.100000e-07	-7.434604e-07	-1.092918e-09	-5.966518e+00	-7.329219e+01
6.200000e-07	-7.397261e-07	-1.094458e-09	-5.936549e+00	-7.296834e+01
6.300000e-07	-7.359424e-07	-1.094952e-09	-5.906183e+00	-7.264827e+01
6.400000e-07	-7.321113e-07	-1.088637e-09	-5.875437e+00	-7.232782e+01
6.500000e-07	-7.282114e-07	-1.081153e-09	-5.844139e+00	-7.200232e+01
6.600000e-07	-7.242416e-07	-1.071687e-09	-5.812280e+00	-7.166722e+01
6.700000e-07	-7.202253e-07	-1.063062e-09	-5.780048e+00	-7.131883e+01
6.800000e-07	-7.161628e-07	-1.056555e-09	-5.747445e+00	-7.095483e+01
6.900000e-07	-7.120538e-07	-1.055523e-09	-5.714469e+00	-7.057460e+01
7.000000e-07	-7.079150e-07	-1.056056e-09	-5.681254e+00	-7.017935e+01
7.100000e-07	-7.037528e-07	-1.053012e-09	-5.647851e+00	-6.977186e+01
7.200000e-07	-6.995566e-07	-1.043854e-09	-5.614175e+00	-6.935609e+01
7.300000e-07	-6.953184e-07	-1.032920e-09	-5.580162e+00	-6.893655e+01
7.400000e-07	-6.910531e-07	-1.024774e-09	-5.545932e+00	-6.851760e+01
7.500000e-07	-6.867465e-07	-1.020044e-09	-5.511370e+00	-6.810280e+01
7.600000e-07	-6.823919e-07	-1.017041e-09	-5.476423e+00	-6.769436e+01
7.700000e-07	-6.780027e-07	-1.013523e-09	-5.441198e+00	-6.729282e+01
7.800000e-07	-6.735511e-07	-1.008518e-09	-5.405472e+00	-6.689697e+01
7.900000e-07	-6.690418e-07	-9.997514e-10	-5.369284e+00	-6.650406e+01
8.000000e-07	-6.644995e-07	-9.882692e-10	-5.332830e+00	-6.611023e+01
8.100000e-07	-6.599192e-07	-9.760651e-10	-5.296071e+00	-6.571106e+01
8.200000e-07	-6.553042e-07	-9.671360e-10	-5.259035e+00	-6.530226e+01
8.300000e-07	-6.506424e-07	-9.622566e-10	-5.221622e+00	-6.488028e+01
8.400000e-07	-6.459260e-07	-9.583663e-10	-5.183771e+00	-6.444284e+01
8.500000e-07	-6.411638e-07	-9.531043e-10	-5.145554e+00	-6.398922e+01
8.600000e-07	-6.363294e-07	-9.467213e-10	-5.106756e+00	-6.352033e+01
8.700000e-07	-6.314242e-07	-9.371596e-10	-5.067390e+00	-6.303862e+01
8.800000e-07	-6.264930e-07	-9.256651e-10	-5.027815e+00	-6.254767e+01
8.900000e-07	-6.215435e-07	-9.140241e-10	-4.988094e+00	-6.205176e+01
9.000000e-07	-6.165757e-07	-9.051508e-10	-4.948225e+00	-6.155528e+01
9.100000e-07	-6.115939e-07	-8.999637e-10	-4.908245e+00	-6.106223e+01
9.200000e-07	-6.065680e-07	-8.952862e-10	-4.867911e+00	-6.057579e+01
9.300000e-07	-6.014872e-07	-8.887572e-10	-4.827135e+00	-6.009806e+01
9.400000e-07	-5.963701e-07	-8.804217e-10	-4.786069e+00	-5.962994e+01
9.500000e-07	-5.911925e-07	-8.715046e-10	-4.744517e+00	-5.917121e+01
9.600000e-07	-5.859358e-07	-8.625452e-10	-4.702330e+00	-5.872071e+01
9.700000e-07	-5.806250e-07	-8.539430e-10	-4.659709e+00	-5.827667e+01
9.800000e-07	-5.752586e-07	-8.455953e-10	-4.616642e+00	-5.783698e+01
9.900000e-07	-5.698120e-07	-8.384609e-10	-4.572931e+00	-5.739950e+01
1.000000e-06	-5.642798e-07	-8.323203e-10	-4.528533e+00	-5.696225e+01
1.010000e-06	-5.586877e-07	-8.257383e-10	-4.483655e+00	-5.652348e+01
1.020000e-06	-5.530445e-07	-8.191561e-10	-4.438367e+00	-5.608171e+01
1.030000e-06	-5.473534e-07	-8.121322e-10	-4.392694e+00	-5.563561e+01
1.040000e-06	-5.416327e-07	-8.040325e-10	-4.346783e+00	-5.518386e+01
1.050000e-06	-5.358859e-07	-7.962992e-10	-4.300663e+00	-5.472502e+01
1.060000e-06	-5.301166e-07	-7.896127e-10	-4.254362e+00	-5.425745e+01
1.070000e-06	-5.243307e-07	-7.844021e-10	-4.207928e+00	-5.377926e+01
1.080000e-06	-5.185285e-07	-7.787157e-10	-4.161364e+00	-5.328845e+01
1.090000e-06	-5.127055e-07	-7.704627e-10	-4.114632e+00	-5.278304e+01
1.100000e-06	-5.068592e-07	-7.606729e-10	-4.067714e+00	-5.226133e+01
1.110000e-06	-5.009778e-07	-7.527793e-10	-4.020514e+00	-5.172216e+01
1.120000e-06	-4.950614e-07	-7.442204e-10	-3.973033e+00	-5.116515e+01
1.130000e-06	-4.891196e-07	-7.328784e-10	-3.925348e+00	-5.059086e+01
1.140000e-06	-4.831465e-07	-7.208369e-10	-3.877412e+00	-5.000085e+01
1.150000e-06	-4.771376e-07	-7.114769e-10	-3.829188e+00	-4.939760e+01
1.160000e-06	-4.710938e-07	-7.056062e-10	-3.780685e+00	-4.878429e+01
1.170000e-06	-4.650099e-07	-6.991857e-10	-3.731859e+00	-4.816453e+01
1.180000e-06	-4.588850e-07	-6.916851e-10	-3.682705e+00	-4.754197e+01
1.190000e-06	-4.527330e-07	-6.843425e-10	-3.633334e+00	-4.691995e+01
1.200000e-06	-4.465591e-07	-6.778849e-10	-3.583785e+00	-4.630121e+01
1.210000e-06	-4.403665e-07	-6.690977e-10	-3.534088e+00	-4.568768e+01
1.220000e-06	-4.341548e-07	-6.591204e-10	-3.484237e+00	-4.508041e+01
1.230000e-06	-4.279158e-07	-6.512361e-10	-3.434167e+00	-4.447963e+01
1.240000e-06	-4.216339e-07	-6.461167e-10	-3.383752e+00	-4.388496e+01
1.250000e-06	-4.153142e-07	-6.412389e-10	-3.333035e+00	-4.329565e+01
1.260000e-06	-4.089832e-07	-6.327102e-10	-3.282226e+00	-4.271089e+01
1.270000e-06	-4.026358e-07	-6.220113e-10	-3.231287e+00	-4.213007e+01
1.280000e-06	-3.962413e-07	-6.133847e-10	-3.179969e+00	-4.155292e+01
1.290000e-06	-3.897840e-07	-6.047609e-10	-3.128147e+00	-4.097961e+01
1.300000e-06	-3.832971e-07	-5.940238e-10	-3.076087e+00	-4.041066e+01
1.310000e-06	-3.768118e-07	-5.836878e-10	-3.024040e+00	-3.984672e+01
1.320000e-06	-3.703101e-07	-5.751851e-10	-2.971862e+00	-3.928832e+01
1.330000e-06	-3.637765e-07	-5.679359e-10	-2.919428e+00	-3.873559e+01
1.340000e-06	-3.572283e-07	-5.600639e-10	-2.866876e+00	-3.818797e+01
1.350000e-06	-3.506777e-07	-5.519482e-10	-2.814306e+00	-3.764406e+01
1.360000e-06	-3.441155e-07	-5.467306e-10	-2.761642e+00	-3.710162e+01
1.370000e-06	-3.375334e-07	-5.419195e-10	-2.708818e+00	-3.655768e+01
1.380000e-06	-3.309310e-07	-5.309260e-10	-2.655832e+00	-3.600887e+01
1.390000e-06	-3.243190e-07	-5.181330e-10	-2.602768e+00	-3.545180e+01
1.400000e-06	-3.177055e-07	-5.094819e-10	-2.549693e+00	-3.488350e+01
1.410000e-06	-3.110795e-07	-5.057573e-10	-2.496516e+00	-3.430189e+01
1.420000e-06	-3.044261e-07	-4.998852e-10	-2.443121e+00	-3.370609e+01
1.430000e-06	-2.977480e-07	-4.890805e-10	-2.389527e+00	-3.309661e+01
1.440000e-06	-2.910576e-07	-4.779282e-10	-2.335834e+00	-3.247529e+01
1.450000e-06	-2.843407e-07	-4.669331e-10	-2.281929e+00	-3.184513e+01
1.460000e-06	-2.775711e-07	-4.544196e-10	-2.227601e+00	-3.120985e+01
1.470000e-06	-2.707708e-07	-4.410397e-10	-2.173026e+00	-3.057337e+01
1.480000e-06	-2.639720e-07	-4.307333e-10	-2.118464e+00	-2.993924e+01
1.490000e-06	-2.571622e-07	-4.242785e-10	-2.063812e+00	-2.931015e+01
1.500000e-06	-2.503402e-07	-4.190763e-10	-2.009064e+00	-2.868754e+01
1.510000e-06	-2.434905e-07	-4.107051e-10	-1.954092e+00	-2.807138e+01
1.520000e-06	-2.365971e-07	-4.006338e-10	-1.898771e+00	-2.746026e+01
1.530000e-06	-2.296686e-07	-3.903753e-10	-1.843167e+00	-2.685158e+01
1.540000e-06	-2.226943e-07	-3.793270e-10	-1.787196e+00	-2.624208e+01
1.550000e-06	-2.156699e-07	-3.671081e-10	-1.730823e+00	-2.562831e+01
1.560000e-06	-2.086250e-07	-3.565452e-10	-1.674285e+00	-2.500722e+01
1.570000e-06	-2.015573e-07	-3.486039e-10	-1.617564e+00	-2.437666e+01
1.580000e-06	-1.944508e-07	-3.403472e-10	-1.560532e+00	-2.373570e+01
1.590000e-06	-1.873366e-07	-3.298220e-10	-1.503439e+00	-2.308473e+01
1.600000e-06	-1.802298e-07	-3.178992e-10	-1.446404e+00	-2.242533e+01
1.610000e-06	-1.731183e-07	-3.069297e-10	-1.389332e+00	-2.175998e+01
1.620000e-06	-1.659815e-07	-2.964765e-10	-1.332057e+00	-2.109147e+01
1.630000e-06	-1.587980e-07	-2.861304e-10	-1.274407e+00	-2.042242e+01
1.640000e-06	-1.515875e-07	-2.748856e-10	-1.216540e+00	-1.975468e+01
1.650000e-06	-1.443744e-07	-2.640084e-10	-1.158652e+00	-1.908898e+01
1.660000e-06	-1.371484e-07	-2.565138e-10	-1.100662e+00	-1.842464e+01
1.670000e-06	-1.299005e-07	-2.508486e-10	-1.042495e+00	-1.775968e+01
1.680000e-06	-1.226266e-07	-2.427649e-10	-9.841194e-01	-1.709109e+01
1.690000e-06	-1.153245e-07	-2.330611e-10	-9.255178e-01	-1.641533e+01
1.700000e-06	-1.080113e-07	-2.219767e-10	-8.668269e-01	-1.572897e+01
1.710000e-06	-1.007069e-07	-2.089695e-10	-8.082065e-01	-1.502937e+01
1.720000e-06	-9.341490e-08	-1.954051e-10	-7.496857e-01	-1.431525e+01
1.730000e-06	-8.611543e-08	-1.829710e-10	-6.911050e-01	-1.358708e+01
1.740000e-06	-7.880047e-08	-1.728238e-10	-6.324000e-01	-1.284725e+01
1.750000e-06	-7.147973e-08	-1.638799e-10	-5.736487e-01	-1.209990e+01
1.760000e-06	-6.415327e-08	-1.537832e-10	-5.148514e-01	-1.135050e+01
1.770000e-06	-5.683273e-08	-1.437570e-10	-4.561016e-01	-1.060519e+01
1.780000e-06	-4.950173e-08	-1.344243e-10	-3.972679e-01	-9.870009e+00
1.790000e-06	-4.215322e-08	-1.246767e-10	-3.382937e-01	-9.150103e+00
1.800000e-06	-3.480285e-08	-1.136204e-10	-2.793045e-01	-8.449049e+00
1.810000e-06	-2.745528e-08	-1.023591e-10	-2.203378e-01	-7.768396e+00
1.820000e-06	-2.011617e-08	-9.370917e-11	-1.614390e-01	-7.107484e+00
1.830000e-06	-1.278453e-08	-8.490000e-11	-1.026001e-01	-6.463585e+00
1.840000e-06	-5.454316e-09	-7.509747e-11	-4.377271e-02	-5.832329e+00
1.850000e-06	1.878545e-09	-6.740542e-11	1.507595e-02	-5.208353e+00
1.860000e-06	9.210608e-09	-6.184538e-11	7.391820e-02	-4.586069e+00
1.870000e-06	1.654846e-08	-5.680353e-11	1.328069e-01	-3.960432e+00
1.880000e-06	2.389287e-08	-4.978664e-11	1.917482e-01	-3.327583e+00
1.890000e-06	3.123224e-08	-3.972313e-11	2.506491e-01	-2.685277e+00
1.900000e-06	3.856707e-08	-2.853432e-11	3.095136e-01	-2.033031e+00
1.910000e-06	4.589778e-08	-1.673909e-11	3.683450e-01	-1.371979e+00
1.920000e-06	5.322691e-08	-5.471918e-12	4.271637e-01	-7.044614e-01
1.930000e-06	6.055397e-08	4.630200e-12	4.859658e-01	-3.344228e-02
1.940000e-06	6.786570e-08	1.340464e-11	5.446448e-01	6.381581e-01
1.950000e-06	7.516560e-08	1.968930e-11	6.032290e-01	1.308086e+00
1.960000e-06	8.246720e-08	2.716026e-11	6.618268e-01	1.975228e+00
1.970000e-06	8.977237e-08	3.704112e-11	7.204532e-01	2.639856e+00
1.980000e-06	9.707834e-08	4.653905e-11	7.790860e-01	3.303597e+00
1.990000e-06	1.043746e-07	5.447160e-11	8.376411e-01	3.969144e+00
2.000000e-06	1.116660e-07	6.128544e-11	8.961571e-01	4.639747e+00
2.010000e-06	1.189557e-07	6.912897e-11	9.546591e-01	5.318590e+00
2.020000e-06	1.262274e-07	7.978340e-11	1.013017e+00	6.008155e+00
2.030000e-06	1.334809e-07	9.167095e-11	1.071229e+00	6.709689e+00
2.040000e-06	1.407155e-07	1.031722e-10	1.129289e+00	7.422872e+00
2.050000e-06	1.479255e-07	1.149023e-10	1.187152e+00	8.145753e+00
2.060000e-06	1.551270e-07	1.262730e-10	1.244946e+00	8.874954e+00
2.070000e-06	1.623287e-07	1.374464e-10	1.302742e+00	9.606141e+00
2.080000e-06	1.695115e-07	1.482353e-10	1.360387e+00	1.033466e+01
2.090000e-06	1.766687e-07	1.594316e-10	1.417825e+00	1.105622e+01
2.100000e-06	1.838080e-07	1.718476e-10	1.475120e+00	1.176760e+01
2.110000e-06	1.909264e-07	1.833903e-10	1.532248e+00	1.246708e+01
2.120000e-06	1.980107e-07	1.928949e-10	1.589102e+00	1.315476e+01
2.130000e-06	2.050483e-07	2.025189e-10	1.645581e+00	1.383242e+01
2.140000e-06	2.120747e-07	2.134597e-10	1.701970e+00	1.450330e+01
2.150000e-06	2.190914e-07	2.224094e-10	1.758281e+00	1.517142e+01
2.160000e-06	2.260584e-07	2.302069e-10	1.814194e+00	1.584096e+01
2.170000e-06	2.329877e-07	2.410966e-10	1.869804e+00	1.651549e+01
2.180000e-06	2.399011e-07	2.560329e-10	1.925286e+00	1.719733e+01
2.190000e-06	2.467884e-07	2.707320e-10	1.980559e+00	1.788717e+01
2.200000e-06	2.536450e-07	2.818535e-10	2.035586e+00	1.858391e+01
2.210000e-06	2.604838e-07	2.909803e-10	2.090469e+00	1.928484e+01
2.220000e-06	2.672887e-07	3.020193e-10	2.145081e+00	1.998613e+01
2.230000e-06	2.740571e-07	3.138934e-10	2.199400e+00	2.068344e+01
2.240000e-06	2.807942e-07	3.228347e-10	2.253467e+00	2.137276e+01
2.250000e-06	2.875172e-07	3.321287e-10	2.307422e+00	2.205110e+01
2.260000e-06	2.942232e-07	3.446425e-10	2.361239e+00	2.271707e+01
2.270000e-06	3.008960e-07	3.585103e-10	2.414791e+00	2.337122e+01
2.280000e-06	3.075550e-07	3.691305e-10	2.468231e+00	2.401601e+01
2.290000e-06	3.142045e-07	3.768751e-10	2.521596e+00	2.465550e+01
2.300000e-06	3.208358e-07	3.861790e-10	2.574814e+00	2.529471e+01
2.310000e-06	3.274440e-07	3.976106e-10	2.627847e+00	2.593884e+01
2.320000e-06	3.340424e-07	4.082386e-10	2.680801e+00	2.659244e+01
2.330000e-06	3.406322e-07	4.184850e-10	2.733687e+00	2.725859e+01
2.340000e-06	3.472142e-07	4.316452e-10	2.786510e+00	2.793836e+01
2.350000e-06	3.537901e-07	4.463013e-10	2.839283e+00	2.863057e+01
2.360000e-06	3.603541e-07	4.585138e-10	2.891962e+00	2.933187e+01
2.370000e-06	3.669002e-07	4.676503e-10	2.944496e+00	3.003720e+01
2.380000e-06	3.734142e-07	4.752649e-10	2.996773e+00	3.074052e+01
2.390000e-06	3.799144e-07	4.849071e-10	3.048940e+00	3.143569e+01
2.400000e-06	3.864000e-07	4.961165e-10	3.100989e+00	3.211744e+01
2.410000e-06	3.928335e-07	5.067028e-10	3.152620e+00	3.278211e+01
2.420000e-06	3.992276e-07	5.161000e-10	3.203934e+00	3.342828e+01
2.430000e-06	4.055950e-07	5.241228e-10	3.255035e+00	3.405696e+01
2.440000e-06	4.119150e-07	5.336464e-10	3.305755e+00	3.467146e+01
2.450000e-06	4.182044e-07	5.437088e-10	3.356229e+00	3.527688e+01
2.460000e-06	4.244669e-07	5.510398e-10	3.406488e+00	3.587936e+01
2.470000e-06	4.306981e-07	5.585263e-10	3.456496e+00	3.648512e+01
2.480000e-06	4.369060e-07	5.689574e-10	3.506316e+00	3.709954e+01
2.490000e-06	4.430881e-07	5.800081e-10	3.555929e+00	3.772634e+01
2.500000e-06	4.492491e-07	5.905203e-10	3.605374e+00	3.836708e+01
2.510000e-06	4.553963e-07	6.003419e-10	3.654707e+00	3.902089e+01
2.520000e-06	4.615259e-07	6.097081e-10	3.703899e+00	3.968470e+01
2.530000e-06	4.676285e-07	6.192862e-10	3.752875e+00	4.035369e+01
2.540000e-06	4.736847e-07	6.275154e-10	3.801478e+00	4.102211e+01
2.550000e-06	4.797078e-07	6.346222e-10	3.849815e+00	4.168410e+01
2.560000e-06	4.856918e-07	6.428071e-10	3.897838e+00	4.233461e+01
2.570000e-06	4.916183e-07	6.521068e-10	3.945401e+00	4.297011e+01
2.580000e-06	4.975127e-07	6.616818e-10	3.992705e+00	4.358908e+01
2.590000e-06	5.033840e-07	6.696270e-10	4.039824e+00	4.419212e+01
2.600000e-06	5.092299e-07	6.779251e-10	4.086740e+00	4.478177e+01
2.610000e-06	5.150557e-07	6.888174e-10	4.133494e+00	4.536199e+01
2.620000e-06	5.208607e-07	6.990184e-10	4.180081e+00	4.593747e+01
2.630000e-06	5.266382e-07	7.075474e-10	4.226447e+00	4.651279e+01
2.640000e-06	5.324063e-07	7.154897e-10	4.272738e+00	4.709164e+01
2.650000e-06	5.381613e-07	7.230546e-10	4.318924e+00	4.767627e+01
2.660000e-06	5.438792e-07	7.306254e-10	4.364812e+00	4.826709e+01
2.670000e-06	5.495628e-07	7.385759e-10	4.410425e+00	4.886266e+01
2.680000e-06	5.551977e-07	7.479248e-10	4.455646e+00	4.945993e+01
2.690000e-06	5.607755e-07	7.581499e-10	4.500411e+00	5.005483e+01
2.700000e-06	5.663072e-07	7.682793e-10	4.544804e+00	5.064287e+01
2.710000e-06	5.717622e-07	7.779524e-10	4.588582e+00	5.121995e+01
2.720000e-06	5.771408e-07	7.869921e-10	4.631747e+00	5.178300e+01
2.730000e-06	5.824504e-07	7.944549e-10	4.674358e+00	5.233045e+01
2.740000e-06	5.876827e-07	8.006606e-10	4.716350e+00	5.286247e+01
2.750000e-06	5.928560e-07	8.074949e-10	4.757867e+00	5.338091e+01
2.760000e-06	5.979783e-07	8.157507e-10	4.798975e+00	5.388898e+01
2.770000e-06	6.030526e-07	8.244615e-10	4.839698e+00	5.439071e+01
2.780000e-06	6.080811e-07	8.323292e-10	4.880054e+00	5.489029e+01
2.790000e-06	6.130776e-07	8.408670e-10	4.920152e+00	5.539143e+01
2.800000e-06	6.180552e-07	8.505670e-10	4.960099e+00	5.589681e+01
2.810000e-06	6.230079e-07	8.599086e-10	4.999846e+00	5.640768e+01
2.820000e-06	6.279239e-07	8.682500e-10	5.039299e+00	5.692377e+01
2.830000e-06	6.328005e-07	8.782274e-10	5.078435e+00	5.744340e+01
2.840000e-06	6.376377e-07	8.883000e-10	5.117255e+00	5.796383e+01
2.850000e-06	6.424328e-07	8.950233e-10	5.155737e+00	5.848176e+01
2.860000e-06	6.471839e-07	8.994031e-10	5.193866e+00	5.899387e+01
2.870000e-06	6.518845e-07	9.052724e-10	5.231591e+00	5.949742e+01
2.880000e-06	6.565338e-07	9.156750e-10	5.268903e+00	5.999061e+01
2.890000e-06	6.611405e-07	9.267353e-10	5.305873e+00	6.047281e+01
2.900000e-06	6.657110e-07	9.345255e-10	5.342553e+00	6.094465e+01
