# Temperatura_=_20.0
# Concentracion g/m^3_=_10000.0
# C_Vs_to_Am_M_A/Vsm_=_65563218390.804596
# pendiente_HvsI_1/m_=_3716.3
# ordenada_HvsI_A/m_=_1297.0
# frecuencia_Hz_=_135115.59203783065

Tiempo_(s)	Campo_(V.s)	Magnetizacion_(V.s)	Campo_(kA/m)	Magnetizacion_(A/m)
0.000000e+00	-8.527840e-07	-1.250534e-09	-6.853645e+00	-8.387366e+01
1.000000e-08	-8.528120e-07	-1.259000e-09	-6.853870e+00	-8.386811e+01
2.000000e-08	-8.528010e-07	-1.263807e-09	-6.853781e+00	-8.386709e+01
3.000000e-08	-8.527535e-07	-1.248562e-09	-6.853400e+00	-8.387450e+01
4.000000e-08	-8.526641e-07	-1.229060e-09	-6.852682e+00	-8.389268e+01
5.000000e-08	-8.524943e-07	-1.230143e-09	-6.851317e+00	-8.392231e+01
6.000000e-08	-8.522337e-07	-1.263539e-09	-6.849223e+00	-8.396247e+01
7.000000e-08	-8.519136e-07	-1.275276e-09	-6.846649e+00	-8.401097e+01
8.000000e-08	-8.515519e-07	-1.293252e-09	-6.843743e+00	-8.406470e+01
9.000000e-08	-8.511419e-07	-1.294518e-09	-6.840448e+00	-8.412009e+01
1.000000e-07	-8.506792e-07	-1.288477e-09	-6.836729e+00	-8.417350e+01
1.100000e-07	-8.501464e-07	-1.258246e-09	-6.832447e+00	-8.422159e+01
1.200000e-07	-8.495332e-07	-1.225200e-09	-6.827519e+00	-8.426153e+01
1.300000e-07	-8.488319e-07	-1.221269e-09	-6.821883e+00	-8.429116e+01
1.400000e-07	-8.480309e-07	-1.247713e-09	-6.815445e+00	-8.430894e+01
1.500000e-07	-8.471178e-07	-1.269685e-09	-6.808107e+00	-8.431394e+01
1.600000e-07	-8.461360e-07	-1.288362e-09	-6.800216e+00	-8.430566e+01
1.700000e-07	-8.451099e-07	-1.296953e-09	-6.791970e+00	-8.428395e+01
1.800000e-07	-8.440510e-07	-1.277045e-09	-6.783460e+00	-8.424883e+01
1.900000e-07	-8.429641e-07	-1.255357e-09	-6.774724e+00	-8.420046e+01
2.000000e-07	-8.418300e-07	-1.252227e-09	-6.765610e+00	-8.413912e+01
2.100000e-07	-8.406393e-07	-1.250582e-09	-6.756041e+00	-8.406521e+01
2.200000e-07	-8.393919e-07	-1.251432e-09	-6.746015e+00	-8.397933e+01
2.300000e-07	-8.380795e-07	-1.255161e-09	-6.735468e+00	-8.388226e+01
2.400000e-07	-8.367080e-07	-1.258099e-09	-6.724446e+00	-8.377505e+01
2.500000e-07	-8.352804e-07	-1.254247e-09	-6.712972e+00	-8.365898e+01
2.600000e-07	-8.337939e-07	-1.237828e-09	-6.701026e+00	-8.353544e+01
2.700000e-07	-8.322512e-07	-1.234160e-09	-6.688627e+00	-8.340586e+01
2.800000e-07	-8.306555e-07	-1.232856e-09	-6.675803e+00	-8.327150e+01
2.900000e-07	-8.290068e-07	-1.240229e-09	-6.662552e+00	-8.313329e+01
3.000000e-07	-8.273076e-07	-1.237058e-09	-6.648896e+00	-8.299170e+01
3.100000e-07	-8.255665e-07	-1.239812e-09	-6.634903e+00	-8.284663e+01
3.200000e-07	-8.237667e-07	-1.232177e-09	-6.620439e+00	-8.269736e+01
3.300000e-07	-8.219204e-07	-1.224122e-09	-6.605601e+00	-8.254268e+01
3.400000e-07	-8.200391e-07	-1.214321e-09	-6.590481e+00	-8.238096e+01
3.500000e-07	-8.180853e-07	-1.215975e-09	-6.574779e+00	-8.221045e+01
3.600000e-07	-8.160241e-07	-1.220753e-09	-6.558214e+00	-8.202945e+01
3.700000e-07	-8.138572e-07	-1.221203e-09	-6.540798e+00	-8.183663e+01
3.800000e-07	-8.116052e-07	-1.215607e-09	-6.522700e+00	-8.163116e+01
3.900000e-07	-8.093026e-07	-1.208199e-09	-6.504194e+00	-8.141293e+01
4.000000e-07	-8.069286e-07	-1.206910e-09	-6.485115e+00	-8.118249e+01
4.100000e-07	-8.044608e-07	-1.202015e-09	-6.465281e+00	-8.094105e+01
4.200000e-07	-8.019096e-07	-1.196181e-09	-6.444778e+00	-8.069030e+01
4.300000e-07	-7.992971e-07	-1.186838e-09	-6.423782e+00	-8.043215e+01
4.400000e-07	-7.966402e-07	-1.186061e-09	-6.402429e+00	-8.016851e+01
4.500000e-07	-7.939341e-07	-1.184239e-09	-6.380681e+00	-7.990100e+01
4.600000e-07	-7.911630e-07	-1.182185e-09	-6.358410e+00	-7.963079e+01
4.700000e-07	-7.883286e-07	-1.171172e-09	-6.335631e+00	-7.935843e+01
4.800000e-07	-7.854519e-07	-1.166751e-09	-6.312511e+00	-7.908386e+01
4.900000e-07	-7.825150e-07	-1.163552e-09	-6.288908e+00	-7.880648e+01
5.000000e-07	-7.795158e-07	-1.161793e-09	-6.264804e+00	-7.852530e+01
5.100000e-07	-7.764418e-07	-1.151807e-09	-6.240099e+00	-7.823917e+01
5.200000e-07	-7.732822e-07	-1.143133e-09	-6.214706e+00	-7.794700e+01
5.300000e-07	-7.700726e-07	-1.137783e-09	-6.188911e+00	-7.764798e+01
5.400000e-07	-7.667906e-07	-1.140614e-09	-6.162534e+00	-7.734168e+01
5.500000e-07	-7.634058e-07	-1.143156e-09	-6.135331e+00	-7.702818e+01
5.600000e-07	-7.599676e-07	-1.141687e-09	-6.107700e+00	-7.670798e+01
5.700000e-07	-7.564844e-07	-1.137442e-09	-6.079705e+00	-7.638194e+01
5.800000e-07	-7.529410e-07	-1.130621e-09	-6.051228e+00	-7.605101e+01
5.900000e-07	-7.493423e-07	-1.120242e-09	-6.022305e+00	-7.571612e+01
6.000000e-07	-7.456852e-07	-1.108967e-09	-5.992914e+00	-7.537789e+01
6.100000e-07	-7.419874e-07	-1.102157e-09	-5.963196e+00	-7.503654e+01
6.200000e-07	-7.382508e-07	-1.100271e-09	-5.933166e+00	-7.469177e+01
6.300000e-07	-7.344646e-07	-1.101100e-09	-5.902737e+00	-7.434277e+01
6.400000e-07	-7.306338e-07	-1.097883e-09	-5.871950e+00	-7.398835e+01
6.500000e-07	-7.267445e-07	-1.091539e-09	-5.840692e+00	-7.362710e+01
6.600000e-07	-7.228089e-07	-1.081213e-09	-5.809062e+00	-7.325761e+01
6.700000e-07	-7.188229e-07	-1.072539e-09	-5.777028e+00	-7.287872e+01
6.800000e-07	-7.147632e-07	-1.065350e-09	-5.744401e+00	-7.248968e+01
6.900000e-07	-7.106488e-07	-1.061156e-09	-5.711334e+00	-7.209034e+01
7.000000e-07	-7.065031e-07	-1.056729e-09	-5.678017e+00	-7.168115e+01
7.100000e-07	-7.023320e-07	-1.051794e-09	-5.644494e+00	-7.126309e+01
7.200000e-07	-6.981377e-07	-1.045680e-09	-5.610785e+00	-7.083759e+01
7.300000e-07	-6.939170e-07	-1.040079e-09	-5.576864e+00	-7.040625e+01
7.400000e-07	-6.896522e-07	-1.033322e-09	-5.542589e+00	-6.997063e+01
7.500000e-07	-6.853392e-07	-1.027790e-09	-5.507926e+00	-6.953201e+01
7.600000e-07	-6.809784e-07	-1.023812e-09	-5.472879e+00	-6.909123e+01
7.700000e-07	-6.765720e-07	-1.018736e-09	-5.437467e+00	-6.864857e+01
7.800000e-07	-6.721215e-07	-1.010809e-09	-5.401698e+00	-6.820374e+01
7.900000e-07	-6.676247e-07	-1.002013e-09	-5.365559e+00	-6.775600e+01
8.000000e-07	-6.630723e-07	-9.920268e-10	-5.328972e+00	-6.730433e+01
8.100000e-07	-6.584691e-07	-9.831936e-10	-5.291977e+00	-6.684763e+01
8.200000e-07	-6.538346e-07	-9.775852e-10	-5.254731e+00	-6.638504e+01
8.300000e-07	-6.491704e-07	-9.724106e-10	-5.217245e+00	-6.591607e+01
8.400000e-07	-6.444631e-07	-9.667265e-10	-5.179414e+00	-6.544080e+01
8.500000e-07	-6.396977e-07	-9.605854e-10	-5.141115e+00	-6.495991e+01
8.600000e-07	-6.348693e-07	-9.528373e-10	-5.102310e+00	-6.447465e+01
8.700000e-07	-6.299892e-07	-9.425896e-10	-5.063090e+00	-6.398671e+01
8.800000e-07	-6.250723e-07	-9.333559e-10	-5.023574e+00	-6.349794e+01
8.900000e-07	-6.201278e-07	-9.238593e-10	-4.983836e+00	-6.301017e+01
9.000000e-07	-6.151503e-07	-9.146886e-10	-4.943833e+00	-6.252488e+01
9.100000e-07	-6.101358e-07	-9.073047e-10	-4.903532e+00	-6.204301e+01
9.200000e-07	-6.051024e-07	-9.002548e-10	-4.863080e+00	-6.156485e+01
9.300000e-07	-6.000484e-07	-8.925922e-10	-4.822462e+00	-6.108993e+01
9.400000e-07	-5.949512e-07	-8.858506e-10	-4.781497e+00	-6.061715e+01
9.500000e-07	-5.898174e-07	-8.797059e-10	-4.740238e+00	-6.014488e+01
9.600000e-07	-5.846208e-07	-8.738821e-10	-4.698474e+00	-5.967123e+01
9.700000e-07	-5.793292e-07	-8.677499e-10	-4.655946e+00	-5.919428e+01
9.800000e-07	-5.739515e-07	-8.603375e-10	-4.612727e+00	-5.871234e+01
9.900000e-07	-5.685159e-07	-8.521262e-10	-4.569042e+00	-5.822415e+01
1.000000e-06	-5.630228e-07	-8.432922e-10	-4.524895e+00	-5.772899e+01
1.010000e-06	-5.574336e-07	-8.362893e-10	-4.479976e+00	-5.722675e+01
1.020000e-06	-5.517754e-07	-8.303192e-10	-4.434502e+00	-5.671778e+01
1.030000e-06	-5.460841e-07	-8.227557e-10	-4.388763e+00	-5.620283e+01
1.040000e-06	-5.403535e-07	-8.162631e-10	-4.342707e+00	-5.568281e+01
1.050000e-06	-5.345919e-07	-8.093541e-10	-4.296402e+00	-5.515853e+01
1.060000e-06	-5.288146e-07	-8.017105e-10	-4.249971e+00	-5.463057e+01
1.070000e-06	-5.230269e-07	-7.926610e-10	-4.203457e+00	-5.409907e+01
1.080000e-06	-5.172238e-07	-7.809399e-10	-4.156818e+00	-5.356369e+01
1.090000e-06	-5.114017e-07	-7.711867e-10	-4.110027e+00	-5.302361e+01
1.100000e-06	-5.055673e-07	-7.616356e-10	-4.063137e+00	-5.247762e+01
1.110000e-06	-4.996960e-07	-7.529924e-10	-4.015951e+00	-5.192434e+01
1.120000e-06	-4.937786e-07	-7.441227e-10	-3.968394e+00	-5.136236e+01
1.130000e-06	-4.878321e-07	-7.347413e-10	-3.920604e+00	-5.079050e+01
1.140000e-06	-4.818581e-07	-7.272281e-10	-3.872592e+00	-5.020801e+01
1.150000e-06	-4.758477e-07	-7.215919e-10	-3.824287e+00	-4.961467e+01
1.160000e-06	-4.697895e-07	-7.181175e-10	-3.775599e+00	-4.901090e+01
1.170000e-06	-4.636886e-07	-7.118086e-10	-3.726568e+00	-4.839771e+01
1.180000e-06	-4.575548e-07	-7.022224e-10	-3.677271e+00	-4.777664e+01
1.190000e-06	-4.513902e-07	-6.912163e-10	-3.627728e+00	-4.714961e+01
1.200000e-06	-4.452017e-07	-6.805883e-10	-3.577992e+00	-4.651873e+01
1.210000e-06	-4.390030e-07	-6.693340e-10	-3.528174e+00	-4.588614e+01
1.220000e-06	-4.327867e-07	-6.582979e-10	-3.478215e+00	-4.525380e+01
1.230000e-06	-4.265342e-07	-6.489850e-10	-3.427965e+00	-4.462342e+01
1.240000e-06	-4.202587e-07	-6.410158e-10	-3.377531e+00	-4.399635e+01
1.250000e-06	-4.139638e-07	-6.320709e-10	-3.326939e+00	-4.337353e+01
1.260000e-06	-4.076332e-07	-6.208114e-10	-3.276062e+00	-4.275554e+01
1.270000e-06	-4.012720e-07	-6.105459e-10	-3.224938e+00	-4.214263e+01
1.280000e-06	-3.948755e-07	-6.034072e-10	-3.173531e+00	-4.153477e+01
1.290000e-06	-3.884486e-07	-5.953192e-10	-3.121879e+00	-4.093172e+01
1.300000e-06	-3.819993e-07	-5.832065e-10	-3.070048e+00	-4.033306e+01
1.310000e-06	-3.755196e-07	-5.699212e-10	-3.017972e+00	-3.973822e+01
1.320000e-06	-3.690190e-07	-5.587823e-10	-2.965728e+00	-3.914648e+01
1.330000e-06	-3.625121e-07	-5.501028e-10	-2.913433e+00	-3.855698e+01
1.340000e-06	-3.559804e-07	-5.427029e-10	-2.860939e+00	-3.796866e+01
1.350000e-06	-3.494083e-07	-5.359389e-10	-2.808120e+00	-3.738033e+01
1.360000e-06	-3.428263e-07	-5.298673e-10	-2.755223e+00	-3.679069e+01
1.370000e-06	-3.362436e-07	-5.237542e-10	-2.702318e+00	-3.619834e+01
1.380000e-06	-3.296417e-07	-5.135831e-10	-2.649261e+00	-3.560194e+01
1.390000e-06	-3.230228e-07	-5.011891e-10	-2.596066e+00	-3.500030e+01
1.400000e-06	-3.163964e-07	-4.913016e-10	-2.542811e+00	-3.439247e+01
1.410000e-06	-3.097639e-07	-4.858037e-10	-2.489507e+00	-3.377788e+01
1.420000e-06	-3.031163e-07	-4.792433e-10	-2.436082e+00	-3.315640e+01
1.430000e-06	-2.964360e-07	-4.700303e-10	-2.382394e+00	-3.252836e+01
1.440000e-06	-2.897315e-07	-4.604825e-10	-2.328511e+00	-3.189452e+01
1.450000e-06	-2.830116e-07	-4.497213e-10	-2.274505e+00	-3.125596e+01
1.460000e-06	-2.762806e-07	-4.370856e-10	-2.220409e+00	-3.061393e+01
1.470000e-06	-2.695256e-07	-4.248988e-10	-2.166121e+00	-2.996970e+01
1.480000e-06	-2.627437e-07	-4.168027e-10	-2.111615e+00	-2.932435e+01
1.490000e-06	-2.559510e-07	-4.100502e-10	-2.057024e+00	-2.867860e+01
1.500000e-06	-2.491272e-07	-4.012307e-10	-2.002183e+00	-2.803272e+01
1.510000e-06	-2.422613e-07	-3.906944e-10	-1.947003e+00	-2.738646e+01
1.520000e-06	-2.353598e-07	-3.816500e-10	-1.891537e+00	-2.673906e+01
1.530000e-06	-2.284186e-07	-3.721603e-10	-1.835752e+00	-2.608937e+01
1.540000e-06	-2.214389e-07	-3.599796e-10	-1.779658e+00	-2.543599e+01
1.550000e-06	-2.144281e-07	-3.469731e-10	-1.723314e+00	-2.477744e+01
1.560000e-06	-2.073855e-07	-3.376838e-10	-1.666713e+00	-2.411235e+01
1.570000e-06	-2.003229e-07	-3.325387e-10	-1.609953e+00	-2.343962e+01
1.580000e-06	-1.932470e-07	-3.261609e-10	-1.553086e+00	-2.275857e+01
1.590000e-06	-1.861488e-07	-3.146222e-10	-1.496039e+00	-2.206891e+01
1.600000e-06	-1.790176e-07	-3.019612e-10	-1.438726e+00	-2.137079e+01
1.610000e-06	-1.718706e-07	-2.934261e-10	-1.381288e+00	-2.066466e+01
1.620000e-06	-1.647301e-07	-2.856377e-10	-1.323901e+00	-1.995119e+01
1.630000e-06	-1.575779e-07	-2.744538e-10	-1.266420e+00	-1.923109e+01
1.640000e-06	-1.503983e-07	-2.601709e-10	-1.208720e+00	-1.850500e+01
1.650000e-06	-1.432016e-07	-2.500119e-10	-1.150881e+00	-1.777339e+01
1.660000e-06	-1.359944e-07	-2.453340e-10	-1.092959e+00	-1.703654e+01
1.670000e-06	-1.287732e-07	-2.394396e-10	-1.034923e+00	-1.629459e+01
1.680000e-06	-1.215365e-07	-2.285183e-10	-9.767628e-01	-1.554760e+01
1.690000e-06	-1.142804e-07	-2.148510e-10	-9.184477e-01	-1.479575e+01
1.700000e-06	-1.070019e-07	-2.023786e-10	-8.599518e-01	-1.403946e+01
1.710000e-06	-9.971306e-08	-1.904386e-10	-8.013728e-01	-1.327954e+01
1.720000e-06	-9.242556e-08	-1.763462e-10	-7.428047e-01	-1.251731e+01
1.730000e-06	-8.512443e-08	-1.627890e-10	-6.841271e-01	-1.175457e+01
1.740000e-06	-7.781704e-08	-1.544203e-10	-6.253991e-01	-1.099361e+01
1.750000e-06	-7.051628e-08	-1.497563e-10	-5.667244e-01	-1.023700e+01
1.760000e-06	-6.319957e-08	-1.429897e-10	-5.079216e-01	-9.487433e+00
1.770000e-06	-5.587849e-08	-1.317100e-10	-4.490836e-01	-8.747420e+00
1.780000e-06	-4.856807e-08	-1.199365e-10	-3.903313e-01	-8.019077e+00
1.790000e-06	-4.125535e-08	-1.103364e-10	-3.315605e-01	-7.303892e+00
1.800000e-06	-3.393721e-08	-1.001479e-10	-2.727462e-01	-6.602587e+00
1.810000e-06	-2.661457e-08	-8.791972e-11	-2.138957e-01	-5.915062e+00
1.820000e-06	-1.929234e-08	-7.759189e-11	-1.550484e-01	-5.240454e+00
1.830000e-06	-1.197324e-08	-6.965380e-11	-9.622643e-02	-4.577278e+00
1.840000e-06	-4.655325e-09	-6.218089e-11	-3.741386e-02	-3.923644e+00
1.850000e-06	2.666455e-09	-5.371965e-11	2.142973e-02	-3.277508e+00
1.860000e-06	9.998814e-09	-4.447329e-11	8.035836e-02	-2.636906e+00
1.870000e-06	1.733368e-08	-3.730460e-11	1.393071e-01	-2.000149e+00
1.880000e-06	2.466913e-08	-3.055600e-11	1.982606e-01	-1.365928e+00
1.890000e-06	3.199761e-08	-2.130870e-11	2.571581e-01	-7.333296e-01
1.900000e-06	3.931799e-08	-9.062512e-12	3.159904e-01	-1.017417e-01
1.910000e-06	4.663315e-08	2.245011e-12	3.747808e-01	5.293055e-01
1.920000e-06	5.394336e-08	1.022500e-11	4.335314e-01	1.160350e+00
1.930000e-06	6.126002e-08	1.872668e-11	4.923338e-01	1.792204e+00
1.940000e-06	6.855786e-08	2.856057e-11	5.509850e-01	2.426113e+00
1.950000e-06	7.585500e-08	3.739731e-11	6.096306e-01	3.063822e+00
1.960000e-06	8.317817e-08	4.463441e-11	6.684854e-01	3.707533e+00
1.970000e-06	9.048980e-08	5.153211e-11	7.272474e-01	4.359737e+00
1.980000e-06	9.777734e-08	6.170339e-11	7.858158e-01	5.022936e+00
1.990000e-06	1.050547e-07	7.317382e-11	8.443027e-01	5.699297e+00
2.000000e-06	1.123170e-07	8.190472e-11	9.026682e-01	6.390291e+00
2.010000e-06	1.195662e-07	9.094544e-11	9.609284e-01	7.096360e+00
2.020000e-06	1.268082e-07	1.038007e-10	1.019131e+00	7.816697e+00
2.030000e-06	1.340328e-07	1.169721e-10	1.077193e+00	8.549155e+00
2.040000e-06	1.412396e-07	1.269309e-10	1.135113e+00	9.290348e+00
2.050000e-06	1.484562e-07	1.345579e-10	1.193111e+00	1.003591e+01
2.060000e-06	1.556524e-07	1.434255e-10	1.250945e+00	1.078090e+01
2.070000e-06	1.628204e-07	1.554850e-10	1.308553e+00	1.152035e+01
2.080000e-06	1.699931e-07	1.674661e-10	1.366199e+00	1.224979e+01
2.090000e-06	1.771412e-07	1.780284e-10	1.423646e+00	1.296577e+01
2.100000e-06	1.842570e-07	1.891590e-10	1.480835e+00	1.366626e+01
2.110000e-06	1.913593e-07	2.018996e-10	1.537914e+00	1.435090e+01
2.120000e-06	1.984375e-07	2.150068e-10	1.594800e+00	1.502101e+01
2.130000e-06	2.054861e-07	2.248888e-10	1.651448e+00	1.567942e+01
2.140000e-06	2.125068e-07	2.297331e-10	1.707872e+00	1.633012e+01
2.150000e-06	2.194873e-07	2.341167e-10	1.763973e+00	1.697772e+01
2.160000e-06	2.264294e-07	2.430048e-10	1.819765e+00	1.762690e+01
2.170000e-06	2.333512e-07	2.564045e-10	1.875394e+00	1.828185e+01
2.180000e-06	2.402566e-07	2.701799e-10	1.930891e+00	1.894581e+01
2.190000e-06	2.471236e-07	2.841623e-10	1.986080e+00	1.962068e+01
2.200000e-06	2.539695e-07	2.981040e-10	2.041099e+00	2.030695e+01
2.210000e-06	2.607835e-07	3.084552e-10	2.095862e+00	2.100371e+01
2.220000e-06	2.675623e-07	3.150815e-10	2.150341e+00	2.170890e+01
2.230000e-06	2.743211e-07	3.212068e-10	2.204661e+00	2.241966e+01
2.240000e-06	2.810395e-07	3.288110e-10	2.258655e+00	2.313279e+01
2.250000e-06	2.877316e-07	3.382086e-10	2.312438e+00	2.384519e+01
2.260000e-06	2.944117e-07	3.505076e-10	2.366124e+00	2.455425e+01
2.270000e-06	3.010815e-07	3.637672e-10	2.419729e+00	2.525808e+01
2.280000e-06	3.077338e-07	3.761217e-10	2.473192e+00	2.595567e+01
2.290000e-06	3.143691e-07	3.874747e-10	2.526518e+00	2.664685e+01
2.300000e-06	3.209951e-07	3.975787e-10	2.579770e+00	2.733211e+01
2.310000e-06	3.276039e-07	4.079948e-10	2.632884e+00	2.801238e+01
2.320000e-06	3.342006e-07	4.196550e-10	2.685899e+00	2.868870e+01
2.330000e-06	3.407883e-07	4.313420e-10	2.738844e+00	2.936198e+01
2.340000e-06	3.473672e-07	4.434955e-10	2.791717e+00	3.003278e+01
2.350000e-06	3.539317e-07	4.545122e-10	2.844474e+00	3.070122e+01
2.360000e-06	3.604693e-07	4.624348e-10	2.897016e+00	3.136700e+01
2.370000e-06	3.669957e-07	4.693845e-10	2.949467e+00	3.202956e+01
2.380000e-06	3.735162e-07	4.770917e-10	3.001871e+00	3.268824e+01
2.390000e-06	3.800096e-07	4.857710e-10	3.054057e+00	3.334252e+01
2.400000e-06	3.864602e-07	4.960662e-10	3.105899e+00	3.399228e+01
2.410000e-06	3.928685e-07	5.092100e-10	3.157401e+00	3.463791e+01
2.420000e-06	3.992374e-07	5.238427e-10	3.208586e+00	3.528036e+01
2.430000e-06	4.055708e-07	5.354477e-10	3.259487e+00	3.592106e+01
2.440000e-06	4.118848e-07	5.464031e-10	3.310231e+00	3.656173e+01
2.450000e-06	4.181805e-07	5.567217e-10	3.360828e+00	3.720410e+01
2.460000e-06	4.244513e-07	5.633852e-10	3.411225e+00	3.784959e+01
2.470000e-06	4.306983e-07	5.695309e-10	3.461431e+00	3.849899e+01
2.480000e-06	4.369150e-07	5.777527e-10	3.511393e+00	3.915230e+01
2.490000e-06	4.430990e-07	5.882565e-10	3.561093e+00	3.980853e+01
2.500000e-06	4.492576e-07	6.007713e-10	3.610588e+00	4.046585e+01
2.510000e-06	4.553890e-07	6.126017e-10	3.659865e+00	4.112169e+01
2.520000e-06	4.614989e-07	6.233264e-10	3.708969e+00	4.177314e+01
2.530000e-06	4.675866e-07	6.334209e-10	3.757894e+00	4.241728e+01
2.540000e-06	4.736360e-07	6.424047e-10	3.806512e+00	4.305167e+01
2.550000e-06	4.796245e-07	6.510248e-10	3.854641e+00	4.367464e+01
2.560000e-06	4.855764e-07	6.594628e-10	3.902475e+00	4.428563e+01
2.570000e-06	4.915107e-07	6.672573e-10	3.950167e+00	4.488522e+01
2.580000e-06	4.974008e-07	6.753811e-10	3.997505e+00	4.547512e+01
2.590000e-06	5.032582e-07	6.850741e-10	4.044580e+00	4.605785e+01
2.600000e-06	5.091042e-07	6.947974e-10	4.091563e+00	4.663639e+01
2.610000e-06	5.149306e-07	7.044029e-10	4.138389e+00	4.721371e+01
2.620000e-06	5.207372e-07	7.138396e-10	4.185055e+00	4.779230e+01
2.630000e-06	5.265230e-07	7.244385e-10	4.231554e+00	4.837371e+01
2.640000e-06	5.322819e-07	7.351810e-10	4.277837e+00	4.895835e+01
2.650000e-06	5.380270e-07	7.435376e-10	4.324009e+00	4.954536e+01
2.660000e-06	5.437525e-07	7.498955e-10	4.370024e+00	5.013269e+01
2.670000e-06	5.494445e-07	7.565349e-10	4.415769e+00	5.071746e+01
2.680000e-06	5.550852e-07	7.645505e-10	4.461103e+00	5.129631e+01
2.690000e-06	5.606369e-07	7.744927e-10	4.505720e+00	5.186598e+01
2.700000e-06	5.661146e-07	7.851154e-10	4.549743e+00	5.242380e+01
2.710000e-06	5.715385e-07	7.944198e-10	4.593334e+00	5.296812e+01
2.720000e-06	5.768859e-07	8.017312e-10	4.636310e+00	5.349860e+01
2.730000e-06	5.821652e-07	8.092374e-10	4.678739e+00	5.401632e+01
2.740000e-06	5.873871e-07	8.182791e-10	4.720706e+00	5.452364e+01
2.750000e-06	5.925445e-07	8.253395e-10	4.762155e+00	5.502397e+01
2.760000e-06	5.976533e-07	8.302409e-10	4.803213e+00	5.552125e+01
2.770000e-06	6.027189e-07	8.359342e-10	4.843925e+00	5.601946e+01
2.780000e-06	6.077423e-07	8.444417e-10	4.884296e+00	5.652214e+01
2.790000e-06	6.127492e-07	8.555539e-10	4.924536e+00	5.703188e+01
2.800000e-06	6.177369e-07	8.664951e-10	4.964621e+00	5.755006e+01
2.810000e-06	6.226726e-07	8.754828e-10	5.004288e+00	5.807672e+01
2.820000e-06	6.275616e-07	8.844526e-10	5.043580e+00	5.861063e+01
2.830000e-06	6.324248e-07	8.956207e-10	5.082664e+00	5.914953e+01
2.840000e-06	6.372405e-07	9.056547e-10	5.121367e+00	5.969050e+01
2.850000e-06	6.420125e-07	9.108670e-10	5.159719e+00	6.023042e+01
2.860000e-06	6.467532e-07	9.155858e-10	5.197819e+00	6.076641e+01
2.870000e-06	6.514373e-07	9.238181e-10	5.235464e+00	6.129616e+01
2.880000e-06	6.560722e-07	9.336396e-10	5.272714e+00	6.181823e+01
2.890000e-06	6.606785e-07	9.421087e-10	5.309733e+00	6.233213e+01
2.900000e-06	6.652440e-07	9.500070e-10	5.346426e+00	6.283823e+01
2.910000e-06	6.697534e-07	9.584979e-10	5.382667e+00	6.333762e+01
