# Temperatura_=_20.0
# Concentracion g/m^3_=_10000.0
# C_Vs_to_Am_M_A/Vsm_=_65563218390.804596
# pendiente_HvsI_1/m_=_3716.3
# ordenada_HvsI_A/m_=_1297.0
# frecuencia_Hz_=_135111.07695515

Tiempo_(s)	Campo_(V.s)	Magnetizacion_(V.s)	Campo_(kA/m)	Magnetizacion_(A/m)
0.000000e+00	-8.541512e-07	-1.287619e-09	-6.854668e+00	-8.230882e+01
1.000000e-08	-8.541370e-07	-1.290396e-09	-6.854554e+00	-8.242778e+01
2.000000e-08	-8.540932e-07	-1.286177e-09	-6.854202e+00	-8.253656e+01
3.000000e-08	-8.539970e-07	-1.272872e-09	-6.853430e+00	-8.263101e+01
4.000000e-08	-8.538356e-07	-1.264253e-09	-6.852135e+00	-8.270802e+01
5.000000e-08	-8.536121e-07	-1.278408e-09	-6.850341e+00	-8.276600e+01
6.000000e-08	-8.533317e-07	-1.298962e-09	-6.848091e+00	-8.280524e+01
7.000000e-08	-8.530037e-07	-1.328535e-09	-6.845459e+00	-8.282792e+01
8.000000e-08	-8.526273e-07	-1.325186e-09	-6.842438e+00	-8.283787e+01
9.000000e-08	-8.521971e-07	-1.309822e-09	-6.838986e+00	-8.284002e+01
1.000000e-07	-8.517016e-07	-1.294181e-09	-6.835010e+00	-8.283965e+01
1.100000e-07	-8.511385e-07	-1.275571e-09	-6.830490e+00	-8.284154e+01
1.200000e-07	-8.505111e-07	-1.271624e-09	-6.825455e+00	-8.284916e+01
1.300000e-07	-8.497767e-07	-1.293684e-09	-6.819562e+00	-8.286396e+01
1.400000e-07	-8.489236e-07	-1.309288e-09	-6.812715e+00	-8.288504e+01
1.500000e-07	-8.479757e-07	-1.318355e-09	-6.805108e+00	-8.290907e+01
1.600000e-07	-8.469684e-07	-1.323355e-09	-6.797025e+00	-8.293067e+01
1.700000e-07	-8.459278e-07	-1.310355e-09	-6.788674e+00	-8.294306e+01
1.800000e-07	-8.448570e-07	-1.287774e-09	-6.780081e+00	-8.293904e+01
1.900000e-07	-8.437390e-07	-1.282981e-09	-6.771109e+00	-8.291201e+01
2.000000e-07	-8.425597e-07	-1.286777e-09	-6.761645e+00	-8.285702e+01
2.100000e-07	-8.413171e-07	-1.292914e-09	-6.751672e+00	-8.277156e+01
2.200000e-07	-8.400153e-07	-1.298478e-09	-6.741225e+00	-8.265604e+01
2.300000e-07	-8.386699e-07	-1.300287e-09	-6.730429e+00	-8.251392e+01
2.400000e-07	-8.372752e-07	-1.293252e-09	-6.719236e+00	-8.235126e+01
2.500000e-07	-8.358164e-07	-1.276405e-09	-6.707528e+00	-8.217602e+01
2.600000e-07	-8.342860e-07	-1.268706e-09	-6.695247e+00	-8.199702e+01
2.700000e-07	-8.326926e-07	-1.268254e-09	-6.682460e+00	-8.182269e+01
2.800000e-07	-8.310514e-07	-1.274157e-09	-6.669289e+00	-8.166003e+01
2.900000e-07	-8.293539e-07	-1.271235e-09	-6.655667e+00	-8.151357e+01
3.000000e-07	-8.276049e-07	-1.269858e-09	-6.641630e+00	-8.138486e+01
3.100000e-07	-8.258223e-07	-1.263510e-09	-6.627325e+00	-8.127224e+01
3.200000e-07	-8.239960e-07	-1.257912e-09	-6.612668e+00	-8.117119e+01
3.300000e-07	-8.221237e-07	-1.249284e-09	-6.597643e+00	-8.107500e+01
3.400000e-07	-8.202002e-07	-1.247064e-09	-6.582207e+00	-8.097577e+01
3.500000e-07	-8.181938e-07	-1.248139e-09	-6.566105e+00	-8.086554e+01
3.600000e-07	-8.161020e-07	-1.247553e-09	-6.549318e+00	-8.073742e+01
3.700000e-07	-8.139384e-07	-1.241939e-09	-6.531955e+00	-8.058649e+01
3.800000e-07	-8.116829e-07	-1.236477e-09	-6.513855e+00	-8.041035e+01
3.900000e-07	-8.093207e-07	-1.233500e-09	-6.494897e+00	-8.020934e+01
4.000000e-07	-8.068820e-07	-1.230574e-09	-6.475327e+00	-7.998627e+01
4.100000e-07	-8.043728e-07	-1.227091e-09	-6.455190e+00	-7.974579e+01
4.200000e-07	-8.017877e-07	-1.219165e-09	-6.434444e+00	-7.949356e+01
4.300000e-07	-7.991412e-07	-1.216134e-09	-6.413205e+00	-7.923524e+01
4.400000e-07	-7.964364e-07	-1.212803e-09	-6.391499e+00	-7.897555e+01
4.500000e-07	-7.936772e-07	-1.209313e-09	-6.369356e+00	-7.871760e+01
4.600000e-07	-7.908752e-07	-1.201996e-09	-6.346870e+00	-7.846245e+01
4.700000e-07	-7.880161e-07	-1.199766e-09	-6.323925e+00	-7.820907e+01
4.800000e-07	-7.850924e-07	-1.197117e-09	-6.300463e+00	-7.795468e+01
4.900000e-07	-7.821092e-07	-1.192878e-09	-6.276521e+00	-7.769536e+01
5.000000e-07	-7.790600e-07	-1.182575e-09	-6.252052e+00	-7.742683e+01
5.100000e-07	-7.759560e-07	-1.173264e-09	-6.227141e+00	-7.714531e+01
5.200000e-07	-7.727609e-07	-1.166909e-09	-6.201501e+00	-7.684822e+01
5.300000e-07	-7.694793e-07	-1.166410e-09	-6.175165e+00	-7.653465e+01
5.400000e-07	-7.661416e-07	-1.168070e-09	-6.148380e+00	-7.620553e+01
5.500000e-07	-7.627489e-07	-1.170120e-09	-6.121153e+00	-7.586341e+01
5.600000e-07	-7.592943e-07	-1.170179e-09	-6.093429e+00	-7.551202e+01
5.700000e-07	-7.557758e-07	-1.165272e-09	-6.065193e+00	-7.515549e+01
5.800000e-07	-7.522140e-07	-1.154781e-09	-6.036609e+00	-7.479759e+01
5.900000e-07	-7.485885e-07	-1.143856e-09	-6.007514e+00	-7.444096e+01
6.000000e-07	-7.448944e-07	-1.138188e-09	-5.977868e+00	-7.408660e+01
6.100000e-07	-7.411601e-07	-1.136119e-09	-5.947900e+00	-7.373357e+01
6.200000e-07	-7.373873e-07	-1.134219e-09	-5.917623e+00	-7.337913e+01
6.300000e-07	-7.335603e-07	-1.130138e-09	-5.886911e+00	-7.301913e+01
6.400000e-07	-7.296769e-07	-1.126083e-09	-5.855746e+00	-7.264878e+01
6.500000e-07	-7.257461e-07	-1.118930e-09	-5.824201e+00	-7.226347e+01
6.600000e-07	-7.217628e-07	-1.110305e-09	-5.792234e+00	-7.185967e+01
6.700000e-07	-7.177253e-07	-1.101953e-09	-5.759833e+00	-7.143566e+01
6.800000e-07	-7.136437e-07	-1.097668e-09	-5.727078e+00	-7.099198e+01
6.900000e-07	-7.095162e-07	-1.095385e-09	-5.693954e+00	-7.053154e+01
7.000000e-07	-7.053472e-07	-1.091873e-09	-5.660498e+00	-7.005935e+01
7.100000e-07	-7.011442e-07	-1.084898e-09	-5.626768e+00	-6.958184e+01
7.200000e-07	-6.969121e-07	-1.077766e-09	-5.592805e+00	-6.910599e+01
7.300000e-07	-6.926425e-07	-1.071514e-09	-5.558541e+00	-6.863831e+01
7.400000e-07	-6.883380e-07	-1.066073e-09	-5.523997e+00	-6.818384e+01
7.500000e-07	-6.840029e-07	-1.061152e-09	-5.489207e+00	-6.774541e+01
7.600000e-07	-6.796127e-07	-1.055894e-09	-5.453975e+00	-6.732316e+01
7.700000e-07	-6.751641e-07	-1.048437e-09	-5.418274e+00	-6.691452e+01
7.800000e-07	-6.706690e-07	-1.038955e-09	-5.382200e+00	-6.651455e+01
7.900000e-07	-6.661290e-07	-1.029116e-09	-5.345767e+00	-6.611671e+01
8.000000e-07	-6.615486e-07	-1.020739e-09	-5.309008e+00	-6.571381e+01
8.100000e-07	-6.569169e-07	-1.014884e-09	-5.271838e+00	-6.529914e+01
8.200000e-07	-6.522302e-07	-1.008804e-09	-5.234227e+00	-6.486745e+01
8.300000e-07	-6.475044e-07	-1.002302e-09	-5.196302e+00	-6.441574e+01
8.400000e-07	-6.427364e-07	-9.960775e-10	-5.158038e+00	-6.394374e+01
8.500000e-07	-6.379275e-07	-9.897128e-10	-5.119446e+00	-6.345390e+01
8.600000e-07	-6.330727e-07	-9.813865e-10	-5.080485e+00	-6.295102e+01
8.700000e-07	-6.281598e-07	-9.707220e-10	-5.041059e+00	-6.244152e+01
8.800000e-07	-6.232118e-07	-9.589886e-10	-5.001350e+00	-6.193243e+01
8.900000e-07	-6.182333e-07	-9.482521e-10	-4.961398e+00	-6.143035e+01
9.000000e-07	-6.132110e-07	-9.393185e-10	-4.921093e+00	-6.094049e+01
9.100000e-07	-6.081635e-07	-9.322025e-10	-4.880586e+00	-6.046587e+01
9.200000e-07	-6.030906e-07	-9.266754e-10	-4.839876e+00	-6.000698e+01
9.300000e-07	-5.979691e-07	-9.202681e-10	-4.798775e+00	-5.956172e+01
9.400000e-07	-5.928124e-07	-9.116247e-10	-4.757391e+00	-5.912578e+01
9.500000e-07	-5.876188e-07	-9.027865e-10	-4.715713e+00	-5.869332e+01
9.600000e-07	-5.823580e-07	-8.951352e-10	-4.673494e+00	-5.825789e+01
9.700000e-07	-5.770328e-07	-8.871772e-10	-4.630758e+00	-5.781334e+01
9.800000e-07	-5.716308e-07	-8.773784e-10	-4.587407e+00	-5.735467e+01
9.900000e-07	-5.661501e-07	-8.664153e-10	-4.543423e+00	-5.687867e+01
1.000000e-06	-5.606059e-07	-8.561252e-10	-4.498931e+00	-5.638423e+01
1.010000e-06	-5.550048e-07	-8.481898e-10	-4.453981e+00	-5.587230e+01
1.020000e-06	-5.493613e-07	-8.403565e-10	-4.408692e+00	-5.534554e+01
1.030000e-06	-5.436629e-07	-8.315788e-10	-4.362961e+00	-5.480769e+01
1.040000e-06	-5.379197e-07	-8.226930e-10	-4.316871e+00	-5.426284e+01
1.050000e-06	-5.321555e-07	-8.135670e-10	-4.270613e+00	-5.371466e+01
1.060000e-06	-5.263631e-07	-8.063976e-10	-4.224128e+00	-5.316578e+01
1.070000e-06	-5.205532e-07	-7.992182e-10	-4.177503e+00	-5.261734e+01
1.080000e-06	-5.147368e-07	-7.886090e-10	-4.130826e+00	-5.206885e+01
1.090000e-06	-5.089015e-07	-7.758735e-10	-4.083997e+00	-5.151839e+01
1.100000e-06	-5.030414e-07	-7.656341e-10	-4.036968e+00	-5.096297e+01
1.110000e-06	-4.971463e-07	-7.592418e-10	-3.989660e+00	-5.039914e+01
1.120000e-06	-4.912063e-07	-7.512653e-10	-3.941990e+00	-4.982367e+01
1.130000e-06	-4.852206e-07	-7.390278e-10	-3.893954e+00	-4.923411e+01
1.140000e-06	-4.791915e-07	-7.287561e-10	-3.845570e+00	-4.862927e+01
1.150000e-06	-4.731446e-07	-7.235312e-10	-3.797043e+00	-4.800947e+01
1.160000e-06	-4.670680e-07	-7.169325e-10	-3.748278e+00	-4.737651e+01
1.170000e-06	-4.609362e-07	-7.080012e-10	-3.699069e+00	-4.673340e+01
1.180000e-06	-4.547732e-07	-6.990198e-10	-3.649610e+00	-4.608396e+01
1.190000e-06	-4.485970e-07	-6.910765e-10	-3.600046e+00	-4.543219e+01
1.200000e-06	-4.424070e-07	-6.823275e-10	-3.550370e+00	-4.478181e+01
1.210000e-06	-4.361930e-07	-6.711226e-10	-3.500502e+00	-4.413575e+01
1.220000e-06	-4.299490e-07	-6.604915e-10	-3.450393e+00	-4.349586e+01
1.230000e-06	-4.236740e-07	-6.538534e-10	-3.400036e+00	-4.286288e+01
1.240000e-06	-4.173804e-07	-6.490509e-10	-3.349529e+00	-4.223655e+01
1.250000e-06	-4.110643e-07	-6.390911e-10	-3.298842e+00	-4.161593e+01
1.260000e-06	-4.047111e-07	-6.250538e-10	-3.247856e+00	-4.099984e+01
1.270000e-06	-3.982944e-07	-6.148531e-10	-3.196361e+00	-4.038727e+01
1.280000e-06	-3.918382e-07	-6.091872e-10	-3.144549e+00	-3.977778e+01
1.290000e-06	-3.853816e-07	-6.015493e-10	-3.092734e+00	-3.917169e+01
1.300000e-06	-3.789132e-07	-5.896746e-10	-3.040824e+00	-3.857011e+01
1.310000e-06	-3.723988e-07	-5.787533e-10	-2.988546e+00	-3.797474e+01
1.320000e-06	-3.658478e-07	-5.708169e-10	-2.935974e+00	-3.738754e+01
1.330000e-06	-3.592987e-07	-5.646888e-10	-2.883416e+00	-3.681027e+01
1.340000e-06	-3.527305e-07	-5.574909e-10	-2.830705e+00	-3.624397e+01
1.350000e-06	-3.461368e-07	-5.508939e-10	-2.777790e+00	-3.568861e+01
1.360000e-06	-3.395372e-07	-5.473376e-10	-2.724827e+00	-3.514280e+01
1.370000e-06	-3.329337e-07	-5.411070e-10	-2.671834e+00	-3.460381e+01
1.380000e-06	-3.263190e-07	-5.300114e-10	-2.618750e+00	-3.406776e+01
1.390000e-06	-3.196894e-07	-5.169015e-10	-2.565546e+00	-3.353006e+01
1.400000e-06	-3.130433e-07	-5.075320e-10	-2.512211e+00	-3.298598e+01
1.410000e-06	-3.063756e-07	-5.038673e-10	-2.458702e+00	-3.243131e+01
1.420000e-06	-2.996856e-07	-5.003529e-10	-2.405013e+00	-3.186297e+01
1.430000e-06	-2.929831e-07	-4.919345e-10	-2.351226e+00	-3.127943e+01
1.440000e-06	-2.862708e-07	-4.808820e-10	-2.297358e+00	-3.068100e+01
1.450000e-06	-2.795449e-07	-4.720957e-10	-2.243382e+00	-3.006974e+01
1.460000e-06	-2.727800e-07	-4.624216e-10	-2.189093e+00	-2.944915e+01
1.470000e-06	-2.659844e-07	-4.497447e-10	-2.134557e+00	-2.882368e+01
1.480000e-06	-2.591896e-07	-4.381503e-10	-2.080028e+00	-2.819799e+01
1.490000e-06	-2.523601e-07	-4.303943e-10	-2.025220e+00	-2.757624e+01
1.500000e-06	-2.454736e-07	-4.226022e-10	-1.969955e+00	-2.696147e+01
1.510000e-06	-2.385535e-07	-4.117369e-10	-1.914421e+00	-2.635507e+01
1.520000e-06	-2.316188e-07	-4.011198e-10	-1.858769e+00	-2.575661e+01
1.530000e-06	-2.246696e-07	-3.929378e-10	-1.803001e+00	-2.516390e+01
1.540000e-06	-2.176937e-07	-3.839570e-10	-1.747018e+00	-2.457329e+01
1.550000e-06	-2.106918e-07	-3.715488e-10	-1.690827e+00	-2.398028e+01
1.560000e-06	-2.036512e-07	-3.582098e-10	-1.634326e+00	-2.338016e+01
1.570000e-06	-1.965785e-07	-3.476423e-10	-1.577566e+00	-2.276873e+01
1.580000e-06	-1.895020e-07	-3.387658e-10	-1.520777e+00	-2.214287e+01
1.590000e-06	-1.824041e-07	-3.275393e-10	-1.463815e+00	-2.150101e+01
1.600000e-06	-1.752796e-07	-3.153603e-10	-1.406640e+00	-2.084320e+01
1.610000e-06	-1.681387e-07	-3.047439e-10	-1.349333e+00	-2.017106e+01
1.620000e-06	-1.609779e-07	-2.958897e-10	-1.291867e+00	-1.948741e+01
1.630000e-06	-1.537970e-07	-2.844233e-10	-1.234240e+00	-1.879572e+01
1.640000e-06	-1.465946e-07	-2.700759e-10	-1.176440e+00	-1.809953e+01
1.650000e-06	-1.393642e-07	-2.588763e-10	-1.118415e+00	-1.740188e+01
1.660000e-06	-1.321193e-07	-2.529471e-10	-1.060273e+00	-1.670482e+01
1.670000e-06	-1.248663e-07	-2.446905e-10	-1.002067e+00	-1.600918e+01
1.680000e-06	-1.175956e-07	-2.314053e-10	-9.437186e-01	-1.531456e+01
1.690000e-06	-1.103103e-07	-2.181629e-10	-8.852533e-01	-1.461957e+01
1.700000e-06	-1.030188e-07	-2.067361e-10	-8.267386e-01	-1.392220e+01
1.710000e-06	-9.572710e-08	-1.959906e-10	-7.682217e-01	-1.322036e+01
1.720000e-06	-8.842608e-08	-1.830760e-10	-7.096301e-01	-1.251245e+01
1.730000e-06	-8.111470e-08	-1.703754e-10	-6.509554e-01	-1.179773e+01
1.740000e-06	-7.380473e-08	-1.613497e-10	-5.922919e-01	-1.107667e+01
1.750000e-06	-6.650178e-08	-1.542144e-10	-5.336849e-01	-1.035095e+01
1.760000e-06	-5.918691e-08	-1.453693e-10	-4.749822e-01	-9.623302e+00
1.770000e-06	-5.184617e-08	-1.337506e-10	-4.160718e-01	-8.897126e+00
1.780000e-06	-4.449428e-08	-1.227552e-10	-3.570720e-01	-8.175969e+00
1.790000e-06	-3.714943e-08	-1.146989e-10	-2.981287e-01	-7.462964e+00
1.800000e-06	-2.980644e-08	-1.053380e-10	-2.392003e-01	-6.760324e+00
1.810000e-06	-2.245511e-08	-9.375493e-11	-1.802050e-01	-6.068987e+00
1.820000e-06	-1.509911e-08	-8.143495e-11	-1.211722e-01	-5.388465e+00
1.830000e-06	-7.750273e-09	-7.182397e-11	-6.219688e-02	-4.716945e+00
1.840000e-06	-4.113977e-10	-6.562311e-11	-3.301517e-03	-4.051604e+00
1.850000e-06	6.932925e-09	-5.743233e-11	5.563757e-02	-3.389105e+00
1.860000e-06	1.428381e-08	-4.918761e-11	1.146293e-01	-2.726167e+00
1.870000e-06	2.162755e-08	-4.436023e-11	1.735637e-01	-2.060126e+00
1.880000e-06	2.896650e-08	-4.020156e-11	2.324597e-01	-1.389375e+00
1.890000e-06	3.630744e-08	-3.055430e-11	2.913717e-01	-7.136098e-01
1.900000e-06	4.365737e-08	-1.518654e-11	3.503557e-01	-3.383520e-02
1.910000e-06	5.100830e-08	-1.213888e-12	4.093478e-01	6.478775e-01
1.920000e-06	5.834165e-08	7.665257e-12	4.681989e-01	1.328831e+00
1.930000e-06	6.567901e-08	1.461405e-11	5.270820e-01	2.006269e+00
1.940000e-06	7.300495e-08	2.116296e-11	5.858736e-01	2.677965e+00
1.950000e-06	8.030754e-08	2.746345e-11	6.444778e-01	3.342721e+00
1.960000e-06	8.761674e-08	3.380515e-11	7.031350e-01	4.000693e+00
1.970000e-06	9.491799e-08	4.089133e-11	7.617284e-01	4.653461e+00
1.980000e-06	1.022010e-07	5.150337e-11	8.201754e-01	5.303832e+00
1.990000e-06	1.094792e-07	6.308142e-11	8.785839e-01	5.955409e+00
2.000000e-06	1.167539e-07	7.243017e-11	9.369643e-01	6.611968e+00
2.010000e-06	1.240219e-07	8.033393e-11	9.952911e-01	7.276777e+00
2.020000e-06	1.312862e-07	8.815081e-11	1.053588e+00	7.951952e+00
2.030000e-06	1.385234e-07	9.797851e-11	1.111667e+00	8.637985e+00
2.040000e-06	1.457379e-07	1.093220e-10	1.169564e+00	9.333515e+00
2.050000e-06	1.529643e-07	1.185328e-10	1.227557e+00	1.003541e+01
2.060000e-06	1.601807e-07	1.260857e-10	1.285469e+00	1.073915e+01
2.070000e-06	1.673544e-07	1.351285e-10	1.343040e+00	1.143947e+01
2.080000e-06	1.744941e-07	1.447588e-10	1.400336e+00	1.213115e+01
2.090000e-06	1.815945e-07	1.556879e-10	1.457318e+00	1.280986e+01
2.100000e-06	1.886834e-07	1.676299e-10	1.514207e+00	1.347289e+01
2.110000e-06	1.957615e-07	1.787402e-10	1.571010e+00	1.411965e+01
2.120000e-06	2.028021e-07	1.892698e-10	1.627512e+00	1.475186e+01
2.130000e-06	2.098351e-07	1.983652e-10	1.683952e+00	1.537339e+01
2.140000e-06	2.168491e-07	2.039984e-10	1.740240e+00	1.598977e+01
2.150000e-06	2.238187e-07	2.083471e-10	1.796172e+00	1.660739e+01
2.160000e-06	2.307411e-07	2.178371e-10	1.851726e+00	1.723261e+01
2.170000e-06	2.376276e-07	2.329477e-10	1.906990e+00	1.787074e+01
2.180000e-06	2.444902e-07	2.478630e-10	1.962064e+00	1.852531e+01
2.190000e-06	2.513142e-07	2.601190e-10	2.016827e+00	1.919743e+01
2.200000e-06	2.581076e-07	2.707751e-10	2.071345e+00	1.988565e+01
2.210000e-06	2.648881e-07	2.796581e-10	2.125759e+00	2.058609e+01
2.220000e-06	2.716555e-07	2.887745e-10	2.180069e+00	2.129297e+01
2.230000e-06	2.784053e-07	2.973488e-10	2.234237e+00	2.199945e+01
2.240000e-06	2.851263e-07	3.051219e-10	2.288173e+00	2.269858e+01
2.250000e-06	2.918278e-07	3.176768e-10	2.341954e+00	2.338428e+01
2.260000e-06	2.985115e-07	3.343192e-10	2.395591e+00	2.405221e+01
2.270000e-06	3.051740e-07	3.478913e-10	2.449059e+00	2.470033e+01
2.280000e-06	3.118253e-07	3.577217e-10	2.502436e+00	2.532916e+01
2.290000e-06	3.184634e-07	3.682738e-10	2.555707e+00	2.594165e+01
2.300000e-06	3.250897e-07	3.802538e-10	2.608884e+00	2.654269e+01
2.310000e-06	3.317145e-07	3.917605e-10	2.662049e+00	2.713840e+01
2.320000e-06	3.383298e-07	4.015356e-10	2.715138e+00	2.773521e+01
2.330000e-06	3.449235e-07	4.130849e-10	2.768053e+00	2.833898e+01
2.340000e-06	3.514978e-07	4.283736e-10	2.820813e+00	2.895424e+01
2.350000e-06	3.580605e-07	4.405981e-10	2.873479e+00	2.958365e+01
2.360000e-06	3.646096e-07	4.470665e-10	2.926036e+00	3.022779e+01
2.370000e-06	3.711426e-07	4.523427e-10	2.978465e+00	3.088524e+01
2.380000e-06	3.776547e-07	4.600412e-10	3.030725e+00	3.155299e+01
2.390000e-06	3.841379e-07	4.717173e-10	3.082754e+00	3.222701e+01
2.400000e-06	3.905850e-07	4.850650e-10	3.134493e+00	3.290300e+01
2.410000e-06	3.970054e-07	4.988228e-10	3.186017e+00	3.357702e+01
2.420000e-06	4.033987e-07	5.126821e-10	3.237324e+00	3.424609e+01
2.430000e-06	4.097518e-07	5.246489e-10	3.288308e+00	3.490848e+01
2.440000e-06	4.160616e-07	5.324525e-10	3.338945e+00	3.556385e+01
2.450000e-06	4.223288e-07	5.362548e-10	3.389240e+00	3.621304e+01
2.460000e-06	4.285821e-07	5.419784e-10	3.439423e+00	3.685770e+01
2.470000e-06	4.348168e-07	5.530072e-10	3.489458e+00	3.749982e+01
2.480000e-06	4.410280e-07	5.660875e-10	3.539304e+00	3.814116e+01
2.490000e-06	4.472238e-07	5.780973e-10	3.589025e+00	3.878283e+01
2.500000e-06	4.533943e-07	5.894399e-10	3.638545e+00	3.942501e+01
2.510000e-06	4.595470e-07	6.002882e-10	3.687920e+00	4.006683e+01
2.520000e-06	4.656670e-07	6.094881e-10	3.737035e+00	4.070654e+01
2.530000e-06	4.717349e-07	6.160755e-10	3.785730e+00	4.134183e+01
2.540000e-06	4.777740e-07	6.217082e-10	3.834195e+00	4.197031e+01
2.550000e-06	4.837868e-07	6.282231e-10	3.882448e+00	4.258994e+01
2.560000e-06	4.897532e-07	6.359529e-10	3.930329e+00	4.319954e+01
2.570000e-06	4.956774e-07	6.457091e-10	3.977871e+00	4.379903e+01
2.580000e-06	5.015709e-07	6.569973e-10	4.025168e+00	4.438953e+01
2.590000e-06	5.074499e-07	6.690247e-10	4.072347e+00	4.497321e+01
2.600000e-06	5.133073e-07	6.791200e-10	4.119354e+00	4.555299e+01
2.610000e-06	5.191366e-07	6.863341e-10	4.166134e+00	4.613202e+01
2.620000e-06	5.249466e-07	6.926702e-10	4.212761e+00	4.671314e+01
2.630000e-06	5.307322e-07	6.994285e-10	4.259190e+00	4.729839e+01
2.640000e-06	5.364941e-07	7.082711e-10	4.305430e+00	4.788859e+01
2.650000e-06	5.422248e-07	7.172391e-10	4.351420e+00	4.848316e+01
2.660000e-06	5.479135e-07	7.254781e-10	4.397072e+00	4.908017e+01
2.670000e-06	5.535623e-07	7.339941e-10	4.442405e+00	4.967661e+01
2.680000e-06	5.591655e-07	7.428652e-10	4.487372e+00	5.026887e+01
2.690000e-06	5.647134e-07	7.503531e-10	4.531894e+00	5.085328e+01
2.700000e-06	5.702022e-07	7.566062e-10	4.575942e+00	5.142672e+01
2.710000e-06	5.755987e-07	7.654542e-10	4.619250e+00	5.198712e+01
2.720000e-06	5.809020e-07	7.760464e-10	4.661810e+00	5.253377e+01
2.730000e-06	5.861436e-07	7.854089e-10	4.703874e+00	5.306744e+01
2.740000e-06	5.913437e-07	7.921225e-10	4.745606e+00	5.359020e+01
2.750000e-06	5.964995e-07	7.982318e-10	4.786981e+00	5.410511e+01
2.760000e-06	6.015938e-07	8.057577e-10	4.827864e+00	5.461562e+01
2.770000e-06	6.066452e-07	8.137935e-10	4.868402e+00	5.512499e+01
2.780000e-06	6.116654e-07	8.224944e-10	4.908690e+00	5.563578e+01
2.790000e-06	6.166559e-07	8.330303e-10	4.948739e+00	5.614931e+01
2.800000e-06	6.216241e-07	8.454391e-10	4.988610e+00	5.666554e+01
2.810000e-06	6.265592e-07	8.580379e-10	5.028214e+00	5.718300e+01
2.820000e-06	6.314391e-07	8.689958e-10	5.067376e+00	5.769909e+01
2.830000e-06	6.362595e-07	8.760662e-10	5.106060e+00	5.821050e+01
2.840000e-06	6.410252e-07	8.808343e-10	5.144306e+00	5.871385e+01
2.850000e-06	6.457480e-07	8.859092e-10	5.182206e+00	5.920619e+01
2.860000e-06	6.504484e-07	8.910155e-10	5.219928e+00	5.968561e+01
2.870000e-06	6.551245e-07	8.978384e-10	5.257454e+00	6.015151e+01
2.880000e-06	6.597705e-07	9.091382e-10	5.294738e+00	6.060479e+01
2.890000e-06	6.643775e-07	9.217902e-10	5.331711e+00	6.104767e+01
2.900000e-06	6.689270e-07	9.309562e-10	5.368221e+00	6.148336e+01
2.910000e-06	6.734155e-07	9.382492e-10	5.404241e+00	6.191556e+01
