# Temperatura_=_20.0
# Concentracion g/m^3_=_10000.0
# C_Vs_to_Am_M_A/Vsm_=_65563218390.804596
# pendiente_HvsI_1/m_=_3716.3
# ordenada_HvsI_A/m_=_1297.0
# frecuencia_Hz_=_135111.3195576321

Tiempo_(s)	Campo_(V.s)	Magnetizacion_(V.s)	Campo_(kA/m)	Magnetizacion_(A/m)
0.000000e+00	-8.542074e-07	-1.292559e-09	-6.854753e+00	-8.180395e+01
1.000000e-08	-8.542013e-07	-1.303819e-09	-6.854704e+00	-8.183471e+01
2.000000e-08	-8.541677e-07	-1.285322e-09	-6.854435e+00	-8.185746e+01
3.000000e-08	-8.540874e-07	-1.255897e-09	-6.853790e+00	-8.187156e+01
4.000000e-08	-8.539306e-07	-1.241474e-09	-6.852532e+00	-8.187676e+01
5.000000e-08	-8.536988e-07	-1.263574e-09	-6.850672e+00	-8.187342e+01
6.000000e-08	-8.533955e-07	-1.299298e-09	-6.848238e+00	-8.186267e+01
7.000000e-08	-8.530381e-07	-1.316892e-09	-6.845370e+00	-8.184645e+01
8.000000e-08	-8.526542e-07	-1.337854e-09	-6.842289e+00	-8.182737e+01
9.000000e-08	-8.522309e-07	-1.340435e-09	-6.838892e+00	-8.180846e+01
1.000000e-07	-8.517643e-07	-1.295725e-09	-6.835148e+00	-8.179270e+01
1.100000e-07	-8.512204e-07	-1.255849e-09	-6.830783e+00	-8.178261e+01
1.200000e-07	-8.505707e-07	-1.240648e-09	-6.825569e+00	-8.177977e+01
1.300000e-07	-8.498034e-07	-1.250904e-09	-6.819412e+00	-8.178441e+01
1.400000e-07	-8.489287e-07	-1.295569e-09	-6.812393e+00	-8.179526e+01
1.500000e-07	-8.479567e-07	-1.335486e-09	-6.804593e+00	-8.180949e+01
1.600000e-07	-8.469254e-07	-1.338631e-09	-6.796317e+00	-8.182297e+01
1.700000e-07	-8.458781e-07	-1.318954e-09	-6.787913e+00	-8.183068e+01
1.800000e-07	-8.448093e-07	-1.293008e-09	-6.779336e+00	-8.182730e+01
1.900000e-07	-8.436963e-07	-1.286262e-09	-6.770405e+00	-8.180785e+01
2.000000e-07	-8.425105e-07	-1.285939e-09	-6.760889e+00	-8.176833e+01
2.100000e-07	-8.412543e-07	-1.284376e-09	-6.750809e+00	-8.170627e+01
2.200000e-07	-8.399443e-07	-1.294666e-09	-6.740296e+00	-8.162103e+01
2.300000e-07	-8.385728e-07	-1.306379e-09	-6.729290e+00	-8.151389e+01
2.400000e-07	-8.371607e-07	-1.303482e-09	-6.717958e+00	-8.138787e+01
2.500000e-07	-8.357087e-07	-1.288190e-09	-6.706307e+00	-8.124733e+01
2.600000e-07	-8.341818e-07	-1.276736e-09	-6.694054e+00	-8.109735e+01
2.700000e-07	-8.325906e-07	-1.273950e-09	-6.681285e+00	-8.094303e+01
2.800000e-07	-8.309395e-07	-1.276324e-09	-6.668035e+00	-8.078883e+01
2.900000e-07	-8.292275e-07	-1.282514e-09	-6.654297e+00	-8.063800e+01
3.000000e-07	-8.274702e-07	-1.287359e-09	-6.640195e+00	-8.049215e+01
3.100000e-07	-8.256754e-07	-1.280867e-09	-6.625793e+00	-8.035116e+01
3.200000e-07	-8.238337e-07	-1.267237e-09	-6.611013e+00	-8.021328e+01
3.300000e-07	-8.219459e-07	-1.254687e-09	-6.595864e+00	-8.007546e+01
3.400000e-07	-8.200190e-07	-1.252157e-09	-6.580402e+00	-7.993393e+01
3.500000e-07	-8.180104e-07	-1.256132e-09	-6.564283e+00	-7.978475e+01
3.600000e-07	-8.158929e-07	-1.259905e-09	-6.547291e+00	-7.962449e+01
3.700000e-07	-8.136909e-07	-1.257303e-09	-6.529621e+00	-7.945066e+01
3.800000e-07	-8.114161e-07	-1.251072e-09	-6.511366e+00	-7.926209e+01
3.900000e-07	-8.090692e-07	-1.246103e-09	-6.492533e+00	-7.905898e+01
4.000000e-07	-8.066488e-07	-1.243790e-09	-6.473110e+00	-7.884278e+01
4.100000e-07	-8.041693e-07	-1.238402e-09	-6.453212e+00	-7.861587e+01
4.200000e-07	-8.016362e-07	-1.229602e-09	-6.432885e+00	-7.838103e+01
4.300000e-07	-7.990339e-07	-1.225467e-09	-6.412003e+00	-7.814094e+01
4.400000e-07	-7.963666e-07	-1.225040e-09	-6.390599e+00	-7.789767e+01
4.500000e-07	-7.936278e-07	-1.222039e-09	-6.368621e+00	-7.765232e+01
4.600000e-07	-7.908079e-07	-1.212943e-09	-6.345992e+00	-7.740477e+01
4.700000e-07	-7.879211e-07	-1.206199e-09	-6.322826e+00	-7.715377e+01
4.800000e-07	-7.849746e-07	-1.204686e-09	-6.299181e+00	-7.689710e+01
4.900000e-07	-7.819811e-07	-1.203495e-09	-6.275159e+00	-7.663203e+01
5.000000e-07	-7.789402e-07	-1.194187e-09	-6.250757e+00	-7.635574e+01
5.100000e-07	-7.758148e-07	-1.182355e-09	-6.225676e+00	-7.606590e+01
5.200000e-07	-7.726031e-07	-1.174394e-09	-6.199903e+00	-7.576103e+01
5.300000e-07	-7.693433e-07	-1.172307e-09	-6.173745e+00	-7.544087e+01
5.400000e-07	-7.660155e-07	-1.172293e-09	-6.147040e+00	-7.510638e+01
5.500000e-07	-7.626020e-07	-1.171519e-09	-6.119648e+00	-7.475969e+01
5.600000e-07	-7.591229e-07	-1.168622e-09	-6.091729e+00	-7.440372e+01
5.700000e-07	-7.555586e-07	-1.164024e-09	-6.063126e+00	-7.404177e+01
5.800000e-07	-7.519466e-07	-1.156632e-09	-6.034142e+00	-7.367698e+01
5.900000e-07	-7.483161e-07	-1.145886e-09	-6.005008e+00	-7.331184e+01
6.000000e-07	-7.446288e-07	-1.136566e-09	-5.975418e+00	-7.294776e+01
6.100000e-07	-7.408886e-07	-1.132138e-09	-5.945405e+00	-7.258493e+01
6.200000e-07	-7.371081e-07	-1.130822e-09	-5.915067e+00	-7.222224e+01
6.300000e-07	-7.332747e-07	-1.126878e-09	-5.884305e+00	-7.185755e+01
6.400000e-07	-7.293787e-07	-1.119336e-09	-5.853041e+00	-7.148804e+01
6.500000e-07	-7.254292e-07	-1.111768e-09	-5.821347e+00	-7.111073e+01
6.600000e-07	-7.214332e-07	-1.104797e-09	-5.789281e+00	-7.072305e+01
6.700000e-07	-7.173903e-07	-1.095910e-09	-5.756838e+00	-7.032332e+01
6.800000e-07	-7.133013e-07	-1.087318e-09	-5.724025e+00	-6.991110e+01
6.900000e-07	-7.091705e-07	-1.082864e-09	-5.690876e+00	-6.948736e+01
7.000000e-07	-7.050007e-07	-1.080231e-09	-5.657415e+00	-6.905441e+01
7.100000e-07	-7.007945e-07	-1.073245e-09	-5.623661e+00	-6.861562e+01
7.200000e-07	-6.965622e-07	-1.064153e-09	-5.589699e+00	-6.817498e+01
7.300000e-07	-6.922942e-07	-1.055554e-09	-5.555449e+00	-6.773648e+01
7.400000e-07	-6.879794e-07	-1.049916e-09	-5.520824e+00	-6.730358e+01
7.500000e-07	-6.836183e-07	-1.047903e-09	-5.485828e+00	-6.687865e+01
7.600000e-07	-6.792150e-07	-1.046273e-09	-5.450493e+00	-6.646261e+01
7.700000e-07	-6.747656e-07	-1.040805e-09	-5.414787e+00	-6.605479e+01
7.800000e-07	-6.702575e-07	-1.032558e-09	-5.378611e+00	-6.565298e+01
7.900000e-07	-6.657042e-07	-1.023436e-09	-5.342073e+00	-6.525372e+01
8.000000e-07	-6.611165e-07	-1.013465e-09	-5.305258e+00	-6.485277e+01
8.100000e-07	-6.564829e-07	-1.003935e-09	-5.268074e+00	-6.444571e+01
8.200000e-07	-6.518128e-07	-9.953337e-10	-5.230598e+00	-6.402850e+01
8.300000e-07	-6.471108e-07	-9.906469e-10	-5.192866e+00	-6.359803e+01
8.400000e-07	-6.423577e-07	-9.885419e-10	-5.154724e+00	-6.315251e+01
8.500000e-07	-6.375631e-07	-9.850606e-10	-5.116249e+00	-6.269165e+01
8.600000e-07	-6.327233e-07	-9.771558e-10	-5.077411e+00	-6.221668e+01
8.700000e-07	-6.278212e-07	-9.664491e-10	-5.038073e+00	-6.173007e+01
8.800000e-07	-6.228637e-07	-9.562611e-10	-4.998290e+00	-6.123520e+01
8.900000e-07	-6.178728e-07	-9.460327e-10	-4.958240e+00	-6.073588e+01
9.000000e-07	-6.128631e-07	-9.357190e-10	-4.918039e+00	-6.023579e+01
9.100000e-07	-6.078181e-07	-9.282611e-10	-4.877555e+00	-5.973809e+01
9.200000e-07	-6.027428e-07	-9.231332e-10	-4.836827e+00	-5.924505e+01
9.300000e-07	-5.976336e-07	-9.161409e-10	-4.795827e+00	-5.875791e+01
9.400000e-07	-5.924813e-07	-9.081798e-10	-4.754481e+00	-5.827683e+01
9.500000e-07	-5.872871e-07	-9.013350e-10	-4.712799e+00	-5.780106e+01
9.600000e-07	-5.820262e-07	-8.950867e-10	-4.670582e+00	-5.732921e+01
9.700000e-07	-5.766824e-07	-8.871236e-10	-4.627700e+00	-5.685961e+01
9.800000e-07	-5.712737e-07	-8.775635e-10	-4.584297e+00	-5.639059e+01
9.900000e-07	-5.658002e-07	-8.684526e-10	-4.540373e+00	-5.592078e+01
1.000000e-06	-5.602392e-07	-8.605147e-10	-4.495748e+00	-5.544930e+01
1.010000e-06	-5.546121e-07	-8.534404e-10	-4.450592e+00	-5.497576e+01
1.020000e-06	-5.489382e-07	-8.450089e-10	-4.405061e+00	-5.450018e+01
1.030000e-06	-5.432159e-07	-8.371264e-10	-4.359141e+00	-5.402282e+01
1.040000e-06	-5.374628e-07	-8.310454e-10	-4.312974e+00	-5.354386e+01
1.050000e-06	-5.316825e-07	-8.236801e-10	-4.266589e+00	-5.306316e+01
1.060000e-06	-5.258811e-07	-8.159019e-10	-4.220035e+00	-5.258002e+01
1.070000e-06	-5.200755e-07	-8.074402e-10	-4.173447e+00	-5.209303e+01
1.080000e-06	-5.142517e-07	-7.991354e-10	-4.126713e+00	-5.160006e+01
1.090000e-06	-5.084041e-07	-7.888405e-10	-4.079787e+00	-5.109838e+01
1.100000e-06	-5.025418e-07	-7.766551e-10	-4.032744e+00	-5.058491e+01
1.110000e-06	-4.966404e-07	-7.669906e-10	-3.985387e+00	-5.005655e+01
1.120000e-06	-4.906902e-07	-7.596791e-10	-3.937639e+00	-4.951059e+01
1.130000e-06	-4.846988e-07	-7.506374e-10	-3.889560e+00	-4.894510e+01
1.140000e-06	-4.786642e-07	-7.390375e-10	-3.841134e+00	-4.835920e+01
1.150000e-06	-4.726118e-07	-7.300555e-10	-3.792565e+00	-4.775330e+01
1.160000e-06	-4.665431e-07	-7.225973e-10	-3.743866e+00	-4.712918e+01
1.170000e-06	-4.604302e-07	-7.141590e-10	-3.694812e+00	-4.648985e+01
1.180000e-06	-4.542781e-07	-7.033524e-10	-3.645443e+00	-4.583939e+01
1.190000e-06	-4.481019e-07	-6.918719e-10	-3.595881e+00	-4.518253e+01
1.200000e-06	-4.419057e-07	-6.823070e-10	-3.546158e+00	-4.452430e+01
1.210000e-06	-4.356932e-07	-6.731114e-10	-3.496305e+00	-4.386956e+01
1.220000e-06	-4.294565e-07	-6.629773e-10	-3.446257e+00	-4.322260e+01
1.230000e-06	-4.231819e-07	-6.527244e-10	-3.395905e+00	-4.258683e+01
1.240000e-06	-4.168813e-07	-6.439692e-10	-3.345345e+00	-4.196451e+01
1.250000e-06	-4.105578e-07	-6.368788e-10	-3.294600e+00	-4.135671e+01
1.260000e-06	-4.041957e-07	-6.285529e-10	-3.243547e+00	-4.076325e+01
1.270000e-06	-3.977961e-07	-6.200203e-10	-3.192192e+00	-4.018287e+01
1.280000e-06	-3.913739e-07	-6.115218e-10	-3.140656e+00	-3.961342e+01
1.290000e-06	-3.849250e-07	-6.018306e-10	-3.088905e+00	-3.905209e+01
1.300000e-06	-3.784389e-07	-5.902878e-10	-3.036857e+00	-3.849571e+01
1.310000e-06	-3.719359e-07	-5.785943e-10	-2.984672e+00	-3.794097e+01
1.320000e-06	-3.654190e-07	-5.698369e-10	-2.932376e+00	-3.738469e+01
1.330000e-06	-3.588726e-07	-5.636108e-10	-2.879843e+00	-3.682398e+01
1.340000e-06	-3.523075e-07	-5.592662e-10	-2.827160e+00	-3.625638e+01
1.350000e-06	-3.457438e-07	-5.556383e-10	-2.774489e+00	-3.567997e+01
1.360000e-06	-3.391680e-07	-5.506558e-10	-2.721719e+00	-3.509340e+01
1.370000e-06	-3.325666e-07	-5.394557e-10	-2.668745e+00	-3.449591e+01
1.380000e-06	-3.259550e-07	-5.245373e-10	-2.615689e+00	-3.388732e+01
1.390000e-06	-3.193309e-07	-5.124042e-10	-2.562533e+00	-3.326804e+01
1.400000e-06	-3.126815e-07	-5.051070e-10	-2.509173e+00	-3.263897e+01
1.410000e-06	-3.060246e-07	-4.990939e-10	-2.455754e+00	-3.200144e+01
1.420000e-06	-2.993597e-07	-4.916449e-10	-2.402270e+00	-3.135718e+01
1.430000e-06	-2.926751e-07	-4.829145e-10	-2.348628e+00	-3.070812e+01
1.440000e-06	-2.859743e-07	-4.720385e-10	-2.294856e+00	-3.005636e+01
1.450000e-06	-2.792559e-07	-4.607896e-10	-2.240944e+00	-2.940394e+01
1.460000e-06	-2.725187e-07	-4.493756e-10	-2.186879e+00	-2.875278e+01
1.470000e-06	-2.657564e-07	-4.388031e-10	-2.132614e+00	-2.810449e+01
1.480000e-06	-2.589490e-07	-4.299145e-10	-2.077986e+00	-2.746031e+01
1.490000e-06	-2.520908e-07	-4.237175e-10	-2.022952e+00	-2.682098e+01
1.500000e-06	-2.452140e-07	-4.175215e-10	-1.967768e+00	-2.618675e+01
1.510000e-06	-2.383172e-07	-4.086136e-10	-1.912422e+00	-2.555742e+01
1.520000e-06	-2.313854e-07	-3.981683e-10	-1.856797e+00	-2.493232e+01
1.530000e-06	-2.244322e-07	-3.888445e-10	-1.801000e+00	-2.431049e+01
1.540000e-06	-2.174414e-07	-3.802322e-10	-1.744900e+00	-2.369074e+01
1.550000e-06	-2.104013e-07	-3.703459e-10	-1.688406e+00	-2.307177e+01
1.560000e-06	-2.033444e-07	-3.598264e-10	-1.631777e+00	-2.245230e+01
1.570000e-06	-1.962653e-07	-3.496825e-10	-1.574969e+00	-2.183110e+01
1.580000e-06	-1.891735e-07	-3.405467e-10	-1.518059e+00	-2.120707e+01
1.590000e-06	-1.820656e-07	-3.299685e-10	-1.461021e+00	-2.057922e+01
1.600000e-06	-1.749078e-07	-3.196839e-10	-1.403582e+00	-1.994667e+01
1.610000e-06	-1.677338e-07	-3.100300e-10	-1.346012e+00	-1.930861e+01
1.620000e-06	-1.605584e-07	-3.004897e-10	-1.288432e+00	-1.866428e+01
1.630000e-06	-1.533605e-07	-2.901461e-10	-1.230671e+00	-1.801297e+01
1.640000e-06	-1.461516e-07	-2.787648e-10	-1.172822e+00	-1.735403e+01
1.650000e-06	-1.389225e-07	-2.684193e-10	-1.114810e+00	-1.668697e+01
1.660000e-06	-1.316731e-07	-2.593805e-10	-1.056636e+00	-1.601154e+01
1.670000e-06	-1.244088e-07	-2.498897e-10	-9.983426e-01	-1.532782e+01
1.680000e-06	-1.171139e-07	-2.376497e-10	-9.398032e-01	-1.463638e+01
1.690000e-06	-1.098163e-07	-2.231917e-10	-8.812419e-01	-1.393828e+01
1.700000e-06	-1.025183e-07	-2.095972e-10	-8.226780e-01	-1.323520e+01
1.710000e-06	-9.520277e-08	-1.982679e-10	-7.639731e-01	-1.252930e+01
1.720000e-06	-8.789189e-08	-1.888175e-10	-7.053055e-01	-1.182316e+01
1.730000e-06	-8.058559e-08	-1.797480e-10	-6.466747e-01	-1.111958e+01
1.740000e-06	-7.326155e-08	-1.705232e-10	-5.879015e-01	-1.042131e+01
1.750000e-06	-6.592727e-08	-1.608672e-10	-5.290461e-01	-9.730815e+00
1.760000e-06	-5.859135e-08	-1.504626e-10	-4.701776e-01	-9.050000e+00
1.770000e-06	-5.124887e-08	-1.389445e-10	-4.112565e-01	-8.380013e+00
1.780000e-06	-4.390451e-08	-1.269301e-10	-3.523203e-01	-7.721132e+00
1.790000e-06	-3.655787e-08	-1.179534e-10	-2.933657e-01	-7.072752e+00
1.800000e-06	-2.920916e-08	-1.096585e-10	-2.343946e-01	-6.433491e+00
1.810000e-06	-2.186404e-08	-1.007070e-10	-1.754522e-01	-5.801395e+00
1.820000e-06	-1.452154e-08	-8.847532e-11	-1.165310e-01	-5.174214e+00
1.830000e-06	-7.188094e-09	-7.475517e-11	-5.768226e-02	-4.549719e+00
1.840000e-06	1.373797e-10	-6.420240e-11	1.102430e-03	-3.925987e+00
1.850000e-06	7.469325e-09	-5.564598e-11	5.993905e-02	-3.301630e+00
1.860000e-06	1.480855e-08	-4.868262e-11	1.188341e-01	-2.675914e+00
1.870000e-06	2.214592e-08	-4.284486e-11	1.777142e-01	-2.048754e+00
1.880000e-06	2.948811e-08	-3.637160e-11	2.366331e-01	-1.420580e+00
1.890000e-06	3.683470e-08	-2.806140e-11	2.955872e-01	-7.920894e-01
1.900000e-06	4.417691e-08	-1.777014e-11	3.545062e-01	-1.639396e-01
1.910000e-06	5.151613e-08	-4.909431e-12	4.134012e-01	4.635737e-01
1.920000e-06	5.884716e-08	6.944335e-12	4.722305e-01	1.090790e+00
1.930000e-06	6.617793e-08	1.504560e-11	5.310576e-01	1.718855e+00
1.940000e-06	7.351147e-08	2.083883e-11	5.899070e-01	2.349736e+00
1.950000e-06	8.083999e-08	2.774151e-11	6.487162e-01	2.986091e+00
1.960000e-06	8.815889e-08	3.694090e-11	7.074481e-01	3.630960e+00
1.970000e-06	9.546079e-08	4.685020e-11	7.660436e-01	4.287354e+00
1.980000e-06	1.027471e-07	5.611219e-11	8.245137e-01	4.957773e+00
1.990000e-06	1.100260e-07	6.512802e-11	8.829250e-01	5.643736e+00
2.000000e-06	1.172886e-07	7.380950e-11	9.412055e-01	6.345409e+00
2.010000e-06	1.245243e-07	8.273803e-11	9.992694e-01	7.061382e+00
2.020000e-06	1.317733e-07	9.188520e-11	1.057441e+00	7.788661e+00
2.030000e-06	1.390145e-07	1.030518e-10	1.115549e+00	8.522878e+00
2.040000e-06	1.462139e-07	1.162489e-10	1.173322e+00	9.258720e+00
2.050000e-06	1.534046e-07	1.273308e-10	1.231025e+00	9.990513e+00
2.060000e-06	1.605835e-07	1.341735e-10	1.288634e+00	1.071290e+01
2.070000e-06	1.677610e-07	1.400707e-10	1.346231e+00	1.142151e+01
2.080000e-06	1.749349e-07	1.489218e-10	1.403799e+00	1.211351e+01
2.090000e-06	1.820656e-07	1.605144e-10	1.461021e+00	1.278800e+01
2.100000e-06	1.891691e-07	1.731369e-10	1.518024e+00	1.344612e+01
2.110000e-06	1.962768e-07	1.830626e-10	1.575062e+00	1.409095e+01
2.120000e-06	2.033645e-07	1.920849e-10	1.631938e+00	1.472705e+01
2.130000e-06	2.103981e-07	2.011263e-10	1.688380e+00	1.535986e+01
2.140000e-06	2.173970e-07	2.076069e-10	1.744545e+00	1.599499e+01
2.150000e-06	2.243742e-07	2.123240e-10	1.800534e+00	1.663743e+01
2.160000e-06	2.313111e-07	2.210226e-10	1.856200e+00	1.729090e+01
2.170000e-06	2.382131e-07	2.348341e-10	1.911587e+00	1.795733e+01
2.180000e-06	2.450832e-07	2.492729e-10	1.966717e+00	1.863667e+01
2.190000e-06	2.519170e-07	2.604062e-10	2.021557e+00	1.932689e+01
2.200000e-06	2.587180e-07	2.685431e-10	2.076133e+00	2.002435e+01
2.210000e-06	2.654879e-07	2.768175e-10	2.130459e+00	2.072432e+01
2.220000e-06	2.722279e-07	2.849130e-10	2.184546e+00	2.142173e+01
2.230000e-06	2.789502e-07	2.929773e-10	2.238490e+00	2.211186e+01
2.240000e-06	2.856593e-07	3.020938e-10	2.292328e+00	2.279103e+01
2.250000e-06	2.923604e-07	3.132540e-10	2.346103e+00	2.345714e+01
2.260000e-06	2.990545e-07	3.263472e-10	2.399821e+00	2.410987e+01
2.270000e-06	3.057287e-07	3.376484e-10	2.453379e+00	2.475074e+01
2.280000e-06	3.123788e-07	3.463285e-10	2.506744e+00	2.538277e+01
2.290000e-06	3.190006e-07	3.550668e-10	2.559882e+00	2.601004e+01
2.300000e-06	3.256124e-07	3.654760e-10	2.612940e+00	2.663702e+01
2.310000e-06	3.322240e-07	3.787691e-10	2.665996e+00	2.726787e+01
2.320000e-06	3.388254e-07	3.926401e-10	2.718970e+00	2.790589e+01
2.330000e-06	3.454202e-07	4.062143e-10	2.771891e+00	2.855301e+01
2.340000e-06	3.520087e-07	4.204382e-10	2.824762e+00	2.920954e+01
2.350000e-06	3.585720e-07	4.316132e-10	2.877430e+00	2.987423e+01
2.360000e-06	3.651163e-07	4.390790e-10	2.929947e+00	3.054449e+01
2.370000e-06	3.716487e-07	4.460394e-10	2.982367e+00	3.121683e+01
2.380000e-06	3.781558e-07	4.540578e-10	3.034585e+00	3.188745e+01
2.390000e-06	3.846267e-07	4.650904e-10	3.086511e+00	3.255284e+01
2.400000e-06	3.910638e-07	4.776357e-10	3.138167e+00	3.321030e+01
2.410000e-06	3.974681e-07	4.901193e-10	3.189560e+00	3.385829e+01
2.420000e-06	4.038338e-07	5.043143e-10	3.240643e+00	3.449669e+01
2.430000e-06	4.101594e-07	5.180046e-10	3.291403e+00	3.512664e+01
2.440000e-06	4.164610e-07	5.289791e-10	3.341972e+00	3.575039e+01
2.450000e-06	4.227455e-07	5.382884e-10	3.392403e+00	3.637082e+01
2.460000e-06	4.289925e-07	5.462727e-10	3.442534e+00	3.699094e+01
2.470000e-06	4.352138e-07	5.542605e-10	3.492457e+00	3.761341e+01
2.480000e-06	4.414254e-07	5.635744e-10	3.542304e+00	3.824008e+01
2.490000e-06	4.476121e-07	5.742699e-10	3.591950e+00	3.887171e+01
2.500000e-06	4.537704e-07	5.850739e-10	3.641368e+00	3.950790e+01
2.510000e-06	4.599022e-07	5.964442e-10	3.690574e+00	4.014716e+01
2.520000e-06	4.659941e-07	6.081001e-10	3.739460e+00	4.078723e+01
2.530000e-06	4.720479e-07	6.187683e-10	3.788040e+00	4.142541e+01
2.540000e-06	4.780826e-07	6.269447e-10	3.836467e+00	4.205906e+01
2.550000e-06	4.840912e-07	6.332427e-10	3.884684e+00	4.268601e+01
2.560000e-06	4.900404e-07	6.402755e-10	3.932424e+00	4.330488e+01
2.570000e-06	4.959435e-07	6.488101e-10	3.979795e+00	4.391526e+01
2.580000e-06	5.018228e-07	6.587241e-10	4.026974e+00	4.451770e+01
2.590000e-06	5.076777e-07	6.689656e-10	4.073958e+00	4.511356e+01
2.600000e-06	5.135169e-07	6.793700e-10	4.120816e+00	4.570473e+01
2.610000e-06	5.193423e-07	6.901017e-10	4.167563e+00	4.629321e+01
2.620000e-06	5.251464e-07	7.008657e-10	4.214139e+00	4.688074e+01
2.630000e-06	5.309265e-07	7.107441e-10	4.260523e+00	4.746847e+01
2.640000e-06	5.366843e-07	7.199937e-10	4.306727e+00	4.805673e+01
2.650000e-06	5.424234e-07	7.282907e-10	4.352782e+00	4.864499e+01
2.660000e-06	5.481272e-07	7.365330e-10	4.398553e+00	4.923194e+01
2.670000e-06	5.537740e-07	7.441661e-10	4.443867e+00	4.981570e+01
2.680000e-06	5.593765e-07	7.516470e-10	4.488825e+00	5.039422e+01
2.690000e-06	5.649119e-07	7.600597e-10	4.533245e+00	5.096563e+01
2.700000e-06	5.703713e-07	7.686760e-10	4.577055e+00	5.152856e+01
2.710000e-06	5.757634e-07	7.778873e-10	4.620325e+00	5.208246e+01
2.720000e-06	5.810864e-07	7.858999e-10	4.663040e+00	5.262768e+01
2.730000e-06	5.863498e-07	7.946170e-10	4.705278e+00	5.316548e+01
2.740000e-06	5.915514e-07	8.036456e-10	4.747019e+00	5.369780e+01
2.750000e-06	5.966879e-07	8.094277e-10	4.788238e+00	5.422700e+01
2.760000e-06	6.017724e-07	8.152150e-10	4.829039e+00	5.475545e+01
2.770000e-06	6.068205e-07	8.249552e-10	4.869549e+00	5.528516e+01
2.780000e-06	6.118389e-07	8.361761e-10	4.909820e+00	5.581743e+01
2.790000e-06	6.168313e-07	8.456121e-10	4.949882e+00	5.635262e+01
2.800000e-06	6.217881e-07	8.549821e-10	4.989659e+00	5.689012e+01
2.810000e-06	6.267133e-07	8.659277e-10	5.029183e+00	5.742836e+01
2.820000e-06	6.316006e-07	8.782118e-10	5.068401e+00	5.796507e+01
2.830000e-06	6.364272e-07	8.888308e-10	5.107133e+00	5.849759e+01
2.840000e-06	6.412069e-07	8.939938e-10	5.145489e+00	5.902323e+01
2.850000e-06	6.459532e-07	8.964960e-10	5.183576e+00	5.953970e+01
2.860000e-06	6.506589e-07	9.012348e-10	5.221339e+00	6.004532e+01
2.870000e-06	6.553234e-07	9.100302e-10	5.258770e+00	6.053928e+01
2.880000e-06	6.599512e-07	9.201737e-10	5.295906e+00	6.102168e+01
2.890000e-06	6.645465e-07	9.279074e-10	5.332782e+00	6.149343e+01
2.900000e-06	6.690886e-07	9.356345e-10	5.369231e+00	6.195612e+01
2.910000e-06	6.735778e-07	9.463165e-10	5.405255e+00	6.241167e+01
