# Temperatura_=_20.0
# Concentracion g/m^3_=_10000.0
# C_Vs_to_Am_M_A/Vsm_=_65563218390.804596
# pendiente_HvsI_1/m_=_3716.3
# ordenada_HvsI_A/m_=_1297.0
# frecuencia_Hz_=_135114.943842903

Tiempo_(s)	Campo_(V.s)	Magnetizacion_(V.s)	Campo_(kA/m)	Magnetizacion_(A/m)
0.000000e+00	-8.534696e-07	-1.287067e-09	-6.852791e+00	-8.308734e+01
1.000000e-08	-8.534479e-07	-1.279759e-09	-6.852616e+00	-8.307377e+01
2.000000e-08	-8.533831e-07	-1.255610e-09	-6.852096e+00	-8.306112e+01
3.000000e-08	-8.532750e-07	-1.230541e-09	-6.851228e+00	-8.305085e+01
4.000000e-08	-8.531115e-07	-1.241437e-09	-6.849915e+00	-8.304365e+01
5.000000e-08	-8.528766e-07	-1.273507e-09	-6.848030e+00	-8.303950e+01
6.000000e-08	-8.525827e-07	-1.306775e-09	-6.845670e+00	-8.303779e+01
7.000000e-08	-8.522330e-07	-1.328360e-09	-6.842862e+00	-8.303743e+01
8.000000e-08	-8.518367e-07	-1.312407e-09	-6.839680e+00	-8.303699e+01
9.000000e-08	-8.513908e-07	-1.287621e-09	-6.836099e+00	-8.303484e+01
1.000000e-07	-8.508795e-07	-1.254462e-09	-6.831994e+00	-8.302917e+01
1.100000e-07	-8.503053e-07	-1.223372e-09	-6.827384e+00	-8.301812e+01
1.200000e-07	-8.496497e-07	-1.240992e-09	-6.822119e+00	-8.299981e+01
1.300000e-07	-8.488816e-07	-1.283190e-09	-6.815952e+00	-8.297242e+01
1.400000e-07	-8.479899e-07	-1.298788e-09	-6.808793e+00	-8.293423e+01
1.500000e-07	-8.470116e-07	-1.306712e-09	-6.800938e+00	-8.288379e+01
1.600000e-07	-8.460009e-07	-1.296608e-09	-6.792822e+00	-8.282000e+01
1.700000e-07	-8.449632e-07	-1.268280e-09	-6.784490e+00	-8.274231e+01
1.800000e-07	-8.438918e-07	-1.252308e-09	-6.775887e+00	-8.265081e+01
1.900000e-07	-8.427670e-07	-1.263218e-09	-6.766856e+00	-8.254639e+01
2.000000e-07	-8.415840e-07	-1.270540e-09	-6.757357e+00	-8.243073e+01
2.100000e-07	-8.403473e-07	-1.272352e-09	-6.747428e+00	-8.230628e+01
2.200000e-07	-8.390441e-07	-1.274261e-09	-6.736963e+00	-8.217608e+01
2.300000e-07	-8.376819e-07	-1.277714e-09	-6.726026e+00	-8.204353e+01
2.400000e-07	-8.362625e-07	-1.267853e-09	-6.714629e+00	-8.191206e+01
2.500000e-07	-8.347729e-07	-1.247902e-09	-6.702669e+00	-8.178475e+01
2.600000e-07	-8.332157e-07	-1.242847e-09	-6.690166e+00	-8.166396e+01
2.700000e-07	-8.316137e-07	-1.254398e-09	-6.677302e+00	-8.155105e+01
2.800000e-07	-8.299651e-07	-1.264431e-09	-6.664066e+00	-8.144613e+01
2.900000e-07	-8.282603e-07	-1.262502e-09	-6.650377e+00	-8.134808e+01
3.000000e-07	-8.265164e-07	-1.257625e-09	-6.636375e+00	-8.125458e+01
3.100000e-07	-8.247262e-07	-1.247408e-09	-6.622000e+00	-8.116240e+01
3.200000e-07	-8.228883e-07	-1.242130e-09	-6.607243e+00	-8.106780e+01
3.300000e-07	-8.210030e-07	-1.241611e-09	-6.592106e+00	-8.096697e+01
3.400000e-07	-8.190374e-07	-1.246434e-09	-6.576323e+00	-8.085647e+01
3.500000e-07	-8.170014e-07	-1.245960e-09	-6.559975e+00	-8.073368e+01
3.600000e-07	-8.148930e-07	-1.244304e-09	-6.543046e+00	-8.059706e+01
3.700000e-07	-8.127018e-07	-1.239314e-09	-6.525453e+00	-8.044629e+01
3.800000e-07	-8.104258e-07	-1.235675e-09	-6.507178e+00	-8.028218e+01
3.900000e-07	-8.080633e-07	-1.233300e-09	-6.488209e+00	-8.010644e+01
4.000000e-07	-8.056125e-07	-1.232886e-09	-6.468531e+00	-7.992130e+01
4.100000e-07	-8.030847e-07	-1.229233e-09	-6.448234e+00	-7.972902e+01
4.200000e-07	-8.004877e-07	-1.222643e-09	-6.427381e+00	-7.953145e+01
4.300000e-07	-7.978386e-07	-1.214088e-09	-6.406111e+00	-7.932957e+01
4.400000e-07	-7.951395e-07	-1.205620e-09	-6.384439e+00	-7.912325e+01
4.500000e-07	-7.923615e-07	-1.201844e-09	-6.362133e+00	-7.891115e+01
4.600000e-07	-7.895227e-07	-1.200846e-09	-6.339340e+00	-7.869086e+01
4.700000e-07	-7.866314e-07	-1.203647e-09	-6.316124e+00	-7.845915e+01
4.800000e-07	-7.836975e-07	-1.204312e-09	-6.292568e+00	-7.821251e+01
4.900000e-07	-7.807207e-07	-1.200381e-09	-6.268666e+00	-7.794764e+01
5.000000e-07	-7.776840e-07	-1.187834e-09	-6.244283e+00	-7.766201e+01
5.100000e-07	-7.745760e-07	-1.174758e-09	-6.219328e+00	-7.735431e+01
5.200000e-07	-7.714065e-07	-1.165202e-09	-6.193879e+00	-7.702476e+01
5.300000e-07	-7.681445e-07	-1.165145e-09	-6.167687e+00	-7.667519e+01
5.400000e-07	-7.647912e-07	-1.168064e-09	-6.140762e+00	-7.630890e+01
5.500000e-07	-7.613896e-07	-1.169617e-09	-6.113450e+00	-7.593032e+01
5.600000e-07	-7.579324e-07	-1.164276e-09	-6.085691e+00	-7.554446e+01
5.700000e-07	-7.544085e-07	-1.152741e-09	-6.057397e+00	-7.515632e+01
5.800000e-07	-7.508207e-07	-1.139714e-09	-6.028589e+00	-7.477030e+01
5.900000e-07	-7.471810e-07	-1.129908e-09	-5.999365e+00	-7.438960e+01
6.000000e-07	-7.434947e-07	-1.124208e-09	-5.969766e+00	-7.401593e+01
6.100000e-07	-7.397561e-07	-1.121574e-09	-5.939747e+00	-7.364931e+01
6.200000e-07	-7.359615e-07	-1.122099e-09	-5.909279e+00	-7.328819e+01
6.300000e-07	-7.321109e-07	-1.119625e-09	-5.878362e+00	-7.292973e+01
6.400000e-07	-7.282055e-07	-1.112343e-09	-5.847003e+00	-7.257033e+01
6.500000e-07	-7.242596e-07	-1.101052e-09	-5.815321e+00	-7.220613e+01
6.600000e-07	-7.202719e-07	-1.091209e-09	-5.783303e+00	-7.183368e+01
6.700000e-07	-7.162270e-07	-1.084530e-09	-5.750824e+00	-7.145035e+01
6.800000e-07	-7.121286e-07	-1.082098e-09	-5.717917e+00	-7.105477e+01
6.900000e-07	-7.079942e-07	-1.080236e-09	-5.684720e+00	-7.064692e+01
7.000000e-07	-7.038294e-07	-1.076985e-09	-5.651280e+00	-7.022805e+01
7.100000e-07	-6.996306e-07	-1.070844e-09	-5.617566e+00	-6.980040e+01
7.200000e-07	-6.953929e-07	-1.063493e-09	-5.583540e+00	-6.936677e+01
7.300000e-07	-6.911254e-07	-1.055748e-09	-5.549275e+00	-6.893002e+01
7.400000e-07	-6.868154e-07	-1.049783e-09	-5.514669e+00	-6.849250e+01
7.500000e-07	-6.824476e-07	-1.046034e-09	-5.479598e+00	-6.805567e+01
7.600000e-07	-6.780492e-07	-1.041986e-09	-5.444282e+00	-6.761983e+01
7.700000e-07	-6.736166e-07	-1.036237e-09	-5.408691e+00	-6.718405e+01
7.800000e-07	-6.691259e-07	-1.026496e-09	-5.372634e+00	-6.674629e+01
7.900000e-07	-6.645914e-07	-1.015221e-09	-5.336225e+00	-6.630378e+01
8.000000e-07	-6.600086e-07	-1.005267e-09	-5.299428e+00	-6.585345e+01
8.100000e-07	-6.553723e-07	-9.975468e-10	-5.262201e+00	-6.539247e+01
8.200000e-07	-6.507048e-07	-9.915556e-10	-5.224725e+00	-6.491877e+01
8.300000e-07	-6.460017e-07	-9.875310e-10	-5.186962e+00	-6.443140e+01
8.400000e-07	-6.412436e-07	-9.832953e-10	-5.148758e+00	-6.393080e+01
8.500000e-07	-6.364308e-07	-9.773326e-10	-5.110114e+00	-6.341881e+01
8.600000e-07	-6.315662e-07	-9.674315e-10	-5.071055e+00	-6.289849e+01
8.700000e-07	-6.266565e-07	-9.569565e-10	-5.031633e+00	-6.237377e+01
8.800000e-07	-6.217127e-07	-9.486267e-10	-4.991938e+00	-6.184895e+01
8.900000e-07	-6.167353e-07	-9.417210e-10	-4.951972e+00	-6.132819e+01
9.000000e-07	-6.117330e-07	-9.349984e-10	-4.911808e+00	-6.081495e+01
9.100000e-07	-6.067016e-07	-9.295827e-10	-4.871409e+00	-6.031165e+01
9.200000e-07	-6.016391e-07	-9.251602e-10	-4.830760e+00	-5.981937e+01
9.300000e-07	-5.965346e-07	-9.189803e-10	-4.789774e+00	-5.933784e+01
9.400000e-07	-5.913798e-07	-9.107895e-10	-4.748385e+00	-5.886557e+01
9.500000e-07	-5.861582e-07	-9.019582e-10	-4.706459e+00	-5.840015e+01
9.600000e-07	-5.808656e-07	-8.950740e-10	-4.663962e+00	-5.793870e+01
9.700000e-07	-5.755224e-07	-8.878471e-10	-4.621061e+00	-5.747831e+01
9.800000e-07	-5.701148e-07	-8.808020e-10	-4.577641e+00	-5.701646e+01
9.900000e-07	-5.646228e-07	-8.737269e-10	-4.533544e+00	-5.655138e+01
1.000000e-06	-5.590581e-07	-8.671145e-10	-4.488863e+00	-5.608223e+01
1.010000e-06	-5.534338e-07	-8.608194e-10	-4.443703e+00	-5.560908e+01
1.020000e-06	-5.477595e-07	-8.534206e-10	-4.398143e+00	-5.513277e+01
1.030000e-06	-5.420445e-07	-8.455390e-10	-4.352255e+00	-5.465462e+01
1.040000e-06	-5.363027e-07	-8.379824e-10	-4.306152e+00	-5.417603e+01
1.050000e-06	-5.305470e-07	-8.291054e-10	-4.259938e+00	-5.369808e+01
1.060000e-06	-5.247710e-07	-8.195868e-10	-4.213561e+00	-5.322121e+01
1.070000e-06	-5.189721e-07	-8.122909e-10	-4.166999e+00	-5.274496e+01
1.080000e-06	-5.131465e-07	-8.053532e-10	-4.120224e+00	-5.226788e+01
1.090000e-06	-5.072995e-07	-7.976200e-10	-4.073276e+00	-5.178759e+01
1.100000e-06	-5.014243e-07	-7.887779e-10	-4.026102e+00	-5.130108e+01
1.110000e-06	-4.955065e-07	-7.795255e-10	-3.978586e+00	-5.080500e+01
1.120000e-06	-4.895641e-07	-7.733183e-10	-3.930872e+00	-5.029611e+01
1.130000e-06	-4.835891e-07	-7.659514e-10	-3.882898e+00	-4.977176e+01
1.140000e-06	-4.775755e-07	-7.552291e-10	-3.834612e+00	-4.923019e+01
1.150000e-06	-4.715359e-07	-7.459476e-10	-3.786118e+00	-4.867087e+01
1.160000e-06	-4.654472e-07	-7.376967e-10	-3.737230e+00	-4.809456e+01
1.170000e-06	-4.593113e-07	-7.297220e-10	-3.687963e+00	-4.750329e+01
1.180000e-06	-4.531483e-07	-7.197755e-10	-3.638478e+00	-4.690013e+01
1.190000e-06	-4.469777e-07	-7.075014e-10	-3.588933e+00	-4.628887e+01
1.200000e-06	-4.407917e-07	-6.954698e-10	-3.539263e+00	-4.567356e+01
1.210000e-06	-4.345748e-07	-6.865834e-10	-3.489345e+00	-4.505813e+01
1.220000e-06	-4.283361e-07	-6.787382e-10	-3.439253e+00	-4.444595e+01
1.230000e-06	-4.220568e-07	-6.703268e-10	-3.388834e+00	-4.383951e+01
1.240000e-06	-4.157301e-07	-6.619462e-10	-3.338035e+00	-4.324027e+01
1.250000e-06	-4.093762e-07	-6.519341e-10	-3.287017e+00	-4.264852e+01
1.260000e-06	-4.030078e-07	-6.402830e-10	-3.235883e+00	-4.206354e+01
1.270000e-06	-3.966124e-07	-6.295584e-10	-3.184533e+00	-4.148373e+01
1.280000e-06	-3.901866e-07	-6.185373e-10	-3.132938e+00	-4.090692e+01
1.290000e-06	-3.837447e-07	-6.065529e-10	-3.081213e+00	-4.033065e+01
1.300000e-06	-3.772753e-07	-5.957231e-10	-3.029269e+00	-3.975248e+01
1.310000e-06	-3.707756e-07	-5.861505e-10	-2.977080e+00	-3.917024e+01
1.320000e-06	-3.642430e-07	-5.765847e-10	-2.924628e+00	-3.858219e+01
1.330000e-06	-3.576886e-07	-5.671966e-10	-2.872001e+00	-3.798718e+01
1.340000e-06	-3.511286e-07	-5.591349e-10	-2.819328e+00	-3.738459e+01
1.350000e-06	-3.445359e-07	-5.519880e-10	-2.766393e+00	-3.677434e+01
1.360000e-06	-3.379148e-07	-5.448752e-10	-2.713230e+00	-3.615675e+01
1.370000e-06	-3.313003e-07	-5.338436e-10	-2.660120e+00	-3.553242e+01
1.380000e-06	-3.246859e-07	-5.216126e-10	-2.607011e+00	-3.490214e+01
1.390000e-06	-3.180538e-07	-5.134256e-10	-2.553760e+00	-3.426677e+01
1.400000e-06	-3.114020e-07	-5.068515e-10	-2.500350e+00	-3.362715e+01
1.410000e-06	-3.047354e-07	-4.992785e-10	-2.446822e+00	-3.298415e+01
1.420000e-06	-2.980481e-07	-4.919073e-10	-2.393127e+00	-3.233860e+01
1.430000e-06	-2.913288e-07	-4.851352e-10	-2.339176e+00	-3.169136e+01
1.440000e-06	-2.845935e-07	-4.758839e-10	-2.285095e+00	-3.104333e+01
1.450000e-06	-2.778518e-07	-4.628429e-10	-2.230964e+00	-3.039548e+01
1.460000e-06	-2.710947e-07	-4.488791e-10	-2.176709e+00	-2.974885e+01
1.470000e-06	-2.643188e-07	-4.382273e-10	-2.122303e+00	-2.910449e+01
1.480000e-06	-2.575284e-07	-4.301790e-10	-2.067781e+00	-2.846342e+01
1.490000e-06	-2.506989e-07	-4.210465e-10	-2.012945e+00	-2.782650e+01
1.500000e-06	-2.438191e-07	-4.117059e-10	-1.957705e+00	-2.719441e+01
1.510000e-06	-2.369329e-07	-4.052181e-10	-1.902413e+00	-2.656747e+01
1.520000e-06	-2.300215e-07	-3.996962e-10	-1.846919e+00	-2.594562e+01
1.530000e-06	-2.230638e-07	-3.915132e-10	-1.791053e+00	-2.532837e+01
1.540000e-06	-2.160714e-07	-3.806809e-10	-1.734909e+00	-2.471480e+01
1.550000e-06	-2.090408e-07	-3.700212e-10	-1.678458e+00	-2.410361e+01
1.560000e-06	-2.020026e-07	-3.617700e-10	-1.621946e+00	-2.349320e+01
1.570000e-06	-1.949627e-07	-3.545428e-10	-1.565421e+00	-2.288180e+01
1.580000e-06	-1.878924e-07	-3.461629e-10	-1.508650e+00	-2.226756e+01
1.590000e-06	-1.807822e-07	-3.358488e-10	-1.451561e+00	-2.164870e+01
1.600000e-06	-1.736338e-07	-3.255918e-10	-1.394164e+00	-2.102365e+01
1.610000e-06	-1.664604e-07	-3.171587e-10	-1.336566e+00	-2.039108e+01
1.620000e-06	-1.592931e-07	-3.080964e-10	-1.279017e+00	-1.975001e+01
1.630000e-06	-1.521328e-07	-2.958579e-10	-1.221525e+00	-1.909981e+01
1.640000e-06	-1.449379e-07	-2.835401e-10	-1.163755e+00	-1.844023e+01
1.650000e-06	-1.377011e-07	-2.753250e-10	-1.105648e+00	-1.777133e+01
1.660000e-06	-1.304337e-07	-2.680649e-10	-1.047296e+00	-1.709349e+01
1.670000e-06	-1.231533e-07	-2.576595e-10	-9.888391e-01	-1.640732e+01
1.680000e-06	-1.158865e-07	-2.461976e-10	-9.304909e-01	-1.571365e+01
1.690000e-06	-1.086249e-07	-2.353525e-10	-8.721856e-01	-1.501346e+01
1.700000e-06	-1.013449e-07	-2.241481e-10	-8.137322e-01	-1.430783e+01
1.710000e-06	-9.404676e-08	-2.123027e-10	-7.551326e-01	-1.359795e+01
1.720000e-06	-8.675642e-08	-2.008132e-10	-6.965961e-01	-1.288502e+01
1.730000e-06	-7.946107e-08	-1.903196e-10	-6.380193e-01	-1.217029e+01
1.740000e-06	-7.214768e-08	-1.807063e-10	-5.792977e-01	-1.145495e+01
1.750000e-06	-6.481969e-08	-1.709784e-10	-5.204588e-01	-1.074019e+01
1.760000e-06	-5.749289e-08	-1.604899e-10	-4.616295e-01	-1.002708e+01
1.770000e-06	-5.018068e-08	-1.485947e-10	-4.029173e-01	-9.316625e+00
1.780000e-06	-4.285710e-08	-1.372712e-10	-3.441139e-01	-8.609694e+00
1.790000e-06	-3.552454e-08	-1.271470e-10	-2.852383e-01	-7.907029e+00
1.800000e-06	-2.819491e-08	-1.162222e-10	-2.263863e-01	-7.209239e+00
1.810000e-06	-2.086089e-08	-1.056625e-10	-1.674990e-01	-6.516803e+00
1.820000e-06	-1.352158e-08	-9.501728e-11	-1.085692e-01	-5.830068e+00
1.830000e-06	-6.172034e-09	-8.616958e-11	-4.955731e-02	-5.149257e+00
1.840000e-06	1.169420e-09	-7.951432e-11	9.389663e-03	-4.474455e+00
1.850000e-06	8.496836e-09	-7.107489e-11	6.822391e-02	-3.805586e+00
1.860000e-06	1.582438e-08	-6.064001e-11	1.270592e-01	-3.142384e+00
1.870000e-06	2.316202e-08	-5.146344e-11	1.859755e-01	-2.484343e+00
1.880000e-06	3.050237e-08	-4.335038e-11	2.449136e-01	-1.830670e+00
1.890000e-06	3.782368e-08	-3.298369e-11	3.036989e-01	-1.180247e+00
1.900000e-06	4.513783e-08	-2.083913e-11	3.624266e-01	-5.316087e-01
1.910000e-06	5.245444e-08	-9.566302e-12	4.211741e-01	1.170355e-01
1.920000e-06	5.976755e-08	-2.113875e-13	4.798935e-01	7.677402e-01
1.930000e-06	6.708097e-08	9.758474e-12	5.386154e-01	1.422706e+00
1.940000e-06	7.439514e-08	1.962690e-11	5.973433e-01	2.084115e+00
1.950000e-06	8.171461e-08	2.874077e-11	6.561138e-01	2.753926e+00
1.960000e-06	8.904607e-08	3.673060e-11	7.149804e-01	3.433650e+00
1.970000e-06	9.635923e-08	4.418286e-11	7.737002e-01	4.124144e+00
1.980000e-06	1.036455e-07	5.513929e-11	8.322041e-01	4.825430e+00
1.990000e-06	1.109302e-07	6.694491e-11	8.906956e-01	5.536600e+00
2.000000e-06	1.182084e-07	7.627853e-11	9.491342e-01	6.255803e+00
2.010000e-06	1.254706e-07	8.383422e-11	1.007445e+00	6.980350e+00
2.020000e-06	1.327284e-07	9.221173e-11	1.065721e+00	7.706920e+00
2.030000e-06	1.399626e-07	1.032456e-10	1.123806e+00	8.431868e+00
2.040000e-06	1.471729e-07	1.150889e-10	1.181700e+00	9.151590e+00
2.050000e-06	1.543651e-07	1.249705e-10	1.239448e+00	9.862915e+00
2.060000e-06	1.615473e-07	1.340734e-10	1.297117e+00	1.056347e+01
2.070000e-06	1.687352e-07	1.461643e-10	1.354831e+00	1.125195e+01
2.080000e-06	1.759047e-07	1.596205e-10	1.412397e+00	1.192834e+01
2.090000e-06	1.830441e-07	1.706772e-10	1.469722e+00	1.259388e+01
2.100000e-06	1.901560e-07	1.798206e-10	1.526826e+00	1.325096e+01
2.110000e-06	1.972228e-07	1.886598e-10	1.583567e+00	1.390285e+01
2.120000e-06	2.042378e-07	1.966918e-10	1.639893e+00	1.455332e+01
2.130000e-06	2.112497e-07	2.027588e-10	1.696194e+00	1.520614e+01
2.140000e-06	2.182555e-07	2.075498e-10	1.752446e+00	1.586465e+01
2.150000e-06	2.252102e-07	2.136675e-10	1.808288e+00	1.653136e+01
2.160000e-06	2.321210e-07	2.229444e-10	1.863777e+00	1.720761e+01
2.170000e-06	2.390009e-07	2.349276e-10	1.919018e+00	1.789345e+01
2.180000e-06	2.458664e-07	2.460685e-10	1.974143e+00	1.858766e+01
2.190000e-06	2.527194e-07	2.566392e-10	2.029168e+00	1.928792e+01
2.200000e-06	2.595494e-07	2.682199e-10	2.084008e+00	1.999116e+01
2.210000e-06	2.663533e-07	2.769560e-10	2.138639e+00	2.069401e+01
2.220000e-06	2.731304e-07	2.816885e-10	2.193055e+00	2.139320e+01
2.230000e-06	2.798893e-07	2.854971e-10	2.247324e+00	2.208605e+01
2.240000e-06	2.866251e-07	2.920306e-10	2.301408e+00	2.277079e+01
2.250000e-06	2.933167e-07	3.037381e-10	2.355137e+00	2.344675e+01
2.260000e-06	2.999803e-07	3.186723e-10	2.408641e+00	2.411443e+01
2.270000e-06	3.066346e-07	3.324985e-10	2.462071e+00	2.477533e+01
2.280000e-06	3.132703e-07	3.429532e-10	2.515351e+00	2.543170e+01
2.290000e-06	3.198993e-07	3.507865e-10	2.568577e+00	2.608617e+01
2.300000e-06	3.265186e-07	3.577440e-10	2.621726e+00	2.674130e+01
2.310000e-06	3.331213e-07	3.646972e-10	2.674741e+00	2.739923e+01
2.320000e-06	3.397223e-07	3.737209e-10	2.727743e+00	2.806131e+01
2.330000e-06	3.463186e-07	3.872819e-10	2.780707e+00	2.872794e+01
2.340000e-06	3.528916e-07	4.037176e-10	2.833484e+00	2.939853e+01
2.350000e-06	3.594471e-07	4.181449e-10	2.886120e+00	3.007156e+01
2.360000e-06	3.659965e-07	4.289792e-10	2.938708e+00	3.074489e+01
2.370000e-06	3.725361e-07	4.359232e-10	2.991216e+00	3.141605e+01
2.380000e-06	3.790454e-07	4.419089e-10	3.043482e+00	3.208263e+01
2.390000e-06	3.855178e-07	4.500400e-10	3.095450e+00	3.274263e+01
2.400000e-06	3.919690e-07	4.601102e-10	3.147250e+00	3.339476e+01
2.410000e-06	3.983820e-07	4.717452e-10	3.198741e+00	3.403856e+01
2.420000e-06	4.047420e-07	4.850410e-10	3.249808e+00	3.467451e+01
2.430000e-06	4.110675e-07	4.984820e-10	3.300598e+00	3.530384e+01
2.440000e-06	4.173692e-07	5.099447e-10	3.351196e+00	3.592838e+01
2.450000e-06	4.236506e-07	5.196748e-10	3.401631e+00	3.655023e+01
2.460000e-06	4.299078e-07	5.283100e-10	3.451872e+00	3.717147e+01
2.470000e-06	4.361346e-07	5.374107e-10	3.501870e+00	3.779381e+01
2.480000e-06	4.423353e-07	5.456374e-10	3.551657e+00	3.841841e+01
2.490000e-06	4.485117e-07	5.541003e-10	3.601249e+00	3.904569e+01
2.500000e-06	4.546629e-07	5.644696e-10	3.650639e+00	3.967538e+01
2.510000e-06	4.607851e-07	5.749238e-10	3.699797e+00	4.030655e+01
2.520000e-06	4.668814e-07	5.848805e-10	3.748746e+00	4.093784e+01
2.530000e-06	4.729456e-07	5.947369e-10	3.797437e+00	4.156765e+01
2.540000e-06	4.789727e-07	6.041387e-10	3.845830e+00	4.219445e+01
2.550000e-06	4.849689e-07	6.132073e-10	3.893976e+00	4.281694e+01
2.560000e-06	4.909179e-07	6.217682e-10	3.941743e+00	4.343425e+01
2.570000e-06	4.968403e-07	6.311634e-10	3.989296e+00	4.404602e+01
2.580000e-06	5.027380e-07	6.424082e-10	4.036650e+00	4.465236e+01
2.590000e-06	5.085882e-07	6.536443e-10	4.083624e+00	4.525379e+01
2.600000e-06	5.144186e-07	6.648155e-10	4.130438e+00	4.585110e+01
2.610000e-06	5.202400e-07	6.757181e-10	4.177180e+00	4.644517e+01
2.620000e-06	5.260391e-07	6.840734e-10	4.223743e+00	4.703684e+01
2.630000e-06	5.318122e-07	6.908422e-10	4.270097e+00	4.762676e+01
2.640000e-06	5.375589e-07	6.992563e-10	4.316239e+00	4.821537e+01
2.650000e-06	5.432727e-07	7.092309e-10	4.362117e+00	4.880286e+01
2.660000e-06	5.489543e-07	7.189269e-10	4.407736e+00	4.938927e+01
2.670000e-06	5.545858e-07	7.268469e-10	4.452953e+00	4.997456e+01
2.680000e-06	5.601632e-07	7.351486e-10	4.497736e+00	5.055871e+01
2.690000e-06	5.656948e-07	7.447348e-10	4.542151e+00	5.114180e+01
2.700000e-06	5.711447e-07	7.547984e-10	4.585910e+00	5.172404e+01
2.710000e-06	5.765114e-07	7.649837e-10	4.629001e+00	5.230576e+01
2.720000e-06	5.818182e-07	7.740329e-10	4.671611e+00	5.288729e+01
2.730000e-06	5.870698e-07	7.839133e-10	4.713778e+00	5.346888e+01
2.740000e-06	5.922525e-07	7.942474e-10	4.755392e+00	5.405049e+01
2.750000e-06	5.973601e-07	8.016201e-10	4.796403e+00	5.463171e+01
2.760000e-06	6.024306e-07	8.073098e-10	4.837115e+00	5.521157e+01
2.770000e-06	6.074815e-07	8.152408e-10	4.877670e+00	5.578864e+01
2.780000e-06	6.125075e-07	8.267540e-10	4.918026e+00	5.636098e+01
2.790000e-06	6.175022e-07	8.388060e-10	4.958130e+00	5.692638e+01
2.800000e-06	6.224527e-07	8.500826e-10	4.997879e+00	5.748255e+01
2.810000e-06	6.273604e-07	8.617201e-10	5.037285e+00	5.802746e+01
2.820000e-06	6.322320e-07	8.714401e-10	5.076400e+00	5.855956e+01
2.830000e-06	6.370720e-07	8.774949e-10	5.115263e+00	5.907806e+01
2.840000e-06	6.418686e-07	8.804956e-10	5.153776e+00	5.958309e+01
2.850000e-06	6.466103e-07	8.819507e-10	5.191848e+00	6.007569e+01
2.860000e-06	6.513176e-07	8.879363e-10	5.229645e+00	6.055773e+01
2.870000e-06	6.559898e-07	8.980022e-10	5.267160e+00	6.103170e+01
2.880000e-06	6.606190e-07	9.071559e-10	5.304329e+00	6.150032e+01
2.890000e-06	6.651951e-07	9.156447e-10	5.341072e+00	6.196621e+01
2.900000e-06	6.697105e-07	9.252010e-10	5.377328e+00	6.243148e+01
2.910000e-06	6.741865e-07	9.344268e-10	5.413267e+00	6.289744e+01
