# Temperatura_=_20.0
# Concentracion g/m^3_=_10000.0
# C_Vs_to_Am_M_A/Vsm_=_65563218390.804596
# pendiente_HvsI_1/m_=_3716.3
# ordenada_HvsI_A/m_=_1297.0
# frecuencia_Hz_=_135108.4626987277

Tiempo_(s)	Campo_(V.s)	Magnetizacion_(V.s)	Campo_(kA/m)	Magnetizacion_(A/m)
0.000000e+00	-8.541033e-07	-1.323578e-09	-6.855769e+00	-8.275554e+01
1.000000e-08	-8.541380e-07	-1.304078e-09	-6.856048e+00	-8.287450e+01
2.000000e-08	-8.541101e-07	-1.278993e-09	-6.855824e+00	-8.297305e+01
3.000000e-08	-8.540259e-07	-1.257913e-09	-6.855149e+00	-8.304694e+01
4.000000e-08	-8.538774e-07	-1.252226e-09	-6.853956e+00	-8.309406e+01
5.000000e-08	-8.536279e-07	-1.293702e-09	-6.851953e+00	-8.311496e+01
6.000000e-08	-8.533207e-07	-1.333641e-09	-6.849488e+00	-8.311285e+01
7.000000e-08	-8.529876e-07	-1.381014e-09	-6.846814e+00	-8.309333e+01
8.000000e-08	-8.525933e-07	-1.353839e-09	-6.843649e+00	-8.306366e+01
9.000000e-08	-8.521585e-07	-1.307651e-09	-6.840159e+00	-8.303180e+01
1.000000e-07	-8.517158e-07	-1.270978e-09	-6.836606e+00	-8.300530e+01
1.100000e-07	-8.512029e-07	-1.247666e-09	-6.832489e+00	-8.299016e+01
1.200000e-07	-8.505401e-07	-1.259629e-09	-6.827168e+00	-8.298991e+01
1.300000e-07	-8.497546e-07	-1.306613e-09	-6.820863e+00	-8.300502e+01
1.400000e-07	-8.488834e-07	-1.328606e-09	-6.813870e+00	-8.303271e+01
1.500000e-07	-8.479433e-07	-1.332320e-09	-6.806324e+00	-8.306728e+01
1.600000e-07	-8.469411e-07	-1.326810e-09	-6.798280e+00	-8.310081e+01
1.700000e-07	-8.458937e-07	-1.314796e-09	-6.789873e+00	-8.312429e+01
1.800000e-07	-8.448184e-07	-1.292505e-09	-6.781241e+00	-8.312880e+01
1.900000e-07	-8.436960e-07	-1.280038e-09	-6.772232e+00	-8.310686e+01
2.000000e-07	-8.424956e-07	-1.287191e-09	-6.762597e+00	-8.305344e+01
2.100000e-07	-8.412296e-07	-1.307221e-09	-6.752434e+00	-8.296672e+01
2.200000e-07	-8.399150e-07	-1.314260e-09	-6.741882e+00	-8.284837e+01
2.300000e-07	-8.385526e-07	-1.304483e-09	-6.730947e+00	-8.270330e+01
2.400000e-07	-8.371360e-07	-1.292424e-09	-6.719576e+00	-8.253896e+01
2.500000e-07	-8.356548e-07	-1.273236e-09	-6.707686e+00	-8.236430e+01
2.600000e-07	-8.341273e-07	-1.273354e-09	-6.695425e+00	-8.218851e+01
2.700000e-07	-8.325476e-07	-1.276197e-09	-6.682745e+00	-8.201969e+01
2.800000e-07	-8.309015e-07	-1.291458e-09	-6.669532e+00	-8.186375e+01
2.900000e-07	-8.292042e-07	-1.283286e-09	-6.655908e+00	-8.172366e+01
3.000000e-07	-8.274588e-07	-1.278110e-09	-6.641898e+00	-8.159908e+01
3.100000e-07	-8.256588e-07	-1.261801e-09	-6.627450e+00	-8.148653e+01
3.200000e-07	-8.238103e-07	-1.256179e-09	-6.612612e+00	-8.137998e+01
3.300000e-07	-8.219102e-07	-1.250382e-09	-6.597360e+00	-8.127183e+01
3.400000e-07	-8.199648e-07	-1.255148e-09	-6.581744e+00	-8.115404e+01
3.500000e-07	-8.179462e-07	-1.256620e-09	-6.565542e+00	-8.101932e+01
3.600000e-07	-8.158316e-07	-1.252353e-09	-6.548568e+00	-8.086215e+01
3.700000e-07	-8.136365e-07	-1.245240e-09	-6.530948e+00	-8.067946e+01
3.800000e-07	-8.113696e-07	-1.237184e-09	-6.512752e+00	-8.047091e+01
3.900000e-07	-8.090155e-07	-1.232668e-09	-6.493856e+00	-8.023878e+01
4.000000e-07	-8.065761e-07	-1.226057e-09	-6.474275e+00	-7.998738e+01
4.100000e-07	-8.040681e-07	-1.225072e-09	-6.454144e+00	-7.972224e+01
4.200000e-07	-8.014954e-07	-1.216823e-09	-6.433493e+00	-7.944910e+01
4.300000e-07	-7.988632e-07	-1.214321e-09	-6.412365e+00	-7.917294e+01
4.400000e-07	-7.961703e-07	-1.204139e-09	-6.390749e+00	-7.889721e+01
4.500000e-07	-7.934204e-07	-1.201660e-09	-6.368676e+00	-7.862333e+01
4.600000e-07	-7.906040e-07	-1.197961e-09	-6.346070e+00	-7.835058e+01
4.700000e-07	-7.877241e-07	-1.202045e-09	-6.322953e+00	-7.807641e+01
4.800000e-07	-7.847918e-07	-1.196621e-09	-6.299416e+00	-7.779701e+01
4.900000e-07	-7.818071e-07	-1.189844e-09	-6.275458e+00	-7.750817e+01
5.000000e-07	-7.787615e-07	-1.177243e-09	-6.251012e+00	-7.720613e+01
5.100000e-07	-7.756410e-07	-1.169405e-09	-6.225964e+00	-7.688843e+01
5.200000e-07	-7.724547e-07	-1.162526e-09	-6.200387e+00	-7.655446e+01
5.300000e-07	-7.691856e-07	-1.160345e-09	-6.174147e+00	-7.620574e+01
5.400000e-07	-7.658446e-07	-1.160079e-09	-6.147329e+00	-7.584573e+01
5.500000e-07	-7.624577e-07	-1.161173e-09	-6.120143e+00	-7.547944e+01
5.600000e-07	-7.589910e-07	-1.158358e-09	-6.092316e+00	-7.511260e+01
5.700000e-07	-7.554524e-07	-1.149625e-09	-6.063912e+00	-7.475081e+01
5.800000e-07	-7.518722e-07	-1.140788e-09	-6.035175e+00	-7.439860e+01
5.900000e-07	-7.482483e-07	-1.134412e-09	-6.006086e+00	-7.405870e+01
6.000000e-07	-7.445790e-07	-1.133270e-09	-5.976633e+00	-7.373153e+01
6.100000e-07	-7.408565e-07	-1.130466e-09	-5.946753e+00	-7.341513e+01
6.200000e-07	-7.370828e-07	-1.126625e-09	-5.916462e+00	-7.310538e+01
6.300000e-07	-7.332649e-07	-1.119925e-09	-5.885817e+00	-7.279664e+01
6.400000e-07	-7.293941e-07	-1.115484e-09	-5.854746e+00	-7.248256e+01
6.500000e-07	-7.254654e-07	-1.108962e-09	-5.823211e+00	-7.215709e+01
6.600000e-07	-7.214810e-07	-1.103792e-09	-5.791229e+00	-7.181535e+01
6.700000e-07	-7.174560e-07	-1.100279e-09	-5.758921e+00	-7.145441e+01
6.800000e-07	-7.133871e-07	-1.098589e-09	-5.726260e+00	-7.107369e+01
6.900000e-07	-7.092775e-07	-1.093363e-09	-5.693273e+00	-7.067505e+01
7.000000e-07	-7.051346e-07	-1.085742e-09	-5.660018e+00	-7.026244e+01
7.100000e-07	-7.009497e-07	-1.074315e-09	-5.626427e+00	-6.984130e+01
7.200000e-07	-6.967205e-07	-1.063958e-09	-5.592480e+00	-6.941767e+01
7.300000e-07	-6.924463e-07	-1.056280e-09	-5.558171e+00	-6.899729e+01
7.400000e-07	-6.881242e-07	-1.051191e-09	-5.523479e+00	-6.858467e+01
7.500000e-07	-6.837757e-07	-1.047554e-09	-5.488573e+00	-6.818244e+01
7.600000e-07	-6.794022e-07	-1.043905e-09	-5.453468e+00	-6.779097e+01
7.700000e-07	-6.749741e-07	-1.039194e-09	-5.417924e+00	-6.740832e+01
7.800000e-07	-6.704922e-07	-1.030766e-09	-5.381949e+00	-6.703057e+01
7.900000e-07	-6.659632e-07	-1.019886e-09	-5.345595e+00	-6.665244e+01
8.000000e-07	-6.613891e-07	-1.009975e-09	-5.308880e+00	-6.626808e+01
8.100000e-07	-6.567629e-07	-1.002999e-09	-5.271746e+00	-6.587195e+01
8.200000e-07	-6.520923e-07	-9.967342e-10	-5.234255e+00	-6.545959e+01
8.300000e-07	-6.473791e-07	-9.887579e-10	-5.196423e+00	-6.502822e+01
8.400000e-07	-6.426243e-07	-9.796318e-10	-5.158257e+00	-6.457710e+01
8.500000e-07	-6.378239e-07	-9.719114e-10	-5.119725e+00	-6.410750e+01
8.600000e-07	-6.329624e-07	-9.634382e-10	-5.080702e+00	-6.362247e+01
8.700000e-07	-6.280506e-07	-9.535932e-10	-5.041276e+00	-6.312627e+01
8.800000e-07	-6.230943e-07	-9.436141e-10	-5.001492e+00	-6.262374e+01
8.900000e-07	-6.181038e-07	-9.355250e-10	-4.961434e+00	-6.211961e+01
9.000000e-07	-6.130947e-07	-9.286672e-10	-4.921227e+00	-6.161783e+01
9.100000e-07	-6.080563e-07	-9.212085e-10	-4.880784e+00	-6.112117e+01
9.200000e-07	-6.029818e-07	-9.130916e-10	-4.840052e+00	-6.063097e+01
9.300000e-07	-5.978769e-07	-9.041218e-10	-4.799076e+00	-6.014717e+01
9.400000e-07	-5.927419e-07	-8.954254e-10	-4.757857e+00	-5.966853e+01
9.500000e-07	-5.875501e-07	-8.879322e-10	-4.716184e+00	-5.919304e+01
9.600000e-07	-5.822842e-07	-8.807229e-10	-4.673915e+00	-5.871838e+01
9.700000e-07	-5.769545e-07	-8.719118e-10	-4.631134e+00	-5.824237e+01
9.800000e-07	-5.715390e-07	-8.632826e-10	-4.587665e+00	-5.776335e+01
9.900000e-07	-5.660480e-07	-8.553075e-10	-4.543590e+00	-5.728037e+01
1.000000e-06	-5.605096e-07	-8.455569e-10	-4.499133e+00	-5.679318e+01
1.010000e-06	-5.549197e-07	-8.347805e-10	-4.454264e+00	-5.630216e+01
1.020000e-06	-5.492666e-07	-8.247864e-10	-4.408888e+00	-5.580797e+01
1.030000e-06	-5.435648e-07	-8.177887e-10	-4.363120e+00	-5.531128e+01
1.040000e-06	-5.378329e-07	-8.122521e-10	-4.317111e+00	-5.481238e+01
1.050000e-06	-5.320677e-07	-8.062895e-10	-4.270835e+00	-5.431100e+01
1.060000e-06	-5.262750e-07	-7.996613e-10	-4.224337e+00	-5.380617e+01
1.070000e-06	-5.204660e-07	-7.915571e-10	-4.177709e+00	-5.329626e+01
1.080000e-06	-5.146436e-07	-7.811714e-10	-4.130973e+00	-5.277925e+01
1.090000e-06	-5.087992e-07	-7.705173e-10	-4.084061e+00	-5.225297e+01
1.100000e-06	-5.029246e-07	-7.640375e-10	-4.036907e+00	-5.171555e+01
1.110000e-06	-4.970156e-07	-7.573534e-10	-3.989476e+00	-5.116570e+01
1.120000e-06	-4.910808e-07	-7.493439e-10	-3.941838e+00	-5.060306e+01
1.130000e-06	-4.851131e-07	-7.401212e-10	-3.893936e+00	-5.002822e+01
1.140000e-06	-4.790971e-07	-7.306922e-10	-3.845647e+00	-4.944276e+01
1.150000e-06	-4.730443e-07	-7.221431e-10	-3.797061e+00	-4.884895e+01
1.160000e-06	-4.669498e-07	-7.117352e-10	-3.748142e+00	-4.824944e+01
1.170000e-06	-4.608155e-07	-7.035422e-10	-3.698902e+00	-4.764682e+01
1.180000e-06	-4.546723e-07	-6.969202e-10	-3.649592e+00	-4.704319e+01
1.190000e-06	-4.485113e-07	-6.904608e-10	-3.600138e+00	-4.643981e+01
1.200000e-06	-4.423167e-07	-6.812456e-10	-3.550415e+00	-4.583695e+01
1.210000e-06	-4.360960e-07	-6.717893e-10	-3.500483e+00	-4.523384e+01
1.220000e-06	-4.298408e-07	-6.634109e-10	-3.450273e+00	-4.462890e+01
1.230000e-06	-4.235572e-07	-6.555878e-10	-3.399836e+00	-4.402010e+01
1.240000e-06	-4.172483e-07	-6.494905e-10	-3.349195e+00	-4.340542e+01
1.250000e-06	-4.109238e-07	-6.427259e-10	-3.298429e+00	-4.278333e+01
1.260000e-06	-4.045803e-07	-6.322607e-10	-3.247511e+00	-4.215326e+01
1.270000e-06	-3.981939e-07	-6.206170e-10	-3.196247e+00	-4.151586e+01
1.280000e-06	-3.917669e-07	-6.114053e-10	-3.144659e+00	-4.087310e+01
1.290000e-06	-3.853093e-07	-6.030170e-10	-3.092825e+00	-4.022812e+01
1.300000e-06	-3.788296e-07	-5.928210e-10	-3.040813e+00	-3.958488e+01
1.310000e-06	-3.723154e-07	-5.830504e-10	-2.988525e+00	-3.894765e+01
1.320000e-06	-3.657693e-07	-5.742715e-10	-2.935980e+00	-3.832038e+01
1.330000e-06	-3.592201e-07	-5.662862e-10	-2.883410e+00	-3.770613e+01
1.340000e-06	-3.526676e-07	-5.589296e-10	-2.830814e+00	-3.710655e+01
1.350000e-06	-3.460921e-07	-5.516232e-10	-2.778034e+00	-3.652160e+01
1.360000e-06	-3.394884e-07	-5.446180e-10	-2.725027e+00	-3.594950e+01
1.370000e-06	-3.328721e-07	-5.362229e-10	-2.671919e+00	-3.538690e+01
1.380000e-06	-3.262488e-07	-5.300736e-10	-2.618755e+00	-3.482933e+01
1.390000e-06	-3.196101e-07	-5.228792e-10	-2.565466e+00	-3.427179e+01
1.400000e-06	-3.129628e-07	-5.144703e-10	-2.512109e+00	-3.370941e+01
1.410000e-06	-3.063107e-07	-5.048461e-10	-2.458714e+00	-3.313811e+01
1.420000e-06	-2.996459e-07	-4.969100e-10	-2.405216e+00	-3.255510e+01
1.430000e-06	-2.929573e-07	-4.908708e-10	-2.351528e+00	-3.195922e+01
1.440000e-06	-2.862352e-07	-4.818230e-10	-2.297571e+00	-3.135099e+01
1.450000e-06	-2.794863e-07	-4.711035e-10	-2.243398e+00	-3.073244e+01
1.460000e-06	-2.727256e-07	-4.608234e-10	-2.189130e+00	-3.010670e+01
1.470000e-06	-2.659414e-07	-4.514336e-10	-2.134675e+00	-2.947743e+01
1.480000e-06	-2.591349e-07	-4.407005e-10	-2.080040e+00	-2.884826e+01
1.490000e-06	-2.523262e-07	-4.303616e-10	-2.025388e+00	-2.822217e+01
1.500000e-06	-2.454958e-07	-4.208393e-10	-1.970561e+00	-2.760106e+01
1.510000e-06	-2.386215e-07	-4.140038e-10	-1.915382e+00	-2.698553e+01
1.520000e-06	-2.317060e-07	-4.079519e-10	-1.859872e+00	-2.637482e+01
1.530000e-06	-2.247462e-07	-4.007049e-10	-1.804007e+00	-2.576704e+01
1.540000e-06	-2.177468e-07	-3.905906e-10	-1.747824e+00	-2.515952e+01
1.550000e-06	-2.107120e-07	-3.783795e-10	-1.691356e+00	-2.454929e+01
1.560000e-06	-2.036704e-07	-3.663747e-10	-1.634834e+00	-2.393360e+01
1.570000e-06	-1.966411e-07	-3.549165e-10	-1.578411e+00	-2.331029e+01
1.580000e-06	-1.895700e-07	-3.449977e-10	-1.521652e+00	-2.267813e+01
1.590000e-06	-1.824409e-07	-3.349921e-10	-1.464428e+00	-2.203691e+01
1.600000e-06	-1.753189e-07	-3.247763e-10	-1.407261e+00	-2.138734e+01
1.610000e-06	-1.682065e-07	-3.152216e-10	-1.350170e+00	-2.073083e+01
1.620000e-06	-1.610763e-07	-3.064779e-10	-1.292937e+00	-2.006909e+01
1.630000e-06	-1.539213e-07	-2.969910e-10	-1.235505e+00	-1.940375e+01
1.640000e-06	-1.467340e-07	-2.861192e-10	-1.177814e+00	-1.873602e+01
1.650000e-06	-1.395211e-07	-2.746475e-10	-1.119916e+00	-1.806639e+01
1.660000e-06	-1.322973e-07	-2.642737e-10	-1.061932e+00	-1.739457e+01
1.670000e-06	-1.250719e-07	-2.544007e-10	-1.003935e+00	-1.671957e+01
1.680000e-06	-1.178118e-07	-2.447610e-10	-9.456592e-01	-1.603997e+01
1.690000e-06	-1.105239e-07	-2.336355e-10	-8.871598e-01	-1.535423e+01
1.700000e-06	-1.032289e-07	-2.219714e-10	-8.286046e-01	-1.466115e+01
1.710000e-06	-9.591517e-08	-2.110097e-10	-7.698979e-01	-1.396022e+01
1.720000e-06	-8.859012e-08	-2.006035e-10	-7.111007e-01	-1.325188e+01
1.730000e-06	-8.128241e-08	-1.903103e-10	-6.524427e-01	-1.253766e+01
1.740000e-06	-7.397606e-08	-1.804028e-10	-5.937956e-01	-1.182008e+01
1.750000e-06	-6.665244e-08	-1.709480e-10	-5.350100e-01	-1.110239e+01
1.760000e-06	-5.932533e-08	-1.608982e-10	-4.761963e-01	-1.038816e+01
1.770000e-06	-5.198392e-08	-1.497520e-10	-4.172678e-01	-9.680834e+00
1.780000e-06	-4.463596e-08	-1.391841e-10	-3.582867e-01	-8.983208e+00
1.790000e-06	-3.730190e-08	-1.317309e-10	-2.994172e-01	-8.297070e+00
1.800000e-06	-2.996763e-08	-1.255548e-10	-2.405461e-01	-7.622956e+00
1.810000e-06	-2.263188e-08	-1.180766e-10	-1.816630e-01	-6.960101e+00
1.820000e-06	-1.530786e-08	-1.085960e-10	-1.228741e-01	-6.306606e+00
1.830000e-06	-7.976617e-09	-9.838206e-11	-6.402721e-02	-5.659755e+00
1.840000e-06	-6.364723e-10	-8.818723e-11	-5.108875e-03	-5.016475e+00
1.850000e-06	6.702671e-09	-7.830882e-11	5.380142e-02	-4.373803e+00
1.860000e-06	1.405322e-08	-7.092979e-11	1.128033e-01	-3.729331e+00
1.870000e-06	2.141745e-08	-6.679946e-11	1.719149e-01	-3.081505e+00
1.880000e-06	2.875742e-08	-6.236381e-11	2.308319e-01	-2.429756e+00
1.890000e-06	3.607266e-08	-5.351953e-11	2.895502e-01	-1.774426e+00
1.900000e-06	4.339583e-08	-4.167815e-11	3.483323e-01	-1.116513e+00
1.910000e-06	5.072946e-08	-2.989413e-11	4.071984e-01	-4.572766e-01
1.920000e-06	5.806244e-08	-1.791706e-11	4.660592e-01	2.022030e-01
1.930000e-06	6.538514e-08	-7.492625e-12	5.248376e-01	8.614442e-01
1.940000e-06	7.270244e-08	3.648886e-13	5.835725e-01	1.520858e+00
1.950000e-06	8.001769e-08	5.607613e-12	6.422910e-01	2.181857e+00
1.960000e-06	8.732857e-08	1.064090e-11	7.009744e-01	2.846751e+00
1.970000e-06	9.462788e-08	1.705817e-11	7.595650e-01	3.518421e+00
1.980000e-06	1.019178e-07	2.578658e-11	8.180803e-01	4.199833e+00
1.990000e-06	1.092027e-07	3.742213e-11	8.765554e-01	4.893461e+00
2.000000e-06	1.164902e-07	4.898151e-11	9.350507e-01	5.600720e+00
2.010000e-06	1.237744e-07	5.875291e-11	9.935204e-01	6.321524e+00
2.020000e-06	1.310235e-07	6.940839e-11	1.051707e+00	7.054047e+00
2.030000e-06	1.382442e-07	8.156947e-11	1.109667e+00	7.794749e+00
2.040000e-06	1.454690e-07	9.283783e-11	1.167660e+00	8.538694e+00
2.050000e-06	1.526861e-07	1.016017e-10	1.225591e+00	9.280112e+00
2.060000e-06	1.598740e-07	1.097059e-10	1.283286e+00	1.001315e+01
2.070000e-06	1.670362e-07	1.191400e-10	1.340776e+00	1.073267e+01
2.080000e-06	1.741842e-07	1.289365e-10	1.398152e+00	1.143504e+01
2.090000e-06	1.813252e-07	1.392596e-10	1.455472e+00	1.211868e+01
2.100000e-06	1.884482e-07	1.502939e-10	1.512648e+00	1.278436e+01
2.110000e-06	1.955438e-07	1.608870e-10	1.569603e+00	1.343518e+01
2.120000e-06	2.026015e-07	1.701135e-10	1.626254e+00	1.407619e+01
2.130000e-06	2.096367e-07	1.788839e-10	1.682725e+00	1.471369e+01
2.140000e-06	2.166576e-07	1.853877e-10	1.739080e+00	1.535432e+01
2.150000e-06	2.236412e-07	1.923024e-10	1.795137e+00	1.600414e+01
2.160000e-06	2.305719e-07	2.031541e-10	1.850769e+00	1.666773e+01
2.170000e-06	2.374624e-07	2.164313e-10	1.906078e+00	1.734750e+01
2.180000e-06	2.443223e-07	2.288616e-10	1.961141e+00	1.804328e+01
2.190000e-06	2.511419e-07	2.400123e-10	2.015881e+00	1.875242e+01
2.200000e-06	2.579385e-07	2.502602e-10	2.070437e+00	1.947006e+01
2.210000e-06	2.647226e-07	2.591745e-10	2.124892e+00	2.018992e+01
2.220000e-06	2.714985e-07	2.681843e-10	2.179281e+00	2.090520e+01
2.230000e-06	2.782508e-07	2.762375e-10	2.233481e+00	2.160957e+01
2.240000e-06	2.849628e-07	2.857669e-10	2.287357e+00	2.229810e+01
2.250000e-06	2.916445e-07	2.994161e-10	2.340990e+00	2.296801e+01
2.260000e-06	2.983145e-07	3.147020e-10	2.394530e+00	2.361904e+01
2.270000e-06	3.049840e-07	3.266646e-10	2.448064e+00	2.425347e+01
2.280000e-06	3.116391e-07	3.339451e-10	2.501484e+00	2.487578e+01
2.290000e-06	3.182691e-07	3.408104e-10	2.554702e+00	2.549197e+01
2.300000e-06	3.248859e-07	3.498963e-10	2.607814e+00	2.610865e+01
2.310000e-06	3.314952e-07	3.622179e-10	2.660867e+00	2.673209e+01
2.320000e-06	3.380969e-07	3.754448e-10	2.713857e+00	2.736732e+01
2.330000e-06	3.446937e-07	3.889430e-10	2.766809e+00	2.801747e+01
2.340000e-06	3.512829e-07	4.038812e-10	2.819699e+00	2.868336e+01
2.350000e-06	3.578607e-07	4.166243e-10	2.872499e+00	2.936350e+01
2.360000e-06	3.644249e-07	4.239518e-10	2.925189e+00	3.005439e+01
2.370000e-06	3.709542e-07	4.288056e-10	2.977598e+00	3.075119e+01
2.380000e-06	3.774398e-07	4.364814e-10	3.029657e+00	3.144847e+01
2.390000e-06	3.838923e-07	4.466151e-10	3.081450e+00	3.214107e+01
2.400000e-06	3.903141e-07	4.577026e-10	3.132998e+00	3.282487e+01
2.410000e-06	3.967153e-07	4.700009e-10	3.184379e+00	3.349735e+01
2.420000e-06	4.030888e-07	4.825944e-10	3.235538e+00	3.415788e+01
2.430000e-06	4.094187e-07	4.939809e-10	3.286348e+00	3.480764e+01
2.440000e-06	4.157128e-07	5.041885e-10	3.336870e+00	3.544931e+01
2.450000e-06	4.219757e-07	5.115360e-10	3.387141e+00	3.608650e+01
2.460000e-06	4.282057e-07	5.185636e-10	3.437148e+00	3.672300e+01
2.470000e-06	4.344174e-07	5.287287e-10	3.487008e+00	3.736215e+01
2.480000e-06	4.406286e-07	5.403079e-10	3.536865e+00	3.800615e+01
2.490000e-06	4.468312e-07	5.523953e-10	3.586653e+00	3.865573e+01
2.500000e-06	4.530089e-07	5.629232e-10	3.636240e+00	3.931003e+01
2.510000e-06	4.591557e-07	5.712548e-10	3.685580e+00	3.996675e+01
2.520000e-06	4.652611e-07	5.788546e-10	3.734587e+00	4.062255e+01
2.530000e-06	4.713279e-07	5.872834e-10	3.783284e+00	4.127369e+01
2.540000e-06	4.773656e-07	5.956777e-10	3.831748e+00	4.191663e+01
2.550000e-06	4.833590e-07	6.031778e-10	3.879857e+00	4.254869e+01
2.560000e-06	4.892998e-07	6.099633e-10	3.927542e+00	4.316848e+01
2.570000e-06	4.952078e-07	6.181121e-10	3.974965e+00	4.377615e+01
2.580000e-06	5.010935e-07	6.289286e-10	4.022209e+00	4.437340e+01
2.590000e-06	5.069507e-07	6.389566e-10	4.069223e+00	4.496314e+01
2.600000e-06	5.127886e-07	6.473020e-10	4.116083e+00	4.554907e+01
2.610000e-06	5.186165e-07	6.564970e-10	4.162863e+00	4.613501e+01
2.620000e-06	5.244330e-07	6.662840e-10	4.209551e+00	4.672431e+01
2.630000e-06	5.302412e-07	6.749622e-10	4.256173e+00	4.731927e+01
2.640000e-06	5.360340e-07	6.834245e-10	4.302671e+00	4.792080e+01
2.650000e-06	5.417927e-07	6.916959e-10	4.348896e+00	4.852821e+01
2.660000e-06	5.475034e-07	6.999406e-10	4.394734e+00	4.913938e+01
2.670000e-06	5.531639e-07	7.084525e-10	4.440170e+00	4.975105e+01
2.680000e-06	5.587766e-07	7.187558e-10	4.485223e+00	5.035934e+01
2.690000e-06	5.643250e-07	7.305169e-10	4.529759e+00	5.096033e+01
2.700000e-06	5.697869e-07	7.409443e-10	4.573601e+00	5.155062e+01
2.710000e-06	5.751774e-07	7.496839e-10	4.616870e+00	5.212782e+01
2.720000e-06	5.804900e-07	7.563944e-10	4.659513e+00	5.269083e+01
2.730000e-06	5.857121e-07	7.632068e-10	4.701430e+00	5.323991e+01
2.740000e-06	5.908804e-07	7.709824e-10	4.742915e+00	5.377655e+01
2.750000e-06	5.960151e-07	7.793200e-10	4.784131e+00	5.430312e+01
2.760000e-06	6.011094e-07	7.887690e-10	4.825022e+00	5.482244e+01
2.770000e-06	6.061680e-07	7.995762e-10	4.865627e+00	5.533725e+01
2.780000e-06	6.111872e-07	8.102778e-10	4.905916e+00	5.584980e+01
2.790000e-06	6.161752e-07	8.202487e-10	4.945954e+00	5.636150e+01
2.800000e-06	6.211332e-07	8.297134e-10	4.985751e+00	5.687272e+01
2.810000e-06	6.260452e-07	8.395270e-10	5.025179e+00	5.738289e+01
2.820000e-06	6.309201e-07	8.504245e-10	5.064309e+00	5.789063e+01
2.830000e-06	6.357670e-07	8.595777e-10	5.103214e+00	5.839412e+01
2.840000e-06	6.405801e-07	8.647645e-10	5.141848e+00	5.889146e+01
2.850000e-06	6.453369e-07	8.675026e-10	5.180031e+00	5.938110e+01
2.860000e-06	6.500326e-07	8.727416e-10	5.217722e+00	5.986213e+01
2.870000e-06	6.546921e-07	8.827565e-10	5.255123e+00	6.033445e+01
2.880000e-06	6.593225e-07	8.943180e-10	5.292291e+00	6.079883e+01
2.890000e-06	6.639166e-07	9.036599e-10	5.329167e+00	6.125679e+01
2.900000e-06	6.684610e-07	9.124374e-10	5.365645e+00	6.171030e+01
