# Temperatura_=_20.0
# Concentracion g/m^3_=_10000.0
# C_Vs_to_Am_M_A/Vsm_=_65563218390.804596
# pendiente_HvsI_1/m_=_3716.3
# ordenada_HvsI_A/m_=_1297.0
# frecuencia_Hz_=_301476.4928880263

Tiempo_(s)	Campo_(V.s)	Magnetizacion_(V.s)	Campo_(kA/m)	Magnetizacion_(A/m)
0.000000e+00	-8.188018e-06	-1.137157e-08	-5.690744e+01	-7.174963e+02
1.000000e-08	-8.185985e-06	-1.137255e-08	-5.689331e+01	-7.160735e+02
2.000000e-08	-8.181186e-06	-1.137454e-08	-5.685995e+01	-7.147740e+02
3.000000e-08	-8.173810e-06	-1.137123e-08	-5.680869e+01	-7.136033e+02
4.000000e-08	-8.163676e-06	-1.136400e-08	-5.673826e+01	-7.125655e+02
5.000000e-08	-8.150611e-06	-1.135504e-08	-5.664745e+01	-7.116633e+02
6.000000e-08	-8.134583e-06	-1.134345e-08	-5.653606e+01	-7.108981e+02
7.000000e-08	-8.115802e-06	-1.133033e-08	-5.640553e+01	-7.102702e+02
8.000000e-08	-8.094609e-06	-1.131745e-08	-5.625824e+01	-7.097784e+02
9.000000e-08	-8.070633e-06	-1.130552e-08	-5.609160e+01	-7.094201e+02
1.000000e-07	-8.043310e-06	-1.130722e-08	-5.590170e+01	-7.091917e+02
1.100000e-07	-8.012819e-06	-1.130214e-08	-5.568979e+01	-7.090880e+02
1.200000e-07	-7.979418e-06	-1.128465e-08	-5.545765e+01	-7.091027e+02
1.300000e-07	-7.943239e-06	-1.126661e-08	-5.520620e+01	-7.092282e+02
1.400000e-07	-7.904676e-06	-1.124857e-08	-5.493818e+01	-7.094558e+02
1.500000e-07	-7.863904e-06	-1.120956e-08	-5.465481e+01	-7.097753e+02
1.600000e-07	-7.820504e-06	-1.117085e-08	-5.435318e+01	-7.101758e+02
1.700000e-07	-7.774191e-06	-1.117199e-08	-5.403130e+01	-7.106448e+02
1.800000e-07	-7.725130e-06	-1.113508e-08	-5.369032e+01	-7.111692e+02
1.900000e-07	-7.673051e-06	-1.111944e-08	-5.332837e+01	-7.117345e+02
2.000000e-07	-7.617984e-06	-1.111345e-08	-5.294565e+01	-7.123254e+02
2.100000e-07	-7.560145e-06	-1.107324e-08	-5.254366e+01	-7.129257e+02
2.200000e-07	-7.499553e-06	-1.105055e-08	-5.212254e+01	-7.135183e+02
2.300000e-07	-7.436372e-06	-1.101410e-08	-5.168343e+01	-7.140852e+02
2.400000e-07	-7.370421e-06	-1.097612e-08	-5.122507e+01	-7.146079e+02
2.500000e-07	-7.301657e-06	-1.092672e-08	-5.074715e+01	-7.150671e+02
2.600000e-07	-7.230214e-06	-1.088521e-08	-5.025061e+01	-7.154428e+02
2.700000e-07	-7.156000e-06	-1.085408e-08	-4.973482e+01	-7.157146e+02
2.800000e-07	-7.079028e-06	-1.081411e-08	-4.919986e+01	-7.158616e+02
2.900000e-07	-6.999295e-06	-1.078211e-08	-4.864570e+01	-7.158626e+02
3.000000e-07	-6.916892e-06	-1.074045e-08	-4.807300e+01	-7.156960e+02
3.100000e-07	-6.832155e-06	-1.069573e-08	-4.748407e+01	-7.153399e+02
3.200000e-07	-6.745218e-06	-1.064396e-08	-4.687985e+01	-7.147724e+02
3.300000e-07	-6.655910e-06	-1.058583e-08	-4.625915e+01	-7.139716e+02
3.400000e-07	-6.564128e-06	-1.053107e-08	-4.562126e+01	-7.129152e+02
3.500000e-07	-6.470027e-06	-1.047094e-08	-4.496725e+01	-7.115816e+02
3.600000e-07	-6.373604e-06	-1.041916e-08	-4.429710e+01	-7.099487e+02
3.700000e-07	-6.274795e-06	-1.036802e-08	-4.361037e+01	-7.079953e+02
3.800000e-07	-6.173752e-06	-1.031046e-08	-4.290811e+01	-7.057000e+02
3.900000e-07	-6.070553e-06	-1.023882e-08	-4.219087e+01	-7.030420e+02
4.000000e-07	-5.965071e-06	-1.015936e-08	-4.145776e+01	-7.000012e+02
4.100000e-07	-5.857418e-06	-1.008061e-08	-4.070956e+01	-6.965577e+02
4.200000e-07	-5.747766e-06	-1.000262e-08	-3.994747e+01	-6.926924e+02
4.300000e-07	-5.636038e-06	-9.931000e-09	-3.917095e+01	-6.883870e+02
4.400000e-07	-5.522046e-06	-9.857513e-09	-3.837870e+01	-6.836237e+02
4.500000e-07	-5.405804e-06	-9.782592e-09	-3.757080e+01	-6.783859e+02
4.600000e-07	-5.287558e-06	-9.701854e-09	-3.674898e+01	-6.726576e+02
4.700000e-07	-5.167455e-06	-9.610717e-09	-3.591426e+01	-6.664239e+02
4.800000e-07	-5.045454e-06	-9.508548e-09	-3.506634e+01	-6.596710e+02
4.900000e-07	-4.921547e-06	-9.400198e-09	-3.420518e+01	-6.523861e+02
5.000000e-07	-4.795904e-06	-9.294730e-09	-3.333195e+01	-6.445576e+02
5.100000e-07	-4.668613e-06	-9.193055e-09	-3.244726e+01	-6.361749e+02
5.200000e-07	-4.539681e-06	-9.091615e-09	-3.155118e+01	-6.272290e+02
5.300000e-07	-4.409056e-06	-8.982434e-09	-3.064332e+01	-6.177118e+02
5.400000e-07	-4.276773e-06	-8.864295e-09	-2.972395e+01	-6.076168e+02
5.500000e-07	-4.142946e-06	-8.739593e-09	-2.879383e+01	-5.969388e+02
5.600000e-07	-4.007748e-06	-8.605363e-09	-2.785419e+01	-5.856739e+02
5.700000e-07	-3.871208e-06	-8.461737e-09	-2.690523e+01	-5.738196e+02
5.800000e-07	-3.733111e-06	-8.316678e-09	-2.594544e+01	-5.613749e+02
5.900000e-07	-3.593387e-06	-8.172917e-09	-2.497435e+01	-5.483404e+02
6.000000e-07	-3.452232e-06	-8.028073e-09	-2.399331e+01	-5.347178e+02
6.100000e-07	-3.309769e-06	-7.878710e-09	-2.300318e+01	-5.205106e+02
6.200000e-07	-3.165977e-06	-7.719139e-09	-2.200381e+01	-5.057237e+02
6.300000e-07	-3.020944e-06	-7.550831e-09	-2.099582e+01	-4.903633e+02
6.400000e-07	-2.874827e-06	-7.375706e-09	-1.998030e+01	-4.744373e+02
6.500000e-07	-2.727786e-06	-7.190255e-09	-1.895835e+01	-4.579549e+02
6.600000e-07	-2.579892e-06	-6.993674e-09	-1.793047e+01	-4.409269e+02
6.700000e-07	-2.431171e-06	-6.789408e-09	-1.689685e+01	-4.233654e+02
6.800000e-07	-2.281710e-06	-6.581486e-09	-1.585808e+01	-4.052839e+02
6.900000e-07	-2.131471e-06	-6.370480e-09	-1.481391e+01	-3.866974e+02
7.000000e-07	-1.980428e-06	-6.150736e-09	-1.376414e+01	-3.676221e+02
7.100000e-07	-1.828701e-06	-5.918704e-09	-1.270963e+01	-3.480755e+02
7.200000e-07	-1.676378e-06	-5.678484e-09	-1.165097e+01	-3.280765e+02
7.300000e-07	-1.523482e-06	-5.429346e-09	-1.058833e+01	-3.076452e+02
7.400000e-07	-1.369941e-06	-5.168967e-09	-9.521206e+00	-2.868026e+02
7.500000e-07	-1.215698e-06	-4.895609e-09	-8.449205e+00	-2.655713e+02
7.600000e-07	-1.060854e-06	-4.608244e-09	-7.373026e+00	-2.439744e+02
7.700000e-07	-9.055497e-07	-4.309693e-09	-6.293649e+00	-2.220366e+02
7.800000e-07	-7.499177e-07	-4.001936e-09	-5.211993e+00	-1.997830e+02
7.900000e-07	-5.940615e-07	-3.679690e-09	-4.128779e+00	-1.772399e+02
8.000000e-07	-4.379729e-07	-3.338802e-09	-3.043950e+00	-1.544343e+02
8.100000e-07	-2.817054e-07	-2.981617e-09	-1.957877e+00	-1.313940e+02
8.200000e-07	-1.253472e-07	-2.608929e-09	-8.711740e-01	-1.081473e+02
8.300000e-07	3.103014e-08	-2.221089e-09	2.156622e-01	-8.472327e+01
8.400000e-07	1.873985e-07	-1.813519e-09	1.302436e+00	-6.115143e+01
8.500000e-07	3.437093e-07	-1.383009e-09	2.388810e+00	-3.746170e+01
8.600000e-07	4.998853e-07	-9.315951e-10	3.474246e+00	-1.368437e+01
8.700000e-07	6.559437e-07	-4.615111e-10	4.558866e+00	1.015000e+01
8.800000e-07	8.118519e-07	2.912577e-11	5.642441e+00	3.401065e+01
8.900000e-07	9.674629e-07	5.402615e-10	6.723951e+00	5.786673e+01
9.000000e-07	1.122635e-06	1.065833e-09	7.802410e+00	8.168737e+01
9.100000e-07	1.277247e-06	1.600445e-09	8.876981e+00	1.054418e+02
9.200000e-07	1.431167e-06	2.137881e-09	9.946732e+00	1.290992e+02
9.300000e-07	1.584409e-06	2.671892e-09	1.101178e+01	1.526293e+02
9.400000e-07	1.737011e-06	3.197107e-09	1.207238e+01	1.760018e+02
9.500000e-07	1.889034e-06	3.707540e-09	1.312895e+01	1.991871e+02
9.600000e-07	2.040449e-06	4.194753e-09	1.418130e+01	2.221559e+02
9.700000e-07	2.191074e-06	4.656806e-09	1.522815e+01	2.448794e+02
9.800000e-07	2.340870e-06	5.093880e-09	1.626925e+01	2.673295e+02
9.900000e-07	2.489908e-06	5.500641e-09	1.730508e+01	2.894788e+02
1.000000e-06	2.638225e-06	5.877565e-09	1.833589e+01	3.113006e+02
1.010000e-06	2.785722e-06	6.226269e-09	1.936101e+01	3.327693e+02
1.020000e-06	2.932154e-06	6.550668e-09	2.037873e+01	3.538598e+02
1.030000e-06	3.077429e-06	6.854104e-09	2.138840e+01	3.745482e+02
1.040000e-06	3.221637e-06	7.133953e-09	2.239066e+01	3.948117e+02
1.050000e-06	3.364601e-06	7.393006e-09	2.338427e+01	4.146285e+02
1.060000e-06	3.506308e-06	7.636837e-09	2.436914e+01	4.339779e+02
1.070000e-06	3.646807e-06	7.864693e-09	2.534562e+01	4.528404e+02
1.080000e-06	3.785841e-06	8.075657e-09	2.631193e+01	4.711979e+02
1.090000e-06	3.923270e-06	8.269882e-09	2.726707e+01	4.890334e+02
1.100000e-06	4.059201e-06	8.450391e-09	2.821180e+01	5.063313e+02
1.110000e-06	4.193713e-06	8.622898e-09	2.914667e+01	5.230774e+02
1.120000e-06	4.326812e-06	8.786081e-09	3.007172e+01	5.392589e+02
1.130000e-06	4.458453e-06	8.937162e-09	3.098664e+01	5.548643e+02
1.140000e-06	4.588417e-06	9.077565e-09	3.188990e+01	5.698837e+02
1.150000e-06	4.716663e-06	9.210366e-09	3.278122e+01	5.843085e+02
1.160000e-06	4.843302e-06	9.337733e-09	3.366137e+01	5.981317e+02
1.170000e-06	4.968367e-06	9.458226e-09	3.453058e+01	6.113478e+02
1.180000e-06	5.091709e-06	9.569341e-09	3.538782e+01	6.239526e+02
1.190000e-06	5.213127e-06	9.674126e-09	3.623168e+01	6.359436e+02
1.200000e-06	5.332633e-06	9.775730e-09	3.706226e+01	6.473197e+02
1.210000e-06	5.450207e-06	9.873318e-09	3.787941e+01	6.580813e+02
1.220000e-06	5.565611e-06	9.963092e-09	3.868148e+01	6.682300e+02
1.230000e-06	5.678757e-06	1.004278e-08	3.946786e+01	6.777693e+02
1.240000e-06	5.789846e-06	1.011702e-08	4.023993e+01	6.867038e+02
1.250000e-06	5.899039e-06	1.019069e-08	4.099883e+01	6.950394e+02
1.260000e-06	6.006166e-06	1.026400e-08	4.174338e+01	7.027837e+02
1.270000e-06	6.111048e-06	1.033392e-08	4.247231e+01	7.099453e+02
1.280000e-06	6.213750e-06	1.039864e-08	4.318611e+01	7.165343e+02
1.290000e-06	6.314246e-06	1.046013e-08	4.388456e+01	7.225619e+02
1.300000e-06	6.412344e-06	1.052282e-08	4.456635e+01	7.280404e+02
1.310000e-06	6.508073e-06	1.058177e-08	4.523167e+01	7.329835e+02
1.320000e-06	6.601608e-06	1.063162e-08	4.588175e+01	7.374057e+02
1.330000e-06	6.692874e-06	1.067626e-08	4.651605e+01	7.413228e+02
1.340000e-06	6.781661e-06	1.072170e-08	4.713313e+01	7.447513e+02
1.350000e-06	6.868083e-06	1.077021e-08	4.773377e+01	7.477087e+02
1.360000e-06	6.952284e-06	1.081625e-08	4.831897e+01	7.502133e+02
1.370000e-06	7.033993e-06	1.085673e-08	4.888686e+01	7.522843e+02
1.380000e-06	7.113073e-06	1.089564e-08	4.943648e+01	7.539414e+02
1.390000e-06	7.189572e-06	1.093583e-08	4.996815e+01	7.552050e+02
1.400000e-06	7.263367e-06	1.097317e-08	5.048103e+01	7.560960e+02
1.410000e-06	7.334507e-06	1.100239e-08	5.097546e+01	7.566358e+02
1.420000e-06	7.403074e-06	1.102570e-08	5.145201e+01	7.568463e+02
1.430000e-06	7.468952e-06	1.105218e-08	5.190987e+01	7.567494e+02
1.440000e-06	7.532210e-06	1.108414e-08	5.234952e+01	7.563674e+02
1.450000e-06	7.592938e-06	1.111506e-08	5.277158e+01	7.557230e+02
1.460000e-06	7.650959e-06	1.114105e-08	5.317483e+01	7.548384e+02
1.470000e-06	7.706225e-06	1.116475e-08	5.355894e+01	7.537364e+02
1.480000e-06	7.758574e-06	1.118944e-08	5.392276e+01	7.524392e+02
1.490000e-06	7.807751e-06	1.121088e-08	5.426455e+01	7.509691e+02
1.500000e-06	7.853982e-06	1.122407e-08	5.458586e+01	7.493481e+02
1.510000e-06	7.897459e-06	1.123268e-08	5.488803e+01	7.475980e+02
1.520000e-06	7.938083e-06	1.124485e-08	5.517036e+01	7.457398e+02
1.530000e-06	7.975921e-06	1.126257e-08	5.543335e+01	7.437945e+02
1.540000e-06	8.011029e-06	1.128044e-08	5.567735e+01	7.417822e+02
1.550000e-06	8.043314e-06	1.129287e-08	5.590173e+01	7.397226e+02
1.560000e-06	8.072861e-06	1.130304e-08	5.610708e+01	7.376345e+02
1.570000e-06	8.099554e-06	1.131457e-08	5.629260e+01	7.355362e+02
1.580000e-06	8.123267e-06	1.132534e-08	5.645741e+01	7.334450e+02
1.590000e-06	8.144193e-06	1.133185e-08	5.660285e+01	7.313774e+02
1.600000e-06	8.162328e-06	1.133217e-08	5.672889e+01	7.293489e+02
1.610000e-06	8.177423e-06	1.133395e-08	5.683380e+01	7.273741e+02
1.620000e-06	8.189360e-06	1.134079e-08	5.691676e+01	7.254665e+02
1.630000e-06	8.198175e-06	1.134665e-08	5.697803e+01	7.236385e+02
1.640000e-06	8.204048e-06	1.134534e-08	5.701885e+01	7.219014e+02
1.650000e-06	8.207084e-06	1.133948e-08	5.703995e+01	7.202654e+02
1.660000e-06	8.207308e-06	1.133786e-08	5.704150e+01	7.187395e+02
1.670000e-06	8.204840e-06	1.134055e-08	5.702435e+01	7.173313e+02
1.680000e-06	8.199603e-06	1.133818e-08	5.698796e+01	7.160473e+02
1.690000e-06	8.191571e-06	1.133113e-08	5.693213e+01	7.148928e+02
1.700000e-06	8.180836e-06	1.132520e-08	5.685752e+01	7.138715e+02
1.710000e-06	8.167214e-06	1.132061e-08	5.676285e+01	7.129862e+02
1.720000e-06	8.150857e-06	1.131162e-08	5.664916e+01	7.122380e+02
1.730000e-06	8.132155e-06	1.129367e-08	5.651918e+01	7.116270e+02
1.740000e-06	8.110846e-06	1.128136e-08	5.637108e+01	7.111518e+02
1.750000e-06	8.086189e-06	1.126348e-08	5.619971e+01	7.108098e+02
1.760000e-06	8.057663e-06	1.125031e-08	5.600146e+01	7.105969e+02
1.770000e-06	8.025623e-06	1.124375e-08	5.577878e+01	7.105079e+02
1.780000e-06	7.991002e-06	1.123148e-08	5.553816e+01	7.105363e+02
1.790000e-06	7.954104e-06	1.121321e-08	5.528171e+01	7.106743e+02
1.800000e-06	7.915066e-06	1.121923e-08	5.501040e+01	7.109130e+02
1.810000e-06	7.873943e-06	1.119894e-08	5.472459e+01	7.112422e+02
1.820000e-06	7.830174e-06	1.116111e-08	5.442039e+01	7.116506e+02
1.830000e-06	7.783624e-06	1.116614e-08	5.409686e+01	7.121258e+02
1.840000e-06	7.734180e-06	1.112872e-08	5.375322e+01	7.126543e+02
1.850000e-06	7.681451e-06	1.111764e-08	5.338675e+01	7.132216e+02
1.860000e-06	7.625777e-06	1.110775e-08	5.299982e+01	7.138122e+02
1.870000e-06	7.567408e-06	1.107179e-08	5.259414e+01	7.144098e+02
1.880000e-06	7.506371e-06	1.106226e-08	5.216993e+01	7.149972e+02
1.890000e-06	7.442682e-06	1.101859e-08	5.172728e+01	7.155564e+02
1.900000e-06	7.376193e-06	1.099372e-08	5.126518e+01	7.160686e+02
1.910000e-06	7.306934e-06	1.095122e-08	5.078382e+01	7.165144e+02
1.920000e-06	7.234834e-06	1.090032e-08	5.028273e+01	7.168739e+02
1.930000e-06	7.160009e-06	1.087480e-08	4.976269e+01	7.171266e+02
1.940000e-06	7.082405e-06	1.082698e-08	4.922333e+01	7.172514e+02
1.950000e-06	7.002092e-06	1.079376e-08	4.866515e+01	7.172272e+02
1.960000e-06	6.919389e-06	1.073738e-08	4.809035e+01	7.170322e+02
1.970000e-06	6.834092e-06	1.069706e-08	4.749753e+01	7.166446e+02
1.980000e-06	6.746244e-06	1.065401e-08	4.688698e+01	7.160426e+02
1.990000e-06	6.656130e-06	1.059950e-08	4.626068e+01	7.152039e+02
2.000000e-06	6.563762e-06	1.055702e-08	4.561871e+01	7.141067e+02
2.010000e-06	6.469022e-06	1.048823e-08	4.496026e+01	7.127290e+02
2.020000e-06	6.371966e-06	1.043103e-08	4.428572e+01	7.110490e+02
2.030000e-06	6.272728e-06	1.036011e-08	4.359600e+01	7.090454e+02
2.040000e-06	6.171096e-06	1.030076e-08	4.288966e+01	7.066969e+02
2.050000e-06	6.067127e-06	1.023932e-08	4.216706e+01	7.039829e+02
2.060000e-06	5.961130e-06	1.017957e-08	4.143037e+01	7.008831e+02
2.070000e-06	5.853158e-06	1.012205e-08	4.067995e+01	6.973779e+02
2.080000e-06	5.743019e-06	1.004424e-08	3.991448e+01	6.934482e+02
2.090000e-06	5.630702e-06	9.959417e-09	3.913387e+01	6.890758e+02
2.100000e-06	5.516278e-06	9.861378e-09	3.833861e+01	6.842431e+02
2.110000e-06	5.399639e-06	9.775931e-09	3.752796e+01	6.789335e+02
2.120000e-06	5.280842e-06	9.692519e-09	3.670231e+01	6.731313e+02
2.130000e-06	5.160134e-06	9.613029e-09	3.586338e+01	6.668217e+02
2.140000e-06	5.037673e-06	9.525063e-09	3.501226e+01	6.599909e+02
2.150000e-06	4.913412e-06	9.429576e-09	3.414864e+01	6.526264e+02
2.160000e-06	4.787247e-06	9.326069e-09	3.327178e+01	6.447166e+02
2.170000e-06	4.659312e-06	9.213807e-09	3.238262e+01	6.362514e+02
2.180000e-06	4.529846e-06	9.096533e-09	3.148282e+01	6.272217e+02
2.190000e-06	4.398893e-06	8.979467e-09	3.057269e+01	6.176197e+02
2.200000e-06	4.266380e-06	8.868543e-09	2.965171e+01	6.074391e+02
2.210000e-06	4.132187e-06	8.756218e-09	2.871906e+01	5.966749e+02
2.220000e-06	3.996457e-06	8.635048e-09	2.777572e+01	5.853232e+02
2.230000e-06	3.859348e-06	8.495456e-09	2.682280e+01	5.733820e+02
2.240000e-06	3.720869e-06	8.347882e-09	2.586036e+01	5.608504e+02
2.250000e-06	3.580984e-06	8.198005e-09	2.488815e+01	5.477290e+02
2.260000e-06	3.439564e-06	8.047056e-09	2.390527e+01	5.340201e+02
2.270000e-06	3.296708e-06	7.890381e-09	2.291240e+01	5.197271e+02
2.280000e-06	3.152712e-06	7.730497e-09	2.191162e+01	5.048552e+02
2.290000e-06	3.007730e-06	7.567840e-09	2.090399e+01	4.894109e+02
2.300000e-06	2.861675e-06	7.399327e-09	1.988889e+01	4.734022e+02
2.310000e-06	2.714653e-06	7.218134e-09	1.886707e+01	4.568385e+02
2.320000e-06	2.566821e-06	7.021626e-09	1.783963e+01	4.397309e+02
2.330000e-06	2.418107e-06	6.815946e-09	1.680606e+01	4.220917e+02
2.340000e-06	2.268369e-06	6.607216e-09	1.576536e+01	4.039345e+02
2.350000e-06	2.117626e-06	6.394410e-09	1.471769e+01	3.852745e+02
2.360000e-06	1.966107e-06	6.171454e-09	1.366462e+01	3.661281e+02
2.370000e-06	1.814003e-06	5.939723e-09	1.260748e+01	3.465131e+02
2.380000e-06	1.661359e-06	5.700919e-09	1.154659e+01	3.264484e+02
2.390000e-06	1.508146e-06	5.454598e-09	1.048174e+01	3.059544e+02
2.400000e-06	1.354381e-06	5.195010e-09	9.413066e+00	2.850523e+02
2.410000e-06	1.200078e-06	4.918808e-09	8.340646e+00	2.637646e+02
2.420000e-06	1.045340e-06	4.628650e-09	7.265204e+00	2.421149e+02
2.430000e-06	8.903113e-07	4.329160e-09	6.187740e+00	2.201278e+02
2.440000e-06	7.350480e-07	4.019379e-09	5.108648e+00	1.978286e+02
2.450000e-06	5.796169e-07	3.693660e-09	4.028388e+00	1.752437e+02
2.460000e-06	4.240579e-07	3.351065e-09	2.947239e+00	1.524002e+02
2.470000e-06	2.683931e-07	2.996146e-09	1.865355e+00	1.293260e+02
2.480000e-06	1.126157e-07	2.630625e-09	7.826887e-01	1.060496e+02
2.490000e-06	-4.323316e-08	2.245486e-09	-3.004742e-01	8.260001e+01
2.500000e-06	-1.990152e-07	1.835116e-09	-1.383173e+00	5.900686e+01
2.510000e-06	-3.547164e-07	1.402107e-09	-2.465310e+00	3.530012e+01
2.520000e-06	-5.103193e-07	9.499603e-10	-3.546764e+00	1.151014e+01
2.530000e-06	-6.657434e-07	4.779866e-10	-4.626975e+00	-1.233249e+01
2.540000e-06	-8.210035e-07	-1.586108e-11	-5.706045e+00	-3.619700e+01
2.550000e-06	-9.760645e-07	-5.276229e-10	-6.783733e+00	-6.005254e+01
2.560000e-06	-1.130764e-06	-1.050492e-09	-7.858908e+00	-8.386823e+01
2.570000e-06	-1.284975e-06	-1.581551e-09	-8.930689e+00	-1.076133e+02
2.580000e-06	-1.438655e-06	-2.118586e-09	-9.998778e+00	-1.312570e+02
2.590000e-06	-1.591792e-06	-2.655710e-09	-1.106309e+01	-1.547690e+02
2.600000e-06	-1.744385e-06	-3.183155e-09	-1.212363e+01	-1.781193e+02
2.610000e-06	-1.896385e-06	-3.692309e-09	-1.318004e+01	-2.012780e+02
2.620000e-06	-2.047821e-06	-4.180306e-09	-1.423254e+01	-2.242161e+02
2.630000e-06	-2.198600e-06	-4.645674e-09	-1.528046e+01	-2.469049e+02
2.640000e-06	-2.348413e-06	-5.083828e-09	-1.632167e+01	-2.693163e+02
2.650000e-06	-2.497163e-06	-5.489200e-09	-1.735550e+01	-2.914231e+02
2.660000e-06	-2.645006e-06	-5.862782e-09	-1.838302e+01	-3.131987e+02
2.670000e-06	-2.792052e-06	-6.210600e-09	-1.940500e+01	-3.346174e+02
2.680000e-06	-2.938191e-06	-6.537192e-09	-2.042068e+01	-3.556545e+02
2.690000e-06	-3.083280e-06	-6.841257e-09	-2.142907e+01	-3.762863e+02
2.700000e-06	-3.227319e-06	-7.121402e-09	-2.243015e+01	-3.964899e+02
2.710000e-06	-3.370221e-06	-7.382646e-09	-2.342333e+01	-4.162438e+02
2.720000e-06	-3.511697e-06	-7.629824e-09	-2.440660e+01	-4.355274e+02
2.730000e-06	-3.651705e-06	-7.860744e-09	-2.537967e+01	-4.543215e+02
2.740000e-06	-3.790394e-06	-8.071081e-09	-2.634357e+01	-4.726080e+02
2.750000e-06	-3.927705e-06	-8.263045e-09	-2.729789e+01	-4.903703e+02
2.760000e-06	-4.063628e-06	-8.445142e-09	-2.824257e+01	-5.075928e+02
2.770000e-06	-4.198056e-06	-8.617838e-09	-2.917686e+01	-5.242617e+02
2.780000e-06	-4.330825e-06	-8.776235e-09	-3.009961e+01	-5.403641e+02
2.790000e-06	-4.462082e-06	-8.923225e-09	-3.101186e+01	-5.558890e+02
2.800000e-06	-4.591854e-06	-9.064726e-09	-3.191378e+01	-5.708266e+02
2.810000e-06	-4.720070e-06	-9.202793e-09	-3.280490e+01	-5.851685e+02
2.820000e-06	-4.846622e-06	-9.332044e-09	-3.368444e+01	-5.989079e+02
2.830000e-06	-4.971312e-06	-9.448281e-09	-3.455105e+01	-6.120395e+02
2.840000e-06	-5.094231e-06	-9.555676e-09	-3.540535e+01	-6.245594e+02
2.850000e-06	-5.215509e-06	-9.659704e-09	-3.624824e+01	-6.364652e+02
2.860000e-06	-5.334925e-06	-9.759270e-09	-3.707819e+01	-6.477561e+02
2.870000e-06	-5.452167e-06	-9.854063e-09	-3.789303e+01	-6.584326e+02
2.880000e-06	-5.567195e-06	-9.943794e-09	-3.869249e+01	-6.684966e+02
2.890000e-06	-5.679952e-06	-1.002756e-08	-3.947616e+01	-6.779518e+02
2.900000e-06	-5.790386e-06	-1.010899e-08	-4.024369e+01	-6.868030e+02
2.910000e-06	-5.898740e-06	-1.018898e-08	-4.099675e+01	-6.950563e+02
2.920000e-06	-6.005204e-06	-1.026513e-08	-4.173669e+01	-7.027194e+02
2.930000e-06	-6.109693e-06	-1.033518e-08	-4.246290e+01	-7.098012e+02
2.940000e-06	-6.211898e-06	-1.040162e-08	-4.317323e+01	-7.163119e+02
