# Temperatura_=_20.0
# Concentracion g/m^3_=_10000.0
# C_Vs_to_Am_M_A/Vsm_=_65563218390.804596
# pendiente_HvsI_1/m_=_3716.3
# ordenada_HvsI_A/m_=_1297.0
# frecuencia_Hz_=_301486.2996656366

Tiempo_(s)	Campo_(V.s)	Magnetizacion_(V.s)	Campo_(kA/m)	Magnetizacion_(A/m)
0.000000e+00	-8.285931e-06	-1.149552e-08	-5.688933e+01	-7.236387e+02
1.000000e-08	-8.281413e-06	-1.149676e-08	-5.685830e+01	-7.223840e+02
2.000000e-08	-8.274221e-06	-1.149406e-08	-5.680893e+01	-7.212643e+02
3.000000e-08	-8.264286e-06	-1.148774e-08	-5.674072e+01	-7.202833e+02
4.000000e-08	-8.251421e-06	-1.147880e-08	-5.665238e+01	-7.194434e+02
5.000000e-08	-8.235545e-06	-1.146918e-08	-5.654338e+01	-7.187456e+02
6.000000e-08	-8.216916e-06	-1.145856e-08	-5.641548e+01	-7.181897e+02
7.000000e-08	-8.195847e-06	-1.144438e-08	-5.627083e+01	-7.177740e+02
8.000000e-08	-8.172020e-06	-1.144346e-08	-5.610724e+01	-7.174955e+02
9.000000e-08	-8.144860e-06	-1.145071e-08	-5.592076e+01	-7.173498e+02
1.000000e-07	-8.114419e-06	-1.142791e-08	-5.571176e+01	-7.173314e+02
1.100000e-07	-8.081038e-06	-1.140173e-08	-5.548258e+01	-7.174334e+02
1.200000e-07	-8.044836e-06	-1.139164e-08	-5.523402e+01	-7.176476e+02
1.300000e-07	-8.006137e-06	-1.137921e-08	-5.496832e+01	-7.179645e+02
1.400000e-07	-7.965159e-06	-1.130567e-08	-5.468698e+01	-7.183736e+02
1.500000e-07	-7.921584e-06	-1.127957e-08	-5.438780e+01	-7.188631e+02
1.600000e-07	-7.875073e-06	-1.131963e-08	-5.406846e+01	-7.194201e+02
1.700000e-07	-7.825695e-06	-1.123851e-08	-5.372945e+01	-7.200306e+02
1.800000e-07	-7.773317e-06	-1.125053e-08	-5.336983e+01	-7.206796e+02
1.900000e-07	-7.717930e-06	-1.124297e-08	-5.298956e+01	-7.213511e+02
2.000000e-07	-7.659749e-06	-1.117145e-08	-5.259010e+01	-7.220283e+02
2.100000e-07	-7.598809e-06	-1.116525e-08	-5.217170e+01	-7.226934e+02
2.200000e-07	-7.535213e-06	-1.112681e-08	-5.173507e+01	-7.233278e+02
2.300000e-07	-7.468831e-06	-1.110981e-08	-5.127930e+01	-7.239123e+02
2.400000e-07	-7.399635e-06	-1.104569e-08	-5.080422e+01	-7.244269e+02
2.500000e-07	-7.327733e-06	-1.100865e-08	-5.031055e+01	-7.248511e+02
2.600000e-07	-7.252970e-06	-1.098191e-08	-4.979725e+01	-7.251639e+02
2.700000e-07	-7.175310e-06	-1.094189e-08	-4.926406e+01	-7.253437e+02
2.800000e-07	-7.094858e-06	-1.090821e-08	-4.871169e+01	-7.253688e+02
2.900000e-07	-7.011823e-06	-1.084906e-08	-4.814159e+01	-7.252170e+02
3.000000e-07	-6.926459e-06	-1.082106e-08	-4.755550e+01	-7.248660e+02
3.100000e-07	-6.838764e-06	-1.077006e-08	-4.695340e+01	-7.242933e+02
3.200000e-07	-6.748641e-06	-1.071205e-08	-4.633464e+01	-7.234763e+02
3.300000e-07	-6.656047e-06	-1.065456e-08	-4.569891e+01	-7.223927e+02
3.400000e-07	-6.561063e-06	-1.058703e-08	-4.504677e+01	-7.210200e+02
3.500000e-07	-6.463709e-06	-1.053874e-08	-4.437836e+01	-7.193360e+02
3.600000e-07	-6.364074e-06	-1.049281e-08	-4.369429e+01	-7.173190e+02
3.700000e-07	-6.262235e-06	-1.043663e-08	-4.299509e+01	-7.149473e+02
3.800000e-07	-6.158033e-06	-1.035649e-08	-4.227966e+01	-7.122000e+02
3.900000e-07	-6.051563e-06	-1.028214e-08	-4.154866e+01	-7.090563e+02
4.000000e-07	-5.942990e-06	-1.021322e-08	-4.080322e+01	-7.054964e+02
4.100000e-07	-5.832346e-06	-1.013673e-08	-4.004357e+01	-7.015010e+02
4.200000e-07	-5.719489e-06	-1.005164e-08	-3.926871e+01	-6.970515e+02
4.300000e-07	-5.604327e-06	-9.967478e-09	-3.847804e+01	-6.921302e+02
4.400000e-07	-5.486980e-06	-9.892260e-09	-3.767236e+01	-6.867202e+02
4.500000e-07	-5.367535e-06	-9.814598e-09	-3.685228e+01	-6.808056e+02
4.600000e-07	-5.246090e-06	-9.720588e-09	-3.601846e+01	-6.743715e+02
4.700000e-07	-5.122871e-06	-9.616204e-09	-3.517247e+01	-6.674041e+02
4.800000e-07	-4.997895e-06	-9.516710e-09	-3.431442e+01	-6.598908e+02
4.900000e-07	-4.871072e-06	-9.419752e-09	-3.344367e+01	-6.518199e+02
5.000000e-07	-4.742442e-06	-9.314091e-09	-3.256053e+01	-6.431813e+02
5.100000e-07	-4.612112e-06	-9.195816e-09	-3.166572e+01	-6.339660e+02
5.200000e-07	-4.480175e-06	-9.074466e-09	-3.075987e+01	-6.241663e+02
5.300000e-07	-4.346584e-06	-8.954063e-09	-2.984266e+01	-6.137759e+02
5.400000e-07	-4.211461e-06	-8.831720e-09	-2.891493e+01	-6.027899e+02
5.500000e-07	-4.074727e-06	-8.697862e-09	-2.797615e+01	-5.912048e+02
5.600000e-07	-3.936380e-06	-8.554346e-09	-2.702629e+01	-5.790185e+02
5.700000e-07	-3.796618e-06	-8.410135e-09	-2.606672e+01	-5.662306e+02
5.800000e-07	-3.655265e-06	-8.269739e-09	-2.509622e+01	-5.528419e+02
5.900000e-07	-3.512308e-06	-8.120292e-09	-2.411471e+01	-5.388549e+02
6.000000e-07	-3.368080e-06	-7.955916e-09	-2.312448e+01	-5.242735e+02
6.100000e-07	-3.222752e-06	-7.784125e-09	-2.212668e+01	-5.091032e+02
6.200000e-07	-3.076367e-06	-7.611346e-09	-2.112164e+01	-4.933508e+02
6.300000e-07	-2.928891e-06	-7.437609e-09	-2.010910e+01	-4.770248e+02
6.400000e-07	-2.780321e-06	-7.250498e-09	-1.908906e+01	-4.601351e+02
6.500000e-07	-2.630817e-06	-7.050879e-09	-1.806259e+01	-4.426932e+02
6.600000e-07	-2.480513e-06	-6.846090e-09	-1.703064e+01	-4.247118e+02
6.700000e-07	-2.329353e-06	-6.642129e-09	-1.599281e+01	-4.062053e+02
6.800000e-07	-2.177202e-06	-6.429444e-09	-1.494818e+01	-3.871892e+02
6.900000e-07	-2.024121e-06	-6.199032e-09	-1.389716e+01	-3.676806e+02
7.000000e-07	-1.870324e-06	-5.956254e-09	-1.284122e+01	-3.476979e+02
7.100000e-07	-1.715924e-06	-5.709850e-09	-1.178115e+01	-3.272606e+02
7.200000e-07	-1.560937e-06	-5.456488e-09	-1.071704e+01	-3.063895e+02
7.300000e-07	-1.405439e-06	-5.186449e-09	-9.649428e+00	-2.851066e+02
7.400000e-07	-1.249454e-06	-4.903537e-09	-8.578467e+00	-2.634352e+02
7.500000e-07	-1.093029e-06	-4.611165e-09	-7.504489e+00	-2.413992e+02
7.600000e-07	-9.362330e-07	-4.310875e-09	-6.427963e+00	-2.190241e+02
7.700000e-07	-7.790842e-07	-3.996903e-09	-5.349016e+00	-1.963358e+02
7.800000e-07	-6.216789e-07	-3.662217e-09	-4.268306e+00	-1.733614e+02
7.900000e-07	-4.640574e-07	-3.309415e-09	-3.186113e+00	-1.501287e+02
8.000000e-07	-3.062403e-07	-2.943650e-09	-2.102577e+00	-1.266661e+02
8.100000e-07	-1.482821e-07	-2.561643e-09	-1.018071e+00	-1.030029e+02
8.200000e-07	9.760161e-09	-2.157075e-09	6.701106e-02	-7.916877e+01
8.300000e-07	1.678655e-07	-1.729467e-09	1.152527e+00	-5.519398e+01
8.400000e-07	3.259611e-07	-1.281628e-09	2.237975e+00	-3.110915e+01
8.500000e-07	4.838793e-07	-8.182198e-10	3.322206e+00	-6.945269e+00
8.600000e-07	6.415696e-07	-3.338131e-10	4.404872e+00	1.726645e+01
8.700000e-07	7.990178e-07	1.770870e-10	5.485875e+00	4.149462e+01
8.800000e-07	9.561418e-07	7.089576e-10	6.564653e+00	6.570779e+01
8.900000e-07	1.112826e-06	1.251258e-09	7.640412e+00	8.987448e+01
9.000000e-07	1.269046e-06	1.799438e-09	8.712980e+00	1.139634e+02
9.100000e-07	1.424882e-06	2.354526e-09	9.782916e+00	1.379432e+02
9.200000e-07	1.580304e-06	2.908999e-09	1.085001e+01	1.617831e+02
9.300000e-07	1.735186e-06	3.446884e-09	1.191340e+01	1.854525e+02
9.400000e-07	1.889474e-06	3.958126e-09	1.297270e+01	2.089212e+02
9.500000e-07	2.043192e-06	4.441281e-09	1.402809e+01	2.321596e+02
9.600000e-07	2.196229e-06	4.898145e-09	1.507881e+01	2.551386e+02
9.700000e-07	2.348338e-06	5.329335e-09	1.612316e+01	2.778297e+02
9.800000e-07	2.499433e-06	5.728372e-09	1.716054e+01	3.002054e+02
9.900000e-07	2.649580e-06	6.098239e-09	1.819141e+01	3.222388e+02
1.000000e-06	2.798758e-06	6.444373e-09	1.921564e+01	3.439039e+02
1.010000e-06	2.946923e-06	6.768465e-09	2.023290e+01	3.651756e+02
1.020000e-06	3.094048e-06	7.067687e-09	2.124304e+01	3.860300e+02
1.030000e-06	3.240108e-06	7.339589e-09	2.224585e+01	4.064442e+02
1.040000e-06	3.385057e-06	7.589717e-09	2.324103e+01	4.263962e+02
1.050000e-06	3.528786e-06	7.824058e-09	2.422785e+01	4.458656e+02
1.060000e-06	3.671200e-06	8.042764e-09	2.520562e+01	4.648329e+02
1.070000e-06	3.812198e-06	8.244865e-09	2.617369e+01	4.832801e+02
1.080000e-06	3.951743e-06	8.433649e-09	2.713177e+01	5.011904e+02
1.090000e-06	4.089842e-06	8.612081e-09	2.807993e+01	5.185483e+02
1.100000e-06	4.226387e-06	8.783950e-09	2.901741e+01	5.353400e+02
1.110000e-06	4.361331e-06	8.946919e-09	2.994391e+01	5.515528e+02
1.120000e-06	4.494691e-06	9.096294e-09	3.085953e+01	5.671757e+02
1.130000e-06	4.626470e-06	9.234131e-09	3.176430e+01	5.821990e+02
1.140000e-06	4.756683e-06	9.364299e-09	3.265831e+01	5.966146e+02
1.150000e-06	4.885169e-06	9.487474e-09	3.354046e+01	6.104159e+02
1.160000e-06	5.011852e-06	9.604134e-09	3.441024e+01	6.235977e+02
1.170000e-06	5.136764e-06	9.712397e-09	3.526786e+01	6.361565e+02
1.180000e-06	5.259918e-06	9.814799e-09	3.611341e+01	6.480903e+02
1.190000e-06	5.381204e-06	9.917056e-09	3.694613e+01	6.593983e+02
1.200000e-06	5.500438e-06	1.001779e-08	3.776476e+01	6.700816e+02
1.210000e-06	5.617610e-06	1.011019e-08	3.856924e+01	6.801426e+02
1.220000e-06	5.732623e-06	1.019282e-08	3.935889e+01	6.895851e+02
1.230000e-06	5.845408e-06	1.027000e-08	4.013325e+01	6.984145e+02
1.240000e-06	5.956090e-06	1.034371e-08	4.089317e+01	7.066373e+02
1.250000e-06	6.064762e-06	1.041244e-08	4.163928e+01	7.142617e+02
1.260000e-06	6.171357e-06	1.047683e-08	4.237114e+01	7.212971e+02
1.270000e-06	6.275726e-06	1.054004e-08	4.308771e+01	7.277541e+02
1.280000e-06	6.377774e-06	1.060363e-08	4.378835e+01	7.336447e+02
1.290000e-06	6.477449e-06	1.066731e-08	4.447270e+01	7.389820e+02
1.300000e-06	6.574732e-06	1.072621e-08	4.514062e+01	7.437802e+02
1.310000e-06	6.669680e-06	1.077971e-08	4.579251e+01	7.480546e+02
1.320000e-06	6.762333e-06	1.083022e-08	4.642864e+01	7.518216e+02
1.330000e-06	6.852624e-06	1.087929e-08	4.704857e+01	7.550985e+02
1.340000e-06	6.940474e-06	1.092585e-08	4.765172e+01	7.579035e+02
1.350000e-06	7.025918e-06	1.096846e-08	4.823836e+01	7.602556e+02
1.360000e-06	7.108975e-06	1.100770e-08	4.880861e+01	7.621745e+02
1.370000e-06	7.189502e-06	1.104656e-08	4.936149e+01	7.636806e+02
1.380000e-06	7.267376e-06	1.108762e-08	4.989615e+01	7.647950e+02
1.390000e-06	7.342492e-06	1.112657e-08	5.041189e+01	7.655392e+02
1.400000e-06	7.414844e-06	1.115908e-08	5.090864e+01	7.659353e+02
1.410000e-06	7.484609e-06	1.118650e-08	5.138763e+01	7.660055e+02
1.420000e-06	7.551720e-06	1.121458e-08	5.184840e+01	7.657725e+02
1.430000e-06	7.616107e-06	1.124390e-08	5.229047e+01	7.652592e+02
1.440000e-06	7.677910e-06	1.127106e-08	5.271479e+01	7.644884e+02
1.450000e-06	7.737030e-06	1.129470e-08	5.312069e+01	7.634833e+02
1.460000e-06	7.793336e-06	1.131808e-08	5.350728e+01	7.622666e+02
1.470000e-06	7.846663e-06	1.134269e-08	5.387341e+01	7.608614e+02
1.480000e-06	7.896788e-06	1.136534e-08	5.421756e+01	7.592901e+02
1.490000e-06	7.943922e-06	1.138328e-08	5.454117e+01	7.575751e+02
1.500000e-06	7.988342e-06	1.139671e-08	5.484614e+01	7.557384e+02
1.510000e-06	8.029904e-06	1.141132e-08	5.513150e+01	7.538014e+02
1.520000e-06	8.068592e-06	1.142727e-08	5.539713e+01	7.517853e+02
1.530000e-06	8.104509e-06	1.144092e-08	5.564372e+01	7.497105e+02
1.540000e-06	8.137573e-06	1.145153e-08	5.587074e+01	7.475966e+02
1.550000e-06	8.167839e-06	1.146051e-08	5.607853e+01	7.454628e+02
1.560000e-06	8.195217e-06	1.147037e-08	5.626650e+01	7.433273e+02
1.570000e-06	8.219583e-06	1.147968e-08	5.643380e+01	7.412074e+02
1.580000e-06	8.241132e-06	1.148554e-08	5.658175e+01	7.391197e+02
1.590000e-06	8.259863e-06	1.148813e-08	5.671035e+01	7.370796e+02
1.600000e-06	8.275584e-06	1.149034e-08	5.681829e+01	7.351016e+02
1.610000e-06	8.288180e-06	1.149443e-08	5.690477e+01	7.331991e+02
1.620000e-06	8.297575e-06	1.149880e-08	5.696927e+01	7.313843e+02
1.630000e-06	8.303950e-06	1.150052e-08	5.701304e+01	7.296685e+02
1.640000e-06	8.307479e-06	1.149869e-08	5.703727e+01	7.280614e+02
1.650000e-06	8.308095e-06	1.149903e-08	5.704150e+01	7.265717e+02
1.660000e-06	8.305961e-06	1.150013e-08	5.702685e+01	7.252069e+02
1.670000e-06	8.301083e-06	1.149396e-08	5.699335e+01	7.239730e+02
1.680000e-06	8.293374e-06	1.148519e-08	5.694042e+01	7.228749e+02
1.690000e-06	8.282896e-06	1.147651e-08	5.686849e+01	7.219160e+02
1.700000e-06	8.269521e-06	1.146991e-08	5.677666e+01	7.210985e+02
1.710000e-06	8.253425e-06	1.146424e-08	5.666614e+01	7.204232e+02
1.720000e-06	8.234900e-06	1.145478e-08	5.653895e+01	7.198896e+02
1.730000e-06	8.213743e-06	1.143697e-08	5.639370e+01	7.194957e+02
1.740000e-06	8.189292e-06	1.140012e-08	5.622582e+01	7.192383e+02
1.750000e-06	8.160954e-06	1.140084e-08	5.603126e+01	7.191129e+02
1.760000e-06	8.129020e-06	1.140259e-08	5.581201e+01	7.191136e+02
1.770000e-06	8.094438e-06	1.137755e-08	5.557458e+01	7.192333e+02
1.780000e-06	8.057545e-06	1.136412e-08	5.532128e+01	7.194636e+02
1.790000e-06	8.018416e-06	1.140579e-08	5.505263e+01	7.197949e+02
1.800000e-06	7.977190e-06	1.134304e-08	5.476958e+01	7.202163e+02
1.810000e-06	7.933343e-06	1.131059e-08	5.446853e+01	7.207159e+02
1.820000e-06	7.886575e-06	1.134084e-08	5.414744e+01	7.212806e+02
1.830000e-06	7.836871e-06	1.125781e-08	5.380618e+01	7.218961e+02
1.840000e-06	7.783906e-06	1.128246e-08	5.344253e+01	7.225474e+02
1.850000e-06	7.727996e-06	1.124998e-08	5.305867e+01	7.232183e+02
1.860000e-06	7.669354e-06	1.121580e-08	5.265605e+01	7.238917e+02
1.870000e-06	7.607911e-06	1.119746e-08	5.223420e+01	7.245497e+02
1.880000e-06	7.543777e-06	1.112474e-08	5.179386e+01	7.251737e+02
1.890000e-06	7.476782e-06	1.113098e-08	5.133389e+01	7.257442e+02
1.900000e-06	7.406939e-06	1.107103e-08	5.085437e+01	7.262413e+02
1.910000e-06	7.334256e-06	1.104008e-08	5.035534e+01	7.266442e+02
1.920000e-06	7.258796e-06	1.100728e-08	4.983725e+01	7.269319e+02
1.930000e-06	7.180541e-06	1.096260e-08	4.929997e+01	7.270828e+02
1.940000e-06	7.099625e-06	1.093447e-08	4.874442e+01	7.270751e+02
1.950000e-06	7.016327e-06	1.085612e-08	4.817251e+01	7.268864e+02
1.960000e-06	6.930460e-06	1.083393e-08	4.758297e+01	7.264945e+02
1.970000e-06	6.842053e-06	1.077281e-08	4.697599e+01	7.258769e+02
1.980000e-06	6.751224e-06	1.073088e-08	4.635238e+01	7.250110e+02
1.990000e-06	6.657969e-06	1.068723e-08	4.571211e+01	7.238744e+02
2.000000e-06	6.562393e-06	1.061956e-08	4.505590e+01	7.224448e+02
2.010000e-06	6.464604e-06	1.055807e-08	4.438451e+01	7.207001e+02
2.020000e-06	6.364485e-06	1.048081e-08	4.369711e+01	7.186183e+02
2.030000e-06	6.261949e-06	1.043186e-08	4.299312e+01	7.161782e+02
2.040000e-06	6.157158e-06	1.035848e-08	4.227365e+01	7.133586e+02
2.050000e-06	6.050232e-06	1.029959e-08	4.153952e+01	7.101391e+02
2.060000e-06	5.941198e-06	1.022879e-08	4.079092e+01	7.065000e+02
2.070000e-06	5.829954e-06	1.015843e-08	4.002714e+01	7.024219e+02
2.080000e-06	5.716514e-06	1.007781e-08	3.924829e+01	6.978864e+02
2.090000e-06	5.600795e-06	9.981270e-09	3.845379e+01	6.928761e+02
2.100000e-06	5.482914e-06	9.890243e-09	3.764444e+01	6.873742e+02
2.110000e-06	5.363036e-06	9.796156e-09	3.682139e+01	6.813650e+02
2.120000e-06	5.241231e-06	9.713290e-09	3.598510e+01	6.748337e+02
2.130000e-06	5.117567e-06	9.621355e-09	3.513605e+01	6.677668e+02
2.140000e-06	4.991989e-06	9.529619e-09	3.427387e+01	6.601518e+02
2.150000e-06	4.864635e-06	9.426852e-09	3.339948e+01	6.519773e+02
2.160000e-06	4.735573e-06	9.321124e-09	3.251337e+01	6.432334e+02
2.170000e-06	4.604846e-06	9.204758e-09	3.161583e+01	6.339113e+02
2.180000e-06	4.472388e-06	9.079007e-09	3.070641e+01	6.240036e+02
2.190000e-06	4.338366e-06	8.950466e-09	2.978624e+01	6.135042e+02
2.200000e-06	4.202866e-06	8.822748e-09	2.885593e+01	6.024085e+02
2.210000e-06	4.065727e-06	8.698825e-09	2.791436e+01	5.907132e+02
2.220000e-06	3.926975e-06	8.568165e-09	2.696172e+01	5.784166e+02
2.230000e-06	3.786712e-06	8.431312e-09	2.599870e+01	5.655184e+02
2.240000e-06	3.645121e-06	8.285865e-09	2.502658e+01	5.520197e+02
2.250000e-06	3.502254e-06	8.132330e-09	2.404569e+01	5.379233e+02
2.260000e-06	3.358063e-06	7.967073e-09	2.305570e+01	5.232333e+02
2.270000e-06	3.212699e-06	7.792717e-09	2.205766e+01	5.079555e+02
2.280000e-06	3.066247e-06	7.614413e-09	2.105216e+01	4.920971e+02
2.290000e-06	2.918544e-06	7.435097e-09	2.003806e+01	4.756668e+02
2.300000e-06	2.769759e-06	7.254236e-09	1.901654e+01	4.586747e+02
2.310000e-06	2.620073e-06	7.066731e-09	1.798883e+01	4.411325e+02
2.320000e-06	2.469544e-06	6.868623e-09	1.695533e+01	4.230533e+02
2.330000e-06	2.318240e-06	6.656957e-09	1.591651e+01	4.044517e+02
2.340000e-06	2.166049e-06	6.433411e-09	1.487160e+01	3.853435e+02
2.350000e-06	2.013040e-06	6.200968e-09	1.382107e+01	3.657459e+02
2.360000e-06	1.859404e-06	5.960112e-09	1.276625e+01	3.456776e+02
2.370000e-06	1.705109e-06	5.710990e-09	1.170689e+01	3.251583e+02
2.380000e-06	1.549995e-06	5.454139e-09	1.064191e+01	3.042091e+02
2.390000e-06	1.394158e-06	5.188921e-09	9.571975e+00	2.828522e+02
2.400000e-06	1.237853e-06	4.911786e-09	8.498821e+00	2.611109e+02
2.410000e-06	1.081169e-06	4.619182e-09	7.423061e+00	2.390096e+02
2.420000e-06	9.241204e-07	4.311940e-09	6.344801e+00	2.165736e+02
2.430000e-06	7.667762e-07	3.991818e-09	5.264512e+00	1.938293e+02
2.440000e-06	6.091182e-07	3.658567e-09	4.182068e+00	1.708038e+02
2.450000e-06	4.511946e-07	3.310360e-09	3.097800e+00	1.475250e+02
2.460000e-06	2.931535e-07	2.945085e-09	2.012726e+00	1.240215e+02
2.470000e-06	1.349983e-07	2.563053e-09	9.268676e-01	1.003226e+02
2.480000e-06	-2.323194e-08	2.161782e-09	-1.595052e-01	7.645821e+01
2.490000e-06	-1.814229e-07	1.737823e-09	-1.245609e+00	5.245857e+01
2.500000e-06	-3.394982e-07	1.288749e-09	-2.330918e+00	2.835441e+01
2.510000e-06	-4.973922e-07	8.177036e-10	-3.414982e+00	4.176754e+00
2.520000e-06	-6.550735e-07	3.279849e-10	-4.497586e+00	-2.004314e+01
2.530000e-06	-8.125036e-07	-1.811601e-10	-5.578466e+00	-4.427388e+01
2.540000e-06	-9.696293e-07	-7.083565e-10	-6.657255e+00	-6.848399e+01
2.550000e-06	-1.126372e-06	-1.251321e-09	-7.733417e+00	-9.264202e+01
2.560000e-06	-1.282716e-06	-1.806204e-09	-8.806838e+00	-1.167166e+02
2.570000e-06	-1.438609e-06	-2.365155e-09	-9.877161e+00	-1.406767e+02
2.580000e-06	-1.593869e-06	-2.917183e-09	-1.094314e+01	-1.644913e+02
2.590000e-06	-1.748431e-06	-3.454036e-09	-1.200433e+01	-1.881300e+02
2.600000e-06	-1.902287e-06	-3.969047e-09	-1.306067e+01	-2.115627e+02
2.610000e-06	-2.055469e-06	-4.456535e-09	-1.411238e+01	-2.347598e+02
2.620000e-06	-2.207938e-06	-4.913453e-09	-1.515921e+01	-2.576924e+02
2.630000e-06	-2.359527e-06	-5.340797e-09	-1.619998e+01	-2.803321e+02
2.640000e-06	-2.510188e-06	-5.741747e-09	-1.723438e+01	-3.026516e+02
2.650000e-06	-2.660029e-06	-6.115901e-09	-1.826316e+01	-3.246240e+02
2.660000e-06	-2.809070e-06	-6.461359e-09	-1.928644e+01	-3.462236e+02
2.670000e-06	-2.957158e-06	-6.779364e-09	-2.030318e+01	-3.674255e+02
2.680000e-06	-3.104068e-06	-7.073169e-09	-2.131183e+01	-3.882058e+02
2.690000e-06	-3.249814e-06	-7.345531e-09	-2.231249e+01	-4.085420e+02
2.700000e-06	-3.394394e-06	-7.598248e-09	-2.330514e+01	-4.284122e+02
2.710000e-06	-3.537713e-06	-7.834186e-09	-2.428913e+01	-4.477963e+02
2.720000e-06	-3.679796e-06	-8.053857e-09	-2.526464e+01	-4.666750e+02
2.730000e-06	-3.820520e-06	-8.255888e-09	-2.623082e+01	-4.850304e+02
2.740000e-06	-3.959762e-06	-8.444301e-09	-2.718683e+01	-5.028460e+02
2.750000e-06	-4.097465e-06	-8.622988e-09	-2.813226e+01	-5.201068e+02
2.760000e-06	-4.233605e-06	-8.790257e-09	-2.906697e+01	-5.367989e+02
2.770000e-06	-4.368216e-06	-8.944674e-09	-2.999118e+01	-5.529101e+02
2.780000e-06	-4.501365e-06	-9.090057e-09	-3.090535e+01	-5.684295e+02
2.790000e-06	-4.632901e-06	-9.230615e-09	-3.180845e+01	-5.833478e+02
2.800000e-06	-4.762723e-06	-9.366131e-09	-3.269978e+01	-5.976570e+02
2.810000e-06	-4.890882e-06	-9.492222e-09	-3.357969e+01	-6.113510e+02
2.820000e-06	-5.017322e-06	-9.606333e-09	-3.444780e+01	-6.244247e+02
2.830000e-06	-5.142005e-06	-9.711064e-09	-3.530384e+01	-6.368750e+02
2.840000e-06	-5.264865e-06	-9.811153e-09	-3.614737e+01	-6.486999e+02
2.850000e-06	-5.385801e-06	-9.908495e-09	-3.697769e+01	-6.598992e+02
2.860000e-06	-5.504752e-06	-1.000367e-08	-3.779438e+01	-6.704741e+02
2.870000e-06	-5.621611e-06	-1.009412e-08	-3.859671e+01	-6.804273e+02
2.880000e-06	-5.736157e-06	-1.017963e-08	-3.938316e+01	-6.897628e+02
2.890000e-06	-5.848388e-06	-1.026183e-08	-4.015371e+01	-6.984862e+02
2.900000e-06	-5.958376e-06	-1.034020e-08	-4.090886e+01	-7.066045e+02
2.910000e-06	-6.066226e-06	-1.041215e-08	-4.164934e+01	-7.141259e+02
2.920000e-06	-6.172055e-06	-1.047817e-08	-4.237593e+01	-7.210602e+02
2.930000e-06	-6.275735e-06	-1.054366e-08	-4.308778e+01	-7.274181e+02
2.940000e-06	-6.377148e-06	-1.061014e-08	-4.378405e+01	-7.332118e+02
