# Temperatura_=_20.0
# Concentracion g/m^3_=_10000.0
# C_Vs_to_Am_M_A/Vsm_=_65563218390.804596
# pendiente_HvsI_1/m_=_3716.3
# ordenada_HvsI_A/m_=_1297.0
# frecuencia_Hz_=_301493.7882565711

Tiempo_(s)	Campo_(V.s)	Magnetizacion_(V.s)	Campo_(kA/m)	Magnetizacion_(A/m)
0.000000e+00	-8.239449e-06	-6.897835e-10	-5.688851e+01	-4.456762e+01
1.000000e-08	-8.234962e-06	-6.929574e-10	-5.685753e+01	-4.453301e+01
2.000000e-08	-8.227879e-06	-6.913575e-10	-5.680863e+01	-4.448155e+01
3.000000e-08	-8.218107e-06	-6.890301e-10	-5.674116e+01	-4.441324e+01
4.000000e-08	-8.205394e-06	-6.858564e-10	-5.665338e+01	-4.432810e+01
5.000000e-08	-8.189635e-06	-6.826855e-10	-5.654458e+01	-4.422617e+01
6.000000e-08	-8.171120e-06	-6.812575e-10	-5.641674e+01	-4.410747e+01
7.000000e-08	-8.150146e-06	-6.930421e-10	-5.627193e+01	-4.397207e+01
8.000000e-08	-8.126383e-06	-7.061497e-10	-5.610786e+01	-4.381999e+01
9.000000e-08	-8.099311e-06	-6.860426e-10	-5.592094e+01	-4.365132e+01
1.000000e-07	-8.069003e-06	-6.672881e-10	-5.571169e+01	-4.346612e+01
1.100000e-07	-8.035740e-06	-6.698726e-10	-5.548203e+01	-4.326448e+01
1.200000e-07	-7.999680e-06	-6.643403e-10	-5.523305e+01	-4.304647e+01
1.300000e-07	-7.961182e-06	-6.474065e-10	-5.496725e+01	-4.281220e+01
1.400000e-07	-7.920492e-06	-6.489825e-10	-5.468630e+01	-4.256178e+01
1.500000e-07	-7.877227e-06	-6.623474e-10	-5.438759e+01	-4.229531e+01
1.600000e-07	-7.831007e-06	-6.291013e-10	-5.406846e+01	-4.201293e+01
1.700000e-07	-7.781981e-06	-6.414165e-10	-5.372997e+01	-4.171475e+01
1.800000e-07	-7.729980e-06	-6.472803e-10	-5.337093e+01	-4.140092e+01
1.900000e-07	-7.674908e-06	-6.111378e-10	-5.299069e+01	-4.107158e+01
2.000000e-07	-7.617025e-06	-6.138556e-10	-5.259105e+01	-4.072689e+01
2.100000e-07	-7.556412e-06	-6.061216e-10	-5.217255e+01	-4.036701e+01
2.200000e-07	-7.493155e-06	-6.141244e-10	-5.173580e+01	-3.999210e+01
2.300000e-07	-7.427183e-06	-6.043056e-10	-5.128030e+01	-3.960234e+01
2.400000e-07	-7.358379e-06	-5.917699e-10	-5.080525e+01	-3.919792e+01
2.500000e-07	-7.286778e-06	-5.892621e-10	-5.031088e+01	-3.877901e+01
2.600000e-07	-7.212372e-06	-5.761040e-10	-4.979715e+01	-3.834583e+01
2.700000e-07	-7.135165e-06	-5.707410e-10	-4.926408e+01	-3.789856e+01
2.800000e-07	-7.055205e-06	-5.576151e-10	-4.871201e+01	-3.743741e+01
2.900000e-07	-6.972616e-06	-5.562384e-10	-4.814178e+01	-3.696260e+01
3.000000e-07	-6.887651e-06	-5.492861e-10	-4.755515e+01	-3.647435e+01
3.100000e-07	-6.800397e-06	-5.532789e-10	-4.695271e+01	-3.597288e+01
3.200000e-07	-6.710788e-06	-5.562910e-10	-4.633401e+01	-3.545842e+01
3.300000e-07	-6.618745e-06	-5.352465e-10	-4.569851e+01	-3.493120e+01
3.400000e-07	-6.524317e-06	-5.236565e-10	-4.504655e+01	-3.439146e+01
3.500000e-07	-6.427565e-06	-5.107281e-10	-4.437853e+01	-3.383945e+01
3.600000e-07	-6.328488e-06	-5.028007e-10	-4.369446e+01	-3.327542e+01
3.700000e-07	-6.227077e-06	-4.898030e-10	-4.299428e+01	-3.269960e+01
3.800000e-07	-6.123380e-06	-4.813600e-10	-4.227831e+01	-3.211226e+01
3.900000e-07	-6.017489e-06	-4.812207e-10	-4.154720e+01	-3.151366e+01
4.000000e-07	-5.909413e-06	-4.831376e-10	-4.080100e+01	-3.090406e+01
4.100000e-07	-5.799223e-06	-4.827576e-10	-4.004020e+01	-3.028372e+01
4.200000e-07	-5.686929e-06	-4.635501e-10	-3.926487e+01	-2.965290e+01
4.300000e-07	-5.572498e-06	-4.432645e-10	-3.847480e+01	-2.901189e+01
4.400000e-07	-5.455907e-06	-4.231954e-10	-3.766981e+01	-2.836094e+01
4.500000e-07	-5.337183e-06	-4.112927e-10	-3.685008e+01	-2.770033e+01
4.600000e-07	-5.216453e-06	-4.038499e-10	-3.601652e+01	-2.703034e+01
4.700000e-07	-5.093907e-06	-3.989281e-10	-3.517041e+01	-2.635124e+01
4.800000e-07	-4.969548e-06	-3.996458e-10	-3.431178e+01	-2.566331e+01
4.900000e-07	-4.843333e-06	-3.985663e-10	-3.344034e+01	-2.496683e+01
5.000000e-07	-4.715330e-06	-3.906306e-10	-3.255656e+01	-2.426208e+01
5.100000e-07	-4.585675e-06	-3.677981e-10	-3.166137e+01	-2.354934e+01
5.200000e-07	-4.454468e-06	-3.441184e-10	-3.075546e+01	-2.282889e+01
5.300000e-07	-4.321593e-06	-3.280252e-10	-2.983804e+01	-2.210102e+01
5.400000e-07	-4.187093e-06	-3.219612e-10	-2.890940e+01	-2.136599e+01
5.500000e-07	-4.051043e-06	-3.170663e-10	-2.797005e+01	-2.062410e+01
5.600000e-07	-3.913491e-06	-3.054920e-10	-2.702034e+01	-1.987562e+01
5.700000e-07	-3.774526e-06	-2.932970e-10	-2.606087e+01	-1.912085e+01
5.800000e-07	-3.634029e-06	-2.838930e-10	-2.509082e+01	-1.836004e+01
5.900000e-07	-3.491982e-06	-2.750830e-10	-2.411007e+01	-1.759350e+01
6.000000e-07	-3.348600e-06	-2.588364e-10	-2.312010e+01	-1.682148e+01
6.100000e-07	-3.204056e-06	-2.409731e-10	-2.212211e+01	-1.604429e+01
6.200000e-07	-3.058283e-06	-2.270386e-10	-2.111563e+01	-1.526218e+01
6.300000e-07	-2.911269e-06	-2.181302e-10	-2.010059e+01	-1.447544e+01
6.400000e-07	-2.763289e-06	-2.075265e-10	-1.907887e+01	-1.368434e+01
6.500000e-07	-2.614542e-06	-1.919608e-10	-1.805187e+01	-1.288915e+01
6.600000e-07	-2.464959e-06	-1.765640e-10	-1.701908e+01	-1.209015e+01
6.700000e-07	-2.314414e-06	-1.647325e-10	-1.597966e+01	-1.128762e+01
6.800000e-07	-2.163007e-06	-1.580605e-10	-1.493428e+01	-1.048181e+01
6.900000e-07	-2.010904e-06	-1.491792e-10	-1.388410e+01	-9.672996e+00
7.000000e-07	-1.858144e-06	-1.358166e-10	-1.282938e+01	-8.861449e+00
7.100000e-07	-1.704700e-06	-1.209240e-10	-1.176994e+01	-8.047432e+00
7.200000e-07	-1.550597e-06	-1.073403e-10	-1.070595e+01	-7.231209e+00
7.300000e-07	-1.395939e-06	-9.453818e-11	-9.638130e+00	-6.413043e+00
7.400000e-07	-1.240817e-06	-7.897533e-11	-8.567106e+00	-5.593194e+00
7.500000e-07	-1.085237e-06	-6.256357e-11	-7.492918e+00	-4.771924e+00
7.600000e-07	-9.292611e-07	-4.972313e-11	-6.415997e+00	-3.949489e+00
7.700000e-07	-7.730046e-07	-4.071457e-11	-5.337139e+00	-3.126147e+00
7.800000e-07	-6.165168e-07	-3.116453e-11	-4.256683e+00	-2.302153e+00
7.900000e-07	-4.598074e-07	-1.893069e-11	-3.174698e+00	-1.477762e+00
8.000000e-07	-3.028908e-07	-4.371280e-12	-2.091282e+00	-6.532261e-01
8.100000e-07	-1.458004e-07	1.050983e-11	-1.006665e+00	1.712031e-01
8.200000e-07	1.140692e-08	2.449562e-11	7.875800e-02	9.952751e-01
8.300000e-07	1.685861e-07	4.042452e-11	1.163987e+00	1.818741e+00
8.400000e-07	3.256203e-07	5.713557e-11	2.248215e+00	2.641352e+00
8.500000e-07	4.824729e-07	6.909062e-11	3.331189e+00	3.462861e+00
8.600000e-07	6.391825e-07	7.704217e-11	4.413177e+00	4.283022e+00
8.700000e-07	7.957024e-07	8.583460e-11	5.493854e+00	5.101590e+00
8.800000e-07	9.519308e-07	9.758872e-11	6.572518e+00	5.918320e+00
8.900000e-07	1.107820e-06	1.099575e-10	7.648844e+00	6.732968e+00
9.000000e-07	1.263331e-06	1.208270e-10	8.722551e+00	7.545292e+00
9.100000e-07	1.418431e-06	1.332519e-10	9.793426e+00	8.355049e+00
9.200000e-07	1.572970e-06	1.490800e-10	1.086043e+01	9.161996e+00
9.300000e-07	1.726814e-06	1.643361e-10	1.192263e+01	9.965893e+00
9.400000e-07	1.880049e-06	1.748014e-10	1.298062e+01	1.076650e+01
9.500000e-07	2.032718e-06	1.815850e-10	1.403471e+01	1.156357e+01
9.600000e-07	2.184720e-06	1.905606e-10	1.508419e+01	1.235687e+01
9.700000e-07	2.335966e-06	2.030918e-10	1.612846e+01	1.314615e+01
9.800000e-07	2.486325e-06	2.152904e-10	1.716660e+01	1.393118e+01
9.900000e-07	2.635703e-06	2.249075e-10	1.819797e+01	1.471172e+01
1.000000e-06	2.784115e-06	2.333325e-10	1.922266e+01	1.548752e+01
1.010000e-06	2.931552e-06	2.450145e-10	2.024063e+01	1.625835e+01
1.020000e-06	3.077897e-06	2.609473e-10	2.125105e+01	1.702397e+01
1.030000e-06	3.223155e-06	2.759668e-10	2.225397e+01	1.778413e+01
1.040000e-06	3.367266e-06	2.887765e-10	2.324898e+01	1.853859e+01
1.050000e-06	3.510112e-06	2.997276e-10	2.423525e+01	1.928712e+01
1.060000e-06	3.651603e-06	3.125665e-10	2.521216e+01	2.002947e+01
1.070000e-06	3.791674e-06	3.244161e-10	2.617926e+01	2.076541e+01
1.080000e-06	3.930341e-06	3.325463e-10	2.713668e+01	2.149469e+01
1.090000e-06	4.067578e-06	3.398158e-10	2.808422e+01	2.221706e+01
1.100000e-06	4.203327e-06	3.509054e-10	2.902149e+01	2.293230e+01
1.110000e-06	4.337532e-06	3.656722e-10	2.994809e+01	2.364016e+01
1.120000e-06	4.470155e-06	3.775756e-10	3.086378e+01	2.434040e+01
1.130000e-06	4.601176e-06	3.857730e-10	3.176840e+01	2.503277e+01
1.140000e-06	4.730577e-06	3.933165e-10	3.266183e+01	2.571704e+01
1.150000e-06	4.858260e-06	4.038064e-10	3.354341e+01	2.639296e+01
1.160000e-06	4.984257e-06	4.145293e-10	3.441334e+01	2.706029e+01
1.170000e-06	5.108507e-06	4.234149e-10	3.527121e+01	2.771880e+01
1.180000e-06	5.230901e-06	4.315387e-10	3.611627e+01	2.836824e+01
1.190000e-06	5.351475e-06	4.414317e-10	3.694876e+01	2.900837e+01
1.200000e-06	5.470075e-06	4.526876e-10	3.776763e+01	2.963896e+01
1.210000e-06	5.586554e-06	4.633353e-10	3.857185e+01	3.025976e+01
1.220000e-06	5.700856e-06	4.710685e-10	3.936103e+01	3.087054e+01
1.230000e-06	5.812979e-06	4.789717e-10	4.013518e+01	3.147106e+01
1.240000e-06	5.923075e-06	4.880024e-10	4.089532e+01	3.206109e+01
1.250000e-06	6.031160e-06	4.959252e-10	4.164158e+01	3.264039e+01
1.260000e-06	6.137094e-06	5.035241e-10	4.237300e+01	3.320872e+01
1.270000e-06	6.240817e-06	5.104361e-10	4.308915e+01	3.376587e+01
1.280000e-06	6.342243e-06	5.172919e-10	4.378943e+01	3.431159e+01
1.290000e-06	6.441315e-06	5.248298e-10	4.447347e+01	3.484565e+01
1.300000e-06	6.538045e-06	5.320195e-10	4.514133e+01	3.536784e+01
1.310000e-06	6.632483e-06	5.394089e-10	4.579336e+01	3.587793e+01
1.320000e-06	6.724617e-06	5.470575e-10	4.642949e+01	3.637570e+01
1.330000e-06	6.814350e-06	5.535704e-10	4.704905e+01	3.686094e+01
1.340000e-06	6.901723e-06	5.607485e-10	4.765231e+01	3.733341e+01
1.350000e-06	6.986737e-06	5.700125e-10	4.823928e+01	3.779292e+01
1.360000e-06	7.069300e-06	5.786968e-10	4.880933e+01	3.823925e+01
1.370000e-06	7.149346e-06	5.846309e-10	4.936200e+01	3.867220e+01
1.380000e-06	7.226763e-06	5.899215e-10	4.989652e+01	3.909157e+01
1.390000e-06	7.301441e-06	5.964072e-10	5.041212e+01	3.949716e+01
1.400000e-06	7.373451e-06	6.026912e-10	5.090931e+01	3.988877e+01
1.410000e-06	7.442857e-06	6.058474e-10	5.138852e+01	4.026622e+01
1.420000e-06	7.509518e-06	6.073820e-10	5.184877e+01	4.062933e+01
1.430000e-06	7.573476e-06	6.112231e-10	5.229036e+01	4.097790e+01
1.440000e-06	7.634891e-06	6.180893e-10	5.271440e+01	4.131178e+01
1.450000e-06	7.693622e-06	6.258944e-10	5.311990e+01	4.163078e+01
1.460000e-06	7.749583e-06	6.315349e-10	5.350628e+01	4.193474e+01
1.470000e-06	7.802646e-06	6.356862e-10	5.387265e+01	4.222352e+01
1.480000e-06	7.852521e-06	6.399978e-10	5.421701e+01	4.249695e+01
1.490000e-06	7.899415e-06	6.438399e-10	5.454078e+01	4.275489e+01
1.500000e-06	7.943574e-06	6.451887e-10	5.484567e+01	4.299720e+01
1.510000e-06	7.984863e-06	6.451660e-10	5.513075e+01	4.322375e+01
1.520000e-06	8.023344e-06	6.478588e-10	5.539643e+01	4.343440e+01
1.530000e-06	8.059076e-06	6.521090e-10	5.564315e+01	4.362905e+01
1.540000e-06	8.091977e-06	6.555954e-10	5.587031e+01	4.380759e+01
1.550000e-06	8.122106e-06	6.579243e-10	5.607833e+01	4.396989e+01
1.560000e-06	8.149353e-06	6.603891e-10	5.626645e+01	4.411588e+01
1.570000e-06	8.173629e-06	6.657248e-10	5.643406e+01	4.424546e+01
1.580000e-06	8.195091e-06	6.710361e-10	5.658225e+01	4.435854e+01
1.590000e-06	8.213743e-06	6.726470e-10	5.671103e+01	4.445506e+01
1.600000e-06	8.229400e-06	6.723135e-10	5.681913e+01	4.453495e+01
1.610000e-06	8.241853e-06	6.718938e-10	5.690511e+01	4.459814e+01
1.620000e-06	8.251127e-06	6.743611e-10	5.696914e+01	4.464460e+01
1.630000e-06	8.257527e-06	6.759143e-10	5.701333e+01	4.467428e+01
1.640000e-06	8.261039e-06	6.728343e-10	5.703758e+01	4.468716e+01
1.650000e-06	8.261607e-06	6.718645e-10	5.704150e+01	4.468319e+01
1.660000e-06	8.259454e-06	6.757518e-10	5.702663e+01	4.466238e+01
1.670000e-06	8.254571e-06	6.821144e-10	5.699292e+01	4.462471e+01
1.680000e-06	8.246886e-06	6.842648e-10	5.693986e+01	4.457019e+01
1.690000e-06	8.236437e-06	6.808578e-10	5.686772e+01	4.449883e+01
1.700000e-06	8.223121e-06	6.786172e-10	5.677578e+01	4.441065e+01
1.710000e-06	8.207093e-06	6.781167e-10	5.666511e+01	4.430568e+01
1.720000e-06	8.188632e-06	6.667498e-10	5.653766e+01	4.418395e+01
1.730000e-06	8.167572e-06	6.417557e-10	5.639225e+01	4.404552e+01
1.740000e-06	8.143238e-06	6.473117e-10	5.622423e+01	4.389043e+01
1.750000e-06	8.115017e-06	6.744443e-10	5.602938e+01	4.371876e+01
1.760000e-06	8.083224e-06	6.825242e-10	5.580988e+01	4.353057e+01
1.770000e-06	8.048760e-06	6.875396e-10	5.557192e+01	4.332595e+01
1.780000e-06	8.011997e-06	6.950919e-10	5.531809e+01	4.310499e+01
1.790000e-06	7.973065e-06	6.674129e-10	5.504929e+01	4.286779e+01
1.800000e-06	7.932073e-06	6.460423e-10	5.476626e+01	4.261444e+01
1.810000e-06	7.888413e-06	6.648569e-10	5.446482e+01	4.234508e+01
1.820000e-06	7.841857e-06	6.317240e-10	5.414338e+01	4.205982e+01
1.830000e-06	7.792421e-06	6.343778e-10	5.380205e+01	4.175879e+01
1.840000e-06	7.739738e-06	6.371492e-10	5.343831e+01	4.144214e+01
1.850000e-06	7.684125e-06	6.253748e-10	5.305433e+01	4.111000e+01
1.860000e-06	7.625775e-06	6.408760e-10	5.265146e+01	4.076254e+01
1.870000e-06	7.564695e-06	5.982229e-10	5.222974e+01	4.039992e+01
1.880000e-06	7.500932e-06	5.981483e-10	5.178949e+01	4.002230e+01
1.890000e-06	7.434296e-06	5.840580e-10	5.132941e+01	3.962987e+01
1.900000e-06	7.364905e-06	5.796066e-10	5.085030e+01	3.922280e+01
1.910000e-06	7.292693e-06	5.895610e-10	5.035172e+01	3.880128e+01
1.920000e-06	7.217669e-06	5.599453e-10	4.983373e+01	3.836552e+01
1.930000e-06	7.139918e-06	5.666617e-10	4.929690e+01	3.791571e+01
1.940000e-06	7.059514e-06	5.554158e-10	4.874176e+01	3.745207e+01
1.950000e-06	6.976637e-06	5.626511e-10	4.816955e+01	3.697480e+01
1.960000e-06	6.891189e-06	5.517399e-10	4.757957e+01	3.648412e+01
1.970000e-06	6.803194e-06	5.282203e-10	4.697202e+01	3.598027e+01
1.980000e-06	6.712765e-06	5.300711e-10	4.634767e+01	3.546347e+01
1.990000e-06	6.620078e-06	5.213399e-10	4.570772e+01	3.493395e+01
2.000000e-06	6.525134e-06	5.246775e-10	4.505218e+01	3.439196e+01
2.010000e-06	6.427780e-06	5.022403e-10	4.438001e+01	3.383774e+01
2.020000e-06	6.328104e-06	4.956608e-10	4.369181e+01	3.327154e+01
2.030000e-06	6.226147e-06	4.923395e-10	4.298786e+01	3.269360e+01
2.040000e-06	6.121950e-06	4.866772e-10	4.226844e+01	3.210419e+01
2.050000e-06	6.015572e-06	4.785212e-10	4.153396e+01	3.150356e+01
2.060000e-06	5.907132e-06	4.534902e-10	4.078524e+01	3.089198e+01
2.070000e-06	5.796544e-06	4.460094e-10	4.002170e+01	3.026970e+01
2.080000e-06	5.683705e-06	4.455988e-10	3.924261e+01	2.963700e+01
2.090000e-06	5.568658e-06	4.483690e-10	3.844829e+01	2.899414e+01
2.100000e-06	5.451458e-06	4.378768e-10	3.763909e+01	2.834140e+01
2.110000e-06	5.332177e-06	4.192646e-10	3.681552e+01	2.767906e+01
2.120000e-06	5.210986e-06	4.060381e-10	3.597877e+01	2.700737e+01
2.130000e-06	5.087992e-06	3.949053e-10	3.512957e+01	2.632663e+01
2.140000e-06	4.963182e-06	3.841391e-10	3.426783e+01	2.563711e+01
2.150000e-06	4.836564e-06	3.721206e-10	3.339361e+01	2.493909e+01
2.160000e-06	4.708126e-06	3.666232e-10	3.250682e+01	2.423285e+01
2.170000e-06	4.577980e-06	3.690164e-10	3.160824e+01	2.351867e+01
2.180000e-06	4.446247e-06	3.639725e-10	3.069870e+01	2.279683e+01
2.190000e-06	4.312987e-06	3.480046e-10	2.977862e+01	2.206761e+01
2.200000e-06	4.178107e-06	3.238110e-10	2.884735e+01	2.133129e+01
2.210000e-06	4.041615e-06	3.051078e-10	2.790496e+01	2.058816e+01
2.220000e-06	3.903584e-06	2.945515e-10	2.695193e+01	1.983849e+01
2.230000e-06	3.764116e-06	2.868030e-10	2.598899e+01	1.908257e+01
2.240000e-06	3.623397e-06	2.806167e-10	2.501741e+01	1.832068e+01
2.250000e-06	3.481356e-06	2.744668e-10	2.403670e+01	1.755309e+01
2.260000e-06	3.337985e-06	2.690482e-10	2.304681e+01	1.678009e+01
2.270000e-06	3.193394e-06	2.601819e-10	2.204849e+01	1.600195e+01
2.280000e-06	3.047587e-06	2.455989e-10	2.104179e+01	1.521895e+01
2.290000e-06	2.900677e-06	2.247866e-10	2.002746e+01	1.443136e+01
2.300000e-06	2.752806e-06	2.067357e-10	1.900650e+01	1.363947e+01
2.310000e-06	2.604016e-06	1.958668e-10	1.797919e+01	1.284354e+01
2.320000e-06	2.454305e-06	1.885549e-10	1.694552e+01	1.204384e+01
2.330000e-06	2.303688e-06	1.785589e-10	1.590560e+01	1.124066e+01
2.340000e-06	2.152302e-06	1.638206e-10	1.486037e+01	1.043425e+01
2.350000e-06	2.000170e-06	1.519263e-10	1.380999e+01	9.624884e+00
2.360000e-06	1.847194e-06	1.427485e-10	1.275378e+01	8.812832e+00
2.370000e-06	1.693468e-06	1.308780e-10	1.169239e+01	7.998357e+00
2.380000e-06	1.539199e-06	1.162596e-10	1.062725e+01	7.181723e+00
2.390000e-06	1.384452e-06	9.907484e-11	9.558822e+00	6.363192e+00
2.400000e-06	1.229210e-06	8.282888e-11	8.486966e+00	5.543026e+00
2.410000e-06	1.073473e-06	6.935968e-11	7.411696e+00	4.721484e+00
2.420000e-06	9.173067e-07	5.894385e-11	6.333459e+00	3.898824e+00
2.430000e-06	7.608929e-07	4.876744e-11	5.253514e+00	3.075302e+00
2.440000e-06	6.043169e-07	3.746161e-11	4.172450e+00	2.251174e+00
2.450000e-06	4.475813e-07	2.763853e-11	3.090284e+00	1.426694e+00
2.460000e-06	2.905870e-07	1.920034e-11	2.006331e+00	6.021138e-01
2.470000e-06	1.334606e-07	9.740691e-12	9.214662e-01	-2.223147e-01
2.480000e-06	-2.358147e-08	-6.830823e-12	-1.628161e-01	-1.046341e+00
2.490000e-06	-1.805746e-07	-2.547562e-11	-1.246761e+00	-1.869717e+00
2.500000e-06	-3.375257e-07	-4.052805e-11	-2.330415e+00	-2.692194e+00
2.510000e-06	-4.944527e-07	-5.210205e-11	-3.413903e+00	-3.513525e+00
2.520000e-06	-6.512378e-07	-6.266201e-11	-4.496412e+00	-4.333465e+00
2.530000e-06	-8.076670e-07	-7.431794e-11	-5.576462e+00	-5.151767e+00
2.540000e-06	-9.637809e-07	-8.425009e-11	-6.654336e+00	-5.968188e+00
2.550000e-06	-1.119619e-06	-9.118080e-11	-7.730304e+00	-6.782484e+00
2.560000e-06	-1.275001e-06	-1.003232e-10	-8.803130e+00	-7.594412e+00
2.570000e-06	-1.429842e-06	-1.156297e-10	-9.872211e+00	-8.403729e+00
2.580000e-06	-1.584206e-06	-1.321381e-10	-1.093800e+01	-9.210194e+00
2.590000e-06	-1.738094e-06	-1.462602e-10	-1.200051e+01	-1.001357e+01
2.600000e-06	-1.891369e-06	-1.580773e-10	-1.305878e+01	-1.081360e+01
2.610000e-06	-2.043809e-06	-1.713692e-10	-1.411129e+01	-1.161006e+01
2.620000e-06	-2.195380e-06	-1.857546e-10	-1.515780e+01	-1.240271e+01
2.630000e-06	-2.346134e-06	-1.967858e-10	-1.619866e+01	-1.319129e+01
2.640000e-06	-2.496111e-06	-2.041999e-10	-1.723417e+01	-1.397559e+01
2.650000e-06	-2.645230e-06	-2.119399e-10	-1.826374e+01	-1.475534e+01
2.660000e-06	-2.793357e-06	-2.223946e-10	-1.928647e+01	-1.553032e+01
2.670000e-06	-2.940547e-06	-2.349928e-10	-2.030274e+01	-1.630028e+01
2.680000e-06	-3.086748e-06	-2.486272e-10	-2.131217e+01	-1.706498e+01
2.690000e-06	-3.231870e-06	-2.621838e-10	-2.231415e+01	-1.782418e+01
2.700000e-06	-3.375714e-06	-2.776947e-10	-2.330730e+01	-1.857765e+01
2.710000e-06	-3.518224e-06	-2.947499e-10	-2.429125e+01	-1.932514e+01
2.720000e-06	-3.659405e-06	-3.075819e-10	-2.526602e+01	-2.006641e+01
2.730000e-06	-3.799242e-06	-3.138436e-10	-2.623152e+01	-2.080122e+01
2.740000e-06	-3.937757e-06	-3.163337e-10	-2.718788e+01	-2.152932e+01
2.750000e-06	-4.074782e-06	-3.219315e-10	-2.813396e+01	-2.225049e+01
2.760000e-06	-4.210183e-06	-3.328858e-10	-2.906882e+01	-2.296447e+01
2.770000e-06	-4.344044e-06	-3.443487e-10	-2.999305e+01	-2.367103e+01
2.780000e-06	-4.476437e-06	-3.565299e-10	-3.090714e+01	-2.436993e+01
2.790000e-06	-4.607230e-06	-3.726750e-10	-3.181020e+01	-2.506091e+01
2.800000e-06	-4.736406e-06	-3.919782e-10	-3.270208e+01	-2.574375e+01
2.810000e-06	-4.863922e-06	-4.078052e-10	-3.358250e+01	-2.641820e+01
2.820000e-06	-4.989731e-06	-4.153205e-10	-3.445114e+01	-2.708402e+01
2.830000e-06	-5.113811e-06	-4.169105e-10	-3.530784e+01	-2.774098e+01
2.840000e-06	-5.236023e-06	-4.207984e-10	-3.615164e+01	-2.838882e+01
2.850000e-06	-5.356265e-06	-4.306516e-10	-3.698184e+01	-2.902731e+01
2.860000e-06	-5.474526e-06	-4.433303e-10	-3.779836e+01	-2.965621e+01
2.870000e-06	-5.590729e-06	-4.554226e-10	-3.860067e+01	-3.027528e+01
2.880000e-06	-5.704644e-06	-4.661439e-10	-3.938719e+01	-3.088430e+01
2.890000e-06	-5.816183e-06	-4.796105e-10	-4.015729e+01	-3.148300e+01
2.900000e-06	-5.925557e-06	-4.932593e-10	-4.091246e+01	-3.207118e+01
2.910000e-06	-6.032899e-06	-4.998997e-10	-4.165359e+01	-3.264858e+01
2.920000e-06	-6.138240e-06	-5.011724e-10	-4.238091e+01	-3.321498e+01
2.930000e-06	-6.241426e-06	-5.052343e-10	-4.309335e+01	-3.377014e+01
2.940000e-06	-6.342244e-06	-5.165672e-10	-4.378944e+01	-3.431384e+01
