# Temperatura_=_20.0
# Concentracion g/m^3_=_10000.0
# C_Vs_to_Am_M_A/Vsm_=_65563218390.804596
# pendiente_HvsI_1/m_=_3716.3
# ordenada_HvsI_A/m_=_1297.0
# frecuencia_Hz_=_300953.5873878271

Tiempo_(s)	Campo_(V.s)	Magnetizacion_(V.s)	Campo_(kA/m)	Magnetizacion_(A/m)
0.000000e+00	-5.536744e-06	-9.762923e-09	-3.826081e+01	-6.401208e+02
1.000000e-08	-5.533988e-06	-9.761959e-09	-3.824177e+01	-6.401044e+02
2.000000e-08	-5.529379e-06	-9.756168e-09	-3.820992e+01	-6.400749e+02
3.000000e-08	-5.523139e-06	-9.751579e-09	-3.816680e+01	-6.398784e+02
4.000000e-08	-5.515247e-06	-9.745380e-09	-3.811226e+01	-6.393698e+02
5.000000e-08	-5.505451e-06	-9.735463e-09	-3.804457e+01	-6.385195e+02
6.000000e-08	-5.493496e-06	-9.717150e-09	-3.796195e+01	-6.374591e+02
7.000000e-08	-5.479569e-06	-9.672551e-09	-3.786571e+01	-6.364202e+02
8.000000e-08	-5.463475e-06	-9.687338e-09	-3.775450e+01	-6.355928e+02
9.000000e-08	-5.444990e-06	-9.765988e-09	-3.762676e+01	-6.349938e+02
1.000000e-07	-5.424376e-06	-9.720323e-09	-3.748431e+01	-6.344383e+02
1.100000e-07	-5.401832e-06	-9.668348e-09	-3.732853e+01	-6.336465e+02
1.200000e-07	-5.377652e-06	-9.639636e-09	-3.716144e+01	-6.324216e+02
1.300000e-07	-5.352001e-06	-9.462382e-09	-3.698418e+01	-6.307848e+02
1.400000e-07	-5.324625e-06	-9.610562e-09	-3.679500e+01	-6.289727e+02
1.500000e-07	-5.295453e-06	-9.694772e-09	-3.659341e+01	-6.272937e+02
1.600000e-07	-5.264709e-06	-9.403752e-09	-3.638096e+01	-6.259339e+02
1.700000e-07	-5.232212e-06	-9.557204e-09	-3.615640e+01	-6.248391e+02
1.800000e-07	-5.197494e-06	-9.576758e-09	-3.591648e+01	-6.237490e+02
1.900000e-07	-5.161097e-06	-9.383044e-09	-3.566496e+01	-6.223595e+02
2.000000e-07	-5.123225e-06	-9.555612e-09	-3.540325e+01	-6.205034e+02
2.100000e-07	-5.083456e-06	-9.429306e-09	-3.512844e+01	-6.182350e+02
2.200000e-07	-5.041771e-06	-9.272819e-09	-3.484038e+01	-6.157698e+02
2.300000e-07	-4.998039e-06	-9.390590e-09	-3.453817e+01	-6.133304e+02
2.400000e-07	-4.952475e-06	-9.342808e-09	-3.422332e+01	-6.110073e+02
2.500000e-07	-4.905180e-06	-9.323188e-09	-3.389649e+01	-6.087235e+02
2.600000e-07	-4.855674e-06	-9.224761e-09	-3.355438e+01	-6.063150e+02
2.700000e-07	-4.803978e-06	-9.123290e-09	-3.319715e+01	-6.036576e+02
2.800000e-07	-4.750473e-06	-9.166734e-09	-3.282741e+01	-6.007482e+02
2.900000e-07	-4.695261e-06	-9.144900e-09	-3.244588e+01	-5.976876e+02
3.000000e-07	-4.638402e-06	-9.076849e-09	-3.205296e+01	-5.945904e+02
3.100000e-07	-4.579738e-06	-8.978267e-09	-3.164757e+01	-5.914935e+02
3.200000e-07	-4.519341e-06	-8.967597e-09	-3.123021e+01	-5.883328e+02
3.300000e-07	-4.457503e-06	-8.953992e-09	-3.080289e+01	-5.849974e+02
3.400000e-07	-4.394271e-06	-8.866049e-09	-3.036593e+01	-5.814159e+02
3.500000e-07	-4.329476e-06	-8.802479e-09	-2.991818e+01	-5.776059e+02
3.600000e-07	-4.262854e-06	-8.686967e-09	-2.945780e+01	-5.736530e+02
3.700000e-07	-4.194592e-06	-8.669638e-09	-2.898608e+01	-5.696388e+02
3.800000e-07	-4.124909e-06	-8.682736e-09	-2.850455e+01	-5.655767e+02
3.900000e-07	-4.053830e-06	-8.573243e-09	-2.801337e+01	-5.614010e+02
4.000000e-07	-3.981467e-06	-8.475329e-09	-2.751331e+01	-5.570166e+02
4.100000e-07	-3.907540e-06	-8.393627e-09	-2.700245e+01	-5.523674e+02
4.200000e-07	-3.831899e-06	-8.371402e-09	-2.647975e+01	-5.474724e+02
4.300000e-07	-3.754759e-06	-8.304265e-09	-2.594668e+01	-5.424046e+02
4.400000e-07	-3.676026e-06	-8.179610e-09	-2.540261e+01	-5.372337e+02
4.500000e-07	-3.595604e-06	-8.076518e-09	-2.484687e+01	-5.319758e+02
4.600000e-07	-3.513853e-06	-8.018512e-09	-2.428194e+01	-5.265862e+02
4.700000e-07	-3.431005e-06	-7.986414e-09	-2.370943e+01	-5.209959e+02
4.800000e-07	-3.347110e-06	-7.878622e-09	-2.312969e+01	-5.151598e+02
4.900000e-07	-3.262205e-06	-7.752491e-09	-2.254297e+01	-5.090811e+02
5.000000e-07	-3.176189e-06	-7.651723e-09	-2.194856e+01	-5.027960e+02
5.100000e-07	-3.089157e-06	-7.587190e-09	-2.134714e+01	-4.963375e+02
5.200000e-07	-3.001306e-06	-7.503519e-09	-2.074006e+01	-4.897076e+02
5.300000e-07	-2.912524e-06	-7.363006e-09	-2.012655e+01	-4.828781e+02
5.400000e-07	-2.822373e-06	-7.227945e-09	-1.950357e+01	-4.758146e+02
5.500000e-07	-2.730924e-06	-7.139115e-09	-1.887163e+01	-4.685008e+02
5.600000e-07	-2.638548e-06	-7.064540e-09	-1.823328e+01	-4.609429e+02
5.700000e-07	-2.545291e-06	-6.941028e-09	-1.758884e+01	-4.531530e+02
5.800000e-07	-2.451112e-06	-6.785208e-09	-1.693803e+01	-4.451301e+02
5.900000e-07	-2.356043e-06	-6.648239e-09	-1.628107e+01	-4.368556e+02
6.000000e-07	-2.260347e-06	-6.543289e-09	-1.561978e+01	-4.283089e+02
6.100000e-07	-2.164070e-06	-6.424331e-09	-1.495447e+01	-4.194864e+02
6.200000e-07	-2.066899e-06	-6.265105e-09	-1.428299e+01	-4.104055e+02
6.300000e-07	-1.968664e-06	-6.097914e-09	-1.360415e+01	-4.010859e+02
6.400000e-07	-1.869478e-06	-5.966859e-09	-1.291874e+01	-3.915227e+02
6.500000e-07	-1.769682e-06	-5.849204e-09	-1.222912e+01	-3.816736e+02
6.600000e-07	-1.669408e-06	-5.694605e-09	-1.153618e+01	-3.714744e+02
6.700000e-07	-1.568557e-06	-5.505879e-09	-1.083927e+01	-3.608749e+02
6.800000e-07	-1.467118e-06	-5.324698e-09	-1.013829e+01	-3.498694e+02
6.900000e-07	-1.365203e-06	-5.173114e-09	-9.434027e+00	-3.384977e+02
7.000000e-07	-1.262820e-06	-5.010655e-09	-8.726521e+00	-3.268151e+02
7.100000e-07	-1.159855e-06	-4.812056e-09	-8.015002e+00	-3.148507e+02
7.200000e-07	-1.056477e-06	-4.600928e-09	-7.300622e+00	-3.025817e+02
7.300000e-07	-9.528737e-07	-4.413984e-09	-6.584686e+00	-2.899425e+02
7.400000e-07	-8.490934e-07	-4.238770e-09	-5.867529e+00	-2.768589e+02
7.500000e-07	-7.451250e-07	-4.036477e-09	-5.149071e+00	-2.632836e+02
7.600000e-07	-6.409416e-07	-3.803674e-09	-4.429128e+00	-2.492100e+02
7.700000e-07	-5.364998e-07	-3.570551e-09	-3.707399e+00	-2.346580e+02
7.800000e-07	-4.318669e-07	-3.355691e-09	-2.984349e+00	-2.196460e+02
7.900000e-07	-3.270794e-07	-3.132773e-09	-2.260232e+00	-2.041708e+02
8.000000e-07	-2.220685e-07	-2.878601e-09	-1.534570e+00	-1.882068e+02
8.100000e-07	-1.168989e-07	-2.604828e-09	-8.078118e-01	-1.717192e+02
8.200000e-07	-1.169969e-08	-2.345161e-09	-8.084894e-02	-1.546777e+02
8.300000e-07	9.347932e-08	-2.096350e-09	6.459744e-01	-1.370595e+02
8.400000e-07	1.986114e-07	-1.827844e-09	1.372473e+00	-1.188437e+02
8.500000e-07	3.036419e-07	-1.527628e-09	2.098271e+00	-1.000074e+02
8.600000e-07	4.085397e-07	-1.216790e-09	2.823150e+00	-8.053294e+01
8.700000e-07	5.132133e-07	-9.172157e-10	3.546482e+00	-6.042271e+01
8.800000e-07	6.176446e-07	-6.131977e-10	4.268137e+00	-3.970868e+01
8.900000e-07	7.218818e-07	-2.846186e-10	4.988452e+00	-1.844688e+01
9.000000e-07	8.259370e-07	6.368422e-11	5.707510e+00	3.301995e+00
9.100000e-07	9.297911e-07	4.037839e-10	6.425178e+00	2.549121e+01
9.200000e-07	1.033425e-06	7.328524e-10	7.141327e+00	4.808928e+01
9.300000e-07	1.136773e-06	1.073398e-09	7.855497e+00	7.105981e+01
9.400000e-07	1.239726e-06	1.437527e-09	8.566937e+00	9.433244e+01
9.500000e-07	1.342225e-06	1.807937e-09	9.275235e+00	1.177865e+02
9.600000e-07	1.444243e-06	2.161905e-09	9.980218e+00	1.412604e+02
9.700000e-07	1.545777e-06	2.505227e-09	1.068185e+01	1.645819e+02
9.800000e-07	1.646740e-06	2.856024e-09	1.137954e+01	1.875991e+02
9.900000e-07	1.747126e-06	3.214008e-09	1.207324e+01	2.101910e+02
1.000000e-06	1.847044e-06	3.555051e-09	1.276371e+01	2.322550e+02
1.010000e-06	1.946438e-06	3.870097e-09	1.345056e+01	2.536854e+02
1.020000e-06	2.045002e-06	4.174740e-09	1.413167e+01	2.743652e+02
1.030000e-06	2.142471e-06	4.482580e-09	1.480521e+01	2.941839e+02
1.040000e-06	2.238944e-06	4.780844e-09	1.547188e+01	3.130704e+02
1.050000e-06	2.334724e-06	5.050830e-09	1.613375e+01	3.310190e+02
1.060000e-06	2.429818e-06	5.299610e-09	1.679088e+01	3.480867e+02
1.070000e-06	2.524088e-06	5.544037e-09	1.744232e+01	3.643595e+02
1.080000e-06	2.617557e-06	5.790018e-09	1.808822e+01	3.799076e+02
1.090000e-06	2.710155e-06	6.021082e-09	1.872811e+01	3.947550e+02
1.100000e-06	2.801897e-06	6.229454e-09	1.936208e+01	4.088810e+02
1.110000e-06	2.892661e-06	6.425203e-09	1.998929e+01	4.222493e+02
1.120000e-06	2.982167e-06	6.621308e-09	2.060780e+01	4.348431e+02
1.130000e-06	3.070476e-06	6.810929e-09	2.121805e+01	4.466862e+02
1.140000e-06	3.157762e-06	6.980734e-09	2.182122e+01	4.578410e+02
1.150000e-06	3.244026e-06	7.134217e-09	2.241734e+01	4.683881e+02
1.160000e-06	3.329202e-06	7.284044e-09	2.300593e+01	4.784042e+02
1.170000e-06	3.413348e-06	7.437495e-09	2.358741e+01	4.879473e+02
1.180000e-06	3.496408e-06	7.582325e-09	2.416139e+01	4.970514e+02
1.190000e-06	3.578106e-06	7.710128e-09	2.472595e+01	5.057281e+02
1.200000e-06	3.658421e-06	7.827609e-09	2.528095e+01	5.139710e+02
1.210000e-06	3.737453e-06	7.948704e-09	2.582709e+01	5.217643e+02
1.220000e-06	3.815163e-06	8.068832e-09	2.636409e+01	5.290978e+02
1.230000e-06	3.891533e-06	8.175060e-09	2.689184e+01	5.359840e+02
1.240000e-06	3.966368e-06	8.265978e-09	2.740897e+01	5.424690e+02
1.250000e-06	4.039491e-06	8.355015e-09	2.791428e+01	5.486247e+02
1.260000e-06	4.111152e-06	8.451519e-09	2.840948e+01	5.545245e+02
1.270000e-06	4.181443e-06	8.546420e-09	2.889521e+01	5.602129e+02
1.280000e-06	4.250312e-06	8.626625e-09	2.937112e+01	5.656881e+02
1.290000e-06	4.317801e-06	8.696897e-09	2.983749e+01	5.709106e+02
1.300000e-06	4.383584e-06	8.771339e-09	3.029208e+01	5.758327e+02
1.310000e-06	4.447676e-06	8.848987e-09	3.073498e+01	5.804322e+02
1.320000e-06	4.510314e-06	8.918303e-09	3.116783e+01	5.847279e+02
1.330000e-06	4.571485e-06	8.973622e-09	3.159054e+01	5.887704e+02
1.340000e-06	4.631208e-06	9.026852e-09	3.200325e+01	5.926170e+02
1.350000e-06	4.689187e-06	9.086924e-09	3.240390e+01	5.963087e+02
1.360000e-06	4.745331e-06	9.146846e-09	3.279188e+01	5.998636e+02
1.370000e-06	4.799835e-06	9.196309e-09	3.316852e+01	6.032838e+02
1.380000e-06	4.852561e-06	9.237956e-09	3.353287e+01	6.065644e+02
1.390000e-06	4.903145e-06	9.283245e-09	3.388243e+01	6.096940e+02
1.400000e-06	4.951669e-06	9.332632e-09	3.421774e+01	6.126496e+02
1.410000e-06	4.998463e-06	9.376538e-09	3.454111e+01	6.153970e+02
1.420000e-06	5.043644e-06	9.411451e-09	3.485332e+01	6.179083e+02
1.430000e-06	5.087115e-06	9.444507e-09	3.515372e+01	6.201897e+02
1.440000e-06	5.128535e-06	9.481183e-09	3.543995e+01	6.222983e+02
1.450000e-06	5.168070e-06	9.518176e-09	3.571315e+01	6.243273e+02
1.460000e-06	5.206030e-06	9.548063e-09	3.597547e+01	6.263597e+02
1.470000e-06	5.242340e-06	9.570950e-09	3.622638e+01	6.284144e+02
1.480000e-06	5.276661e-06	9.595728e-09	3.646355e+01	6.304238e+02
1.490000e-06	5.308967e-06	9.624893e-09	3.668680e+01	6.322640e+02
1.500000e-06	5.339544e-06	9.653012e-09	3.689809e+01	6.338262e+02
1.510000e-06	5.368391e-06	9.673918e-09	3.709744e+01	6.350845e+02
1.520000e-06	5.395254e-06	9.687958e-09	3.728307e+01	6.361159e+02
1.530000e-06	5.420010e-06	9.702591e-09	3.745414e+01	6.370566e+02
1.540000e-06	5.442864e-06	9.718378e-09	3.761207e+01	6.380226e+02
1.550000e-06	5.463980e-06	9.732252e-09	3.775799e+01	6.390466e+02
1.560000e-06	5.483357e-06	9.743553e-09	3.789189e+01	6.400705e+02
1.570000e-06	5.500762e-06	9.754135e-09	3.801217e+01	6.409942e+02
1.580000e-06	5.516083e-06	9.768090e-09	3.811804e+01	6.417415e+02
1.590000e-06	5.529401e-06	9.783299e-09	3.821007e+01	6.422969e+02
1.600000e-06	5.540508e-06	9.791813e-09	3.828682e+01	6.426919e+02
1.610000e-06	5.549337e-06	9.792789e-09	3.834784e+01	6.429632e+02
1.620000e-06	5.556218e-06	9.791381e-09	3.839539e+01	6.431219e+02
1.630000e-06	5.561335e-06	9.793051e-09	3.843075e+01	6.431625e+02
1.640000e-06	5.564513e-06	9.795578e-09	3.845271e+01	6.430983e+02
1.650000e-06	5.565568e-06	9.798259e-09	3.846000e+01	6.429850e+02
1.660000e-06	5.564753e-06	9.796815e-09	3.845437e+01	6.428990e+02
1.670000e-06	5.562296e-06	9.791988e-09	3.843739e+01	6.428757e+02
1.680000e-06	5.558097e-06	9.795236e-09	3.840837e+01	6.428561e+02
1.690000e-06	5.551904e-06	9.791107e-09	3.836557e+01	6.426936e+02
1.700000e-06	5.543822e-06	9.778972e-09	3.830973e+01	6.422348e+02
1.710000e-06	5.534095e-06	9.768852e-09	3.824251e+01	6.414287e+02
1.720000e-06	5.522596e-06	9.777189e-09	3.816305e+01	6.403848e+02
1.730000e-06	5.509016e-06	9.808755e-09	3.806920e+01	6.393283e+02
1.740000e-06	5.493396e-06	9.692488e-09	3.796126e+01	6.384645e+02
1.750000e-06	5.475541e-06	9.628871e-09	3.783788e+01	6.378398e+02
1.760000e-06	5.454823e-06	9.660376e-09	3.769471e+01	6.372946e+02
1.770000e-06	5.431573e-06	9.650114e-09	3.753404e+01	6.365522e+02
1.780000e-06	5.406885e-06	9.832345e-09	3.736345e+01	6.353935e+02
1.790000e-06	5.381510e-06	9.693181e-09	3.718809e+01	6.338048e+02
1.800000e-06	5.354843e-06	9.463267e-09	3.700382e+01	6.319982e+02
1.810000e-06	5.325656e-06	9.758157e-09	3.680212e+01	6.302838e+02
1.820000e-06	5.294545e-06	9.598350e-09	3.658714e+01	6.288755e+02
1.830000e-06	5.262091e-06	9.480870e-09	3.636286e+01	6.277551e+02
1.840000e-06	5.227660e-06	9.729696e-09	3.612494e+01	6.266839e+02
1.850000e-06	5.191434e-06	9.400604e-09	3.587460e+01	6.253519e+02
1.860000e-06	5.153221e-06	9.427158e-09	3.561054e+01	6.235640e+02
1.870000e-06	5.112948e-06	9.669533e-09	3.533223e+01	6.213434e+02
1.880000e-06	5.071171e-06	9.405971e-09	3.504355e+01	6.188908e+02
1.890000e-06	5.027519e-06	9.417234e-09	3.474189e+01	6.164380e+02
1.900000e-06	4.982075e-06	9.322993e-09	3.442786e+01	6.140992e+02
1.910000e-06	4.935047e-06	9.273876e-09	3.410288e+01	6.118189e+02
1.920000e-06	4.885985e-06	9.464227e-09	3.376385e+01	6.094378e+02
1.930000e-06	4.835098e-06	9.218900e-09	3.341220e+01	6.068191e+02
1.940000e-06	4.782248e-06	9.198972e-09	3.304699e+01	6.039409e+02
1.950000e-06	4.727388e-06	9.187411e-09	3.266789e+01	6.008938e+02
1.960000e-06	4.670852e-06	9.131475e-09	3.227720e+01	5.977969e+02
1.970000e-06	4.612615e-06	9.148415e-09	3.187477e+01	5.947016e+02
1.980000e-06	4.552966e-06	8.945634e-09	3.146257e+01	5.915564e+02
1.990000e-06	4.491620e-06	8.986476e-09	3.103864e+01	5.882518e+02
2.000000e-06	4.428496e-06	8.913965e-09	3.060244e+01	5.847064e+02
2.010000e-06	4.363872e-06	8.905948e-09	3.015586e+01	5.809245e+02
2.020000e-06	4.297634e-06	8.898026e-09	2.969813e+01	5.769858e+02
2.030000e-06	4.229959e-06	8.655742e-09	2.923048e+01	5.729773e+02
2.040000e-06	4.160592e-06	8.685250e-09	2.875113e+01	5.689243e+02
2.050000e-06	4.089612e-06	8.624725e-09	2.826063e+01	5.647705e+02
2.060000e-06	4.017310e-06	8.595863e-09	2.776100e+01	5.604207e+02
2.070000e-06	3.943504e-06	8.491539e-09	2.725098e+01	5.558097e+02
2.080000e-06	3.868182e-06	8.335625e-09	2.673048e+01	5.509458e+02
2.090000e-06	3.791132e-06	8.362293e-09	2.619803e+01	5.458975e+02
2.100000e-06	3.712422e-06	8.275885e-09	2.565412e+01	5.407385e+02
2.110000e-06	3.632443e-06	8.219103e-09	2.510144e+01	5.354944e+02
2.120000e-06	3.551344e-06	8.058322e-09	2.454102e+01	5.301276e+02
2.130000e-06	3.469116e-06	7.971854e-09	2.397279e+01	5.245694e+02
2.140000e-06	3.385745e-06	7.942375e-09	2.339667e+01	5.187692e+02
2.150000e-06	3.301112e-06	7.837398e-09	2.281182e+01	5.127231e+02
2.160000e-06	3.215027e-06	7.737811e-09	2.221695e+01	5.064648e+02
2.170000e-06	3.127758e-06	7.577353e-09	2.161389e+01	5.000298e+02
2.180000e-06	3.039521e-06	7.526164e-09	2.100414e+01	4.934254e+02
2.190000e-06	2.950306e-06	7.453682e-09	2.038763e+01	4.866264e+02
2.200000e-06	2.860138e-06	7.338854e-09	1.976454e+01	4.795977e+02
2.210000e-06	2.769076e-06	7.188275e-09	1.913527e+01	4.723195e+02
2.220000e-06	2.677049e-06	7.052677e-09	1.849934e+01	4.647953e+02
2.230000e-06	2.583840e-06	6.983939e-09	1.785522e+01	4.570380e+02
2.240000e-06	2.489572e-06	6.867692e-09	1.720380e+01	4.490490e+02
2.250000e-06	2.394456e-06	6.728623e-09	1.654652e+01	4.408116e+02
2.260000e-06	2.298542e-06	6.563625e-09	1.588372e+01	4.323043e+02
2.270000e-06	2.201862e-06	6.449874e-09	1.521563e+01	4.235203e+02
2.280000e-06	2.104445e-06	6.348341e-09	1.454244e+01	4.144746e+02
2.290000e-06	2.006321e-06	6.202387e-09	1.386437e+01	4.051884e+02
2.300000e-06	1.907534e-06	6.023190e-09	1.318172e+01	3.956616e+02
2.310000e-06	1.808260e-06	5.853488e-09	1.249570e+01	3.858568e+02
2.320000e-06	1.708530e-06	5.730958e-09	1.180654e+01	3.757112e+02
2.330000e-06	1.608192e-06	5.587349e-09	1.111316e+01	3.651703e+02
2.340000e-06	1.507006e-06	5.407183e-09	1.041393e+01	3.542210e+02
2.350000e-06	1.404929e-06	5.207365e-09	9.708545e+00	3.428978e+02
2.360000e-06	1.302268e-06	5.041695e-09	8.999125e+00	3.312566e+02
2.370000e-06	1.199272e-06	4.890494e-09	8.287386e+00	3.193323e+02
2.380000e-06	1.096025e-06	4.703910e-09	7.573914e+00	3.071099e+02
2.390000e-06	9.923799e-07	4.488149e-09	6.857688e+00	2.945282e+02
2.400000e-06	8.883065e-07	4.274139e-09	6.138505e+00	2.815116e+02
2.410000e-06	7.838846e-07	4.090202e-09	5.416914e+00	2.680076e+02
2.420000e-06	6.792113e-07	3.896266e-09	4.693585e+00	2.540042e+02
2.430000e-06	5.743836e-07	3.664387e-09	3.969189e+00	2.395188e+02
2.440000e-06	4.693398e-07	3.413102e-09	3.243301e+00	2.245719e+02
2.450000e-06	3.641486e-07	3.181257e-09	2.516392e+00	2.091638e+02
2.460000e-06	2.589059e-07	2.963993e-09	1.789129e+00	1.932715e+02
2.470000e-06	1.536001e-07	2.720436e-09	1.061430e+00	1.768604e+02
2.480000e-06	4.822252e-08	2.443147e-09	3.332343e-01	1.598994e+02
2.490000e-06	-5.717871e-08	2.158925e-09	-3.951246e-01	1.423646e+02
2.500000e-06	-1.625288e-07	1.894372e-09	-1.123130e+00	1.242353e+02
2.510000e-06	-2.677984e-07	1.626106e-09	-1.850579e+00	1.054887e+02
2.520000e-06	-3.729692e-07	1.327572e-09	-2.577346e+00	8.610574e+01
2.530000e-06	-4.780413e-07	1.007540e-09	-3.303430e+00	6.608487e+01
2.540000e-06	-5.830043e-07	6.922804e-10	-4.028761e+00	4.545382e+01
2.550000e-06	-6.877837e-07	3.876548e-10	-4.752823e+00	2.426619e+01
2.560000e-06	-7.922750e-07	6.510505e-11	-5.474894e+00	2.583358e+00
2.570000e-06	-8.964161e-07	-2.860895e-10	-6.194545e+00	-1.954533e+01
2.580000e-06	-1.000219e-06	-6.464905e-10	-6.911858e+00	-4.208702e+01
2.590000e-06	-1.103670e-06	-9.907527e-10	-7.626739e+00	-6.500781e+01
2.600000e-06	-1.206760e-06	-1.328242e-09	-8.339129e+00	-8.824370e+01
2.610000e-06	-1.309466e-06	-1.684994e-09	-9.048865e+00	-1.116813e+02
2.620000e-06	-1.411684e-06	-2.057662e-09	-9.755223e+00	-1.351632e+02
2.630000e-06	-1.513235e-06	-2.420263e-09	-1.045698e+01	-1.585168e+02
2.640000e-06	-1.613937e-06	-2.760172e-09	-1.115286e+01	-1.815858e+02
2.650000e-06	-1.713828e-06	-3.095464e-09	-1.184315e+01	-2.042452e+02
2.660000e-06	-1.813161e-06	-3.439911e-09	-1.252957e+01	-2.263910e+02
2.670000e-06	-1.912064e-06	-3.781635e-09	-1.321302e+01	-2.479191e+02
2.680000e-06	-2.010375e-06	-4.097225e-09	-1.389239e+01	-2.687136e+02
2.690000e-06	-2.107944e-06	-4.388517e-09	-1.456662e+01	-2.886612e+02
2.700000e-06	-2.204844e-06	-4.676301e-09	-1.523623e+01	-3.076831e+02
2.710000e-06	-2.301034e-06	-4.963570e-09	-1.590094e+01	-3.257636e+02
2.720000e-06	-2.396474e-06	-5.233801e-09	-1.656046e+01	-3.429523e+02
2.730000e-06	-2.491227e-06	-5.476483e-09	-1.721524e+01	-3.593338e+02
2.740000e-06	-2.585160e-06	-5.705553e-09	-1.786435e+01	-3.749830e+02
2.750000e-06	-2.677940e-06	-5.938497e-09	-1.850549e+01	-3.899311e+02
2.760000e-06	-2.769494e-06	-6.167837e-09	-1.913816e+01	-4.041627e+02
2.770000e-06	-2.860045e-06	-6.372980e-09	-1.976390e+01	-4.176413e+02
2.780000e-06	-2.949576e-06	-6.554166e-09	-2.038259e+01	-4.303455e+02
2.790000e-06	-3.038100e-06	-6.730998e-09	-2.099432e+01	-4.422930e+02
2.800000e-06	-3.125678e-06	-6.913183e-09	-2.159951e+01	-4.535416e+02
2.810000e-06	-3.212287e-06	-7.085432e-09	-2.219802e+01	-4.641707e+02
2.820000e-06	-3.297615e-06	-7.234651e-09	-2.278766e+01	-4.742589e+02
2.830000e-06	-3.381529e-06	-7.369717e-09	-2.336753e+01	-4.838671e+02
2.840000e-06	-3.464331e-06	-7.507138e-09	-2.393972e+01	-4.930329e+02
2.850000e-06	-3.546024e-06	-7.649352e-09	-2.450425e+01	-5.017710e+02
2.860000e-06	-3.626510e-06	-7.779545e-09	-2.506044e+01	-5.100770e+02
2.870000e-06	-3.705762e-06	-7.891172e-09	-2.560809e+01	-5.179357e+02
2.880000e-06	-3.783535e-06	-7.997175e-09	-2.614553e+01	-5.253350e+02
2.890000e-06	-3.859680e-06	-8.108574e-09	-2.667173e+01	-5.322834e+02
2.900000e-06	-3.934327e-06	-8.217695e-09	-2.718756e+01	-5.388219e+02
2.910000e-06	-4.007553e-06	-8.312318e-09	-2.769358e+01	-5.450200e+02
2.920000e-06	-4.079401e-06	-8.395793e-09	-2.819007e+01	-5.509529e+02
2.930000e-06	-4.149888e-06	-8.480136e-09	-2.867716e+01	-5.566708e+02
2.940000e-06	-4.218718e-06	-8.568513e-09	-2.915280e+01	-5.621785e+02
