# Temperatura_=_20.0
# Concentracion g/m^3_=_10000.0
# C_Vs_to_Am_M_A/Vsm_=_65563218390.804596
# pendiente_HvsI_1/m_=_3716.3
# ordenada_HvsI_A/m_=_1297.0
# frecuencia_Hz_=_300954.3708258406

Tiempo_(s)	Campo_(V.s)	Magnetizacion_(V.s)	Campo_(kA/m)	Magnetizacion_(A/m)
0.000000e+00	-5.520668e-06	-9.744880e-09	-3.825941e+01	-6.386074e+02
1.000000e-08	-5.517674e-06	-9.745957e-09	-3.823866e+01	-6.384668e+02
2.000000e-08	-5.512825e-06	-9.744617e-09	-3.820505e+01	-6.383818e+02
3.000000e-08	-5.506314e-06	-9.740961e-09	-3.815993e+01	-6.382324e+02
4.000000e-08	-5.498212e-06	-9.732059e-09	-3.810378e+01	-6.378725e+02
5.000000e-08	-5.488156e-06	-9.720429e-09	-3.803410e+01	-6.372243e+02
6.000000e-08	-5.475961e-06	-9.703092e-09	-3.794958e+01	-6.363350e+02
7.000000e-08	-5.461809e-06	-9.670225e-09	-3.785150e+01	-6.353520e+02
8.000000e-08	-5.445381e-06	-9.683306e-09	-3.773765e+01	-6.344277e+02
9.000000e-08	-5.426653e-06	-9.719592e-09	-3.760786e+01	-6.336163e+02
1.000000e-07	-5.405923e-06	-9.684559e-09	-3.746420e+01	-6.328351e+02
1.100000e-07	-5.383260e-06	-9.655966e-09	-3.730714e+01	-6.319208e+02
1.200000e-07	-5.358954e-06	-9.608751e-09	-3.713870e+01	-6.307438e+02
1.300000e-07	-5.333146e-06	-9.502062e-09	-3.695984e+01	-6.293044e+02
1.400000e-07	-5.305609e-06	-9.603182e-09	-3.676901e+01	-6.277384e+02
1.500000e-07	-5.276337e-06	-9.605313e-09	-3.656615e+01	-6.262281e+02
1.600000e-07	-5.245526e-06	-9.451503e-09	-3.635262e+01	-6.248749e+02
1.700000e-07	-5.212879e-06	-9.541527e-09	-3.612637e+01	-6.236241e+02
1.800000e-07	-5.178016e-06	-9.503101e-09	-3.588476e+01	-6.222929e+02
1.900000e-07	-5.141545e-06	-9.416071e-09	-3.563200e+01	-6.206850e+02
2.000000e-07	-5.103535e-06	-9.494725e-09	-3.536859e+01	-6.187140e+02
2.100000e-07	-5.063619e-06	-9.391217e-09	-3.509196e+01	-6.164515e+02
2.200000e-07	-5.021774e-06	-9.308671e-09	-3.480197e+01	-6.140698e+02
2.300000e-07	-4.977950e-06	-9.351255e-09	-3.449826e+01	-6.117213e+02
2.400000e-07	-4.932353e-06	-9.316144e-09	-3.418226e+01	-6.094383e+02
2.500000e-07	-4.884942e-06	-9.284278e-09	-3.385370e+01	-6.071215e+02
2.600000e-07	-4.835338e-06	-9.183231e-09	-3.350993e+01	-6.046189e+02
2.700000e-07	-4.783603e-06	-9.131466e-09	-3.315139e+01	-6.018383e+02
2.800000e-07	-4.730043e-06	-9.138912e-09	-3.278021e+01	-5.988113e+02
2.900000e-07	-4.674832e-06	-9.095723e-09	-3.239758e+01	-5.956683e+02
3.000000e-07	-4.617989e-06	-9.048508e-09	-3.200365e+01	-5.925456e+02
3.100000e-07	-4.559247e-06	-8.968374e-09	-3.159656e+01	-5.894910e+02
3.200000e-07	-4.498814e-06	-8.935123e-09	-3.117775e+01	-5.864337e+02
3.300000e-07	-4.436986e-06	-8.905504e-09	-3.074926e+01	-5.832325e+02
3.400000e-07	-4.373733e-06	-8.833961e-09	-3.031090e+01	-5.797675e+02
3.500000e-07	-4.308908e-06	-8.758321e-09	-2.986165e+01	-5.760077e+02
3.600000e-07	-4.242235e-06	-8.675792e-09	-2.939959e+01	-5.720165e+02
3.700000e-07	-4.173900e-06	-8.654353e-09	-2.892602e+01	-5.678961e+02
3.800000e-07	-4.104225e-06	-8.625405e-09	-2.844316e+01	-5.637184e+02
3.900000e-07	-4.033229e-06	-8.537600e-09	-2.795114e+01	-5.594877e+02
4.000000e-07	-3.960835e-06	-8.448385e-09	-2.744943e+01	-5.551540e+02
4.100000e-07	-3.886780e-06	-8.372902e-09	-2.693622e+01	-5.506575e+02
4.200000e-07	-3.811091e-06	-8.336106e-09	-2.641168e+01	-5.459656e+02
4.300000e-07	-3.734016e-06	-8.262172e-09	-2.587753e+01	-5.410783e+02
4.400000e-07	-3.655395e-06	-8.154625e-09	-2.533267e+01	-5.360052e+02
4.500000e-07	-3.575078e-06	-8.064274e-09	-2.477606e+01	-5.307411e+02
4.600000e-07	-3.493413e-06	-7.999450e-09	-2.421010e+01	-5.252629e+02
4.700000e-07	-3.410699e-06	-7.942502e-09	-2.363687e+01	-5.195507e+02
4.800000e-07	-3.326935e-06	-7.840683e-09	-2.305637e+01	-5.136123e+02
4.900000e-07	-3.242118e-06	-7.728222e-09	-2.246857e+01	-5.074871e+02
5.000000e-07	-3.156251e-06	-7.631824e-09	-2.187349e+01	-5.012224e+02
5.100000e-07	-3.069359e-06	-7.557497e-09	-2.127132e+01	-4.948376e+02
5.200000e-07	-2.981598e-06	-7.462926e-09	-2.066311e+01	-4.883047e+02
5.300000e-07	-2.892912e-06	-7.332437e-09	-2.004850e+01	-4.815594e+02
5.400000e-07	-2.802868e-06	-7.212589e-09	-1.942447e+01	-4.745373e+02
5.500000e-07	-2.711498e-06	-7.118970e-09	-1.879126e+01	-4.672089e+02
5.600000e-07	-2.619234e-06	-7.028581e-09	-1.815185e+01	-4.595898e+02
5.700000e-07	-2.526172e-06	-6.904454e-09	-1.750691e+01	-4.517205e+02
5.800000e-07	-2.432202e-06	-6.762950e-09	-1.685568e+01	-4.436340e+02
5.900000e-07	-2.337301e-06	-6.633395e-09	-1.619800e+01	-4.353339e+02
6.000000e-07	-2.241692e-06	-6.517590e-09	-1.553541e+01	-4.267986e+02
6.100000e-07	-2.145479e-06	-6.387826e-09	-1.486863e+01	-4.180039e+02
6.200000e-07	-2.048422e-06	-6.233582e-09	-1.419600e+01	-4.089432e+02
6.300000e-07	-1.950349e-06	-6.080862e-09	-1.351634e+01	-3.996278e+02
6.400000e-07	-1.851373e-06	-5.947721e-09	-1.283041e+01	-3.900668e+02
6.500000e-07	-1.751774e-06	-5.817060e-09	-1.214017e+01	-3.802425e+02
6.600000e-07	-1.651698e-06	-5.660125e-09	-1.144662e+01	-3.701024e+02
6.700000e-07	-1.551096e-06	-5.483369e-09	-1.074943e+01	-3.595772e+02
6.800000e-07	-1.449940e-06	-5.310645e-09	-1.004839e+01	-3.486145e+02
6.900000e-07	-1.348308e-06	-5.150872e-09	-9.344060e+00	-3.372082e+02
7.000000e-07	-1.246225e-06	-4.979642e-09	-8.636605e+00	-3.254024e+02
7.100000e-07	-1.143647e-06	-4.784495e-09	-7.925715e+00	-3.132683e+02
7.200000e-07	-1.040613e-06	-4.583481e-09	-7.211668e+00	-3.008647e+02
7.300000e-07	-9.372632e-07	-4.394374e-09	-6.495435e+00	-2.882035e+02
7.400000e-07	-8.336768e-07	-4.207745e-09	-5.777559e+00	-2.752369e+02
7.500000e-07	-7.298443e-07	-4.001801e-09	-5.057977e+00	-2.618711e+02
7.600000e-07	-6.257782e-07	-3.779309e-09	-4.336777e+00	-2.479989e+02
7.700000e-07	-5.215176e-07	-3.555651e-09	-3.614228e+00	-2.335377e+02
7.800000e-07	-4.171336e-07	-3.335932e-09	-2.890825e+00	-2.184576e+02
7.900000e-07	-3.125963e-07	-3.103725e-09	-2.166359e+00	-2.027889e+02
8.000000e-07	-2.078402e-07	-2.849201e-09	-1.440377e+00	-1.866044e+02
8.100000e-07	-1.029876e-07	-2.583733e-09	-7.137261e-01	-1.699829e+02
8.200000e-07	1.848396e-09	-2.324419e-09	1.280978e-02	-1.529662e+02
8.300000e-07	1.066290e-07	-2.067271e-09	7.389615e-01	-1.355306e+02
8.400000e-07	2.113520e-07	-1.795241e-09	1.464714e+00	-1.175874e+02
8.500000e-07	3.160154e-07	-1.504315e-09	2.190054e+00	-9.901773e+01
8.600000e-07	4.205145e-07	-1.204157e-09	2.914256e+00	-7.972588e+01
8.700000e-07	5.248217e-07	-9.025202e-10	3.637126e+00	-5.968600e+01
8.800000e-07	6.289723e-07	-5.914297e-10	4.358913e+00	-3.895649e+01
8.900000e-07	7.329656e-07	-2.635679e-10	5.079608e+00	-1.765490e+01
9.000000e-07	8.367767e-07	7.618659e-11	5.799041e+00	4.091984e+00
9.100000e-07	9.403697e-07	4.140534e-10	6.516963e+00	2.619340e+01
9.200000e-07	1.043649e-06	7.485683e-10	7.232711e+00	4.860930e+01
9.300000e-07	1.146575e-06	1.091736e-09	7.946012e+00	7.132833e+01
9.400000e-07	1.249107e-06	1.448218e-09	8.656576e+00	9.432570e+01
9.500000e-07	1.351158e-06	1.808274e-09	9.363814e+00	1.175282e+02
9.600000e-07	1.452744e-06	2.159886e-09	1.006782e+01	1.408069e+02
9.700000e-07	1.553845e-06	2.506723e-09	1.076848e+01	1.639972e+02
9.800000e-07	1.654440e-06	2.857619e-09	1.146563e+01	1.869303e+02
9.900000e-07	1.754576e-06	3.208450e-09	1.215958e+01	2.094552e+02
1.000000e-06	1.854237e-06	3.545708e-09	1.285026e+01	2.314417e+02
1.010000e-06	1.953225e-06	3.864413e-09	1.353627e+01	2.527722e+02
1.020000e-06	2.051279e-06	4.171941e-09	1.421580e+01	2.733368e+02
1.030000e-06	2.148313e-06	4.475217e-09	1.488827e+01	2.930429e+02
1.040000e-06	2.244485e-06	4.767803e-09	1.555476e+01	3.118343e+02
1.050000e-06	2.339956e-06	5.038579e-09	1.621640e+01	3.297070e+02
1.060000e-06	2.434654e-06	5.290846e-09	1.687267e+01	3.467075e+02
1.070000e-06	2.528537e-06	5.532921e-09	1.752330e+01	3.629100e+02
1.080000e-06	2.621632e-06	5.770002e-09	1.816847e+01	3.783852e+02
1.090000e-06	2.713897e-06	5.997218e-09	1.880788e+01	3.931743e+02
1.100000e-06	2.805246e-06	6.208592e-09	1.944095e+01	4.072818e+02
1.110000e-06	2.895463e-06	6.410880e-09	2.006618e+01	4.206844e+02
1.120000e-06	2.984462e-06	6.606894e-09	2.068296e+01	4.333510e+02
1.130000e-06	3.072386e-06	6.792615e-09	2.129229e+01	4.452627e+02
1.140000e-06	3.159292e-06	6.961579e-09	2.189457e+01	4.564292e+02
1.150000e-06	3.245140e-06	7.114730e-09	2.248951e+01	4.668989e+02
1.160000e-06	3.329971e-06	7.261745e-09	2.307741e+01	4.767606e+02
1.170000e-06	3.413831e-06	7.408572e-09	2.365858e+01	4.861298e+02
1.180000e-06	3.496505e-06	7.549805e-09	2.423153e+01	4.951197e+02
1.190000e-06	3.577814e-06	7.680937e-09	2.479501e+01	5.038017e+02
1.200000e-06	3.657775e-06	7.805796e-09	2.534916e+01	5.121752e+02
1.210000e-06	3.736381e-06	7.929552e-09	2.589392e+01	5.201678e+02
1.220000e-06	3.813696e-06	8.048962e-09	2.642973e+01	5.276750e+02
1.230000e-06	3.889646e-06	8.154706e-09	2.695608e+01	5.346242e+02
1.240000e-06	3.963951e-06	8.246053e-09	2.747103e+01	5.410306e+02
1.250000e-06	4.036632e-06	8.331751e-09	2.797473e+01	5.470089e+02
1.260000e-06	4.107920e-06	8.422878e-09	2.846877e+01	5.527290e+02
1.270000e-06	4.177818e-06	8.516165e-09	2.895317e+01	5.583369e+02
1.280000e-06	4.246353e-06	8.601324e-09	2.942813e+01	5.638839e+02
1.290000e-06	4.313427e-06	8.678494e-09	2.989297e+01	5.693068e+02
1.300000e-06	4.378764e-06	8.755678e-09	3.034577e+01	5.744695e+02
1.310000e-06	4.442460e-06	8.831638e-09	3.078720e+01	5.792429e+02
1.320000e-06	4.504663e-06	8.898455e-09	3.121828e+01	5.835771e+02
1.330000e-06	4.565458e-06	8.953928e-09	3.163960e+01	5.875262e+02
1.340000e-06	4.624769e-06	9.007047e-09	3.205064e+01	5.912174e+02
1.350000e-06	4.682261e-06	9.065948e-09	3.244907e+01	5.947863e+02
1.360000e-06	4.737995e-06	9.124983e-09	3.283532e+01	5.983182e+02
1.370000e-06	4.792114e-06	9.177524e-09	3.321038e+01	6.018222e+02
1.380000e-06	4.844416e-06	9.224428e-09	3.357284e+01	6.052451e+02
1.390000e-06	4.894559e-06	9.272308e-09	3.392034e+01	6.085074e+02
1.400000e-06	4.942690e-06	9.321159e-09	3.425390e+01	6.115410e+02
1.410000e-06	4.989152e-06	9.363405e-09	3.457589e+01	6.143112e+02
1.420000e-06	5.034014e-06	9.397449e-09	3.488679e+01	6.168244e+02
1.430000e-06	5.077147e-06	9.430491e-09	3.518572e+01	6.191223e+02
1.440000e-06	5.118313e-06	9.467671e-09	3.547100e+01	6.212698e+02
1.450000e-06	5.157603e-06	9.504853e-09	3.574329e+01	6.233351e+02
1.460000e-06	5.195233e-06	9.534616e-09	3.600408e+01	6.253654e+02
1.470000e-06	5.231176e-06	9.558347e-09	3.625317e+01	6.273656e+02
1.480000e-06	5.265143e-06	9.585310e-09	3.648856e+01	6.292939e+02
1.490000e-06	5.297176e-06	9.615541e-09	3.671056e+01	6.310794e+02
1.500000e-06	5.327524e-06	9.641801e-09	3.692088e+01	6.326583e+02
1.510000e-06	5.356167e-06	9.661960e-09	3.711939e+01	6.340076e+02
1.520000e-06	5.382821e-06	9.678893e-09	3.730410e+01	6.351563e+02
1.530000e-06	5.407307e-06	9.696121e-09	3.747379e+01	6.361679e+02
1.540000e-06	5.429877e-06	9.711664e-09	3.763021e+01	6.371039e+02
1.550000e-06	5.450702e-06	9.723308e-09	3.777453e+01	6.379963e+02
1.560000e-06	5.469727e-06	9.732917e-09	3.790638e+01	6.388429e+02
1.570000e-06	5.486788e-06	9.743512e-09	3.802462e+01	6.396257e+02
1.580000e-06	5.501784e-06	9.756694e-09	3.812854e+01	6.403331e+02
1.590000e-06	5.514752e-06	9.769375e-09	3.821841e+01	6.409642e+02
1.600000e-06	5.525521e-06	9.777994e-09	3.829304e+01	6.415129e+02
1.610000e-06	5.534128e-06	9.782767e-09	3.835269e+01	6.419503e+02
1.620000e-06	5.540852e-06	9.786912e-09	3.839929e+01	6.422261e+02
1.630000e-06	5.545775e-06	9.791522e-09	3.843341e+01	6.423006e+02
1.640000e-06	5.548733e-06	9.793819e-09	3.845391e+01	6.421850e+02
1.650000e-06	5.549612e-06	9.793823e-09	3.846000e+01	6.419568e+02
1.660000e-06	5.548597e-06	9.789558e-09	3.845297e+01	6.417278e+02
1.670000e-06	5.545884e-06	9.785428e-09	3.843416e+01	6.415768e+02
1.680000e-06	5.541462e-06	9.785345e-09	3.840352e+01	6.414893e+02
1.690000e-06	5.535087e-06	9.781401e-09	3.835934e+01	6.413533e+02
1.700000e-06	5.526816e-06	9.773201e-09	3.830202e+01	6.410206e+02
1.710000e-06	5.516904e-06	9.767139e-09	3.823332e+01	6.404024e+02
1.720000e-06	5.505203e-06	9.775838e-09	3.815223e+01	6.395321e+02
1.730000e-06	5.491434e-06	9.783738e-09	3.805681e+01	6.385500e+02
1.740000e-06	5.475609e-06	9.701404e-09	3.794714e+01	6.376135e+02
1.750000e-06	5.457449e-06	9.662925e-09	3.782129e+01	6.367907e+02
1.760000e-06	5.436494e-06	9.667305e-09	3.767606e+01	6.360126e+02
1.770000e-06	5.413188e-06	9.670536e-09	3.751455e+01	6.351194e+02
1.780000e-06	5.388500e-06	9.774853e-09	3.734346e+01	6.339723e+02
1.790000e-06	5.363029e-06	9.653326e-09	3.716694e+01	6.325555e+02
1.800000e-06	5.336157e-06	9.556524e-09	3.698071e+01	6.309932e+02
1.810000e-06	5.306839e-06	9.701529e-09	3.677753e+01	6.294687e+02
1.820000e-06	5.275690e-06	9.562921e-09	3.656166e+01	6.280974e+02
1.830000e-06	5.243055e-06	9.531880e-09	3.633549e+01	6.268420e+02
1.840000e-06	5.208463e-06	9.624385e-09	3.609576e+01	6.255287e+02
1.850000e-06	5.172137e-06	9.414177e-09	3.584401e+01	6.239564e+02
1.860000e-06	5.133839e-06	9.471372e-09	3.557860e+01	6.220226e+02
1.870000e-06	5.093550e-06	9.552813e-09	3.529939e+01	6.197830e+02
1.880000e-06	5.051650e-06	9.383723e-09	3.500901e+01	6.174044e+02
1.890000e-06	5.007912e-06	9.376433e-09	3.470590e+01	6.150472e+02
1.900000e-06	4.962508e-06	9.289510e-09	3.439124e+01	6.127591e+02
1.910000e-06	4.915389e-06	9.307632e-09	3.406470e+01	6.104523e+02
1.920000e-06	4.866254e-06	9.362059e-09	3.372418e+01	6.079750e+02
1.930000e-06	4.815379e-06	9.192045e-09	3.337161e+01	6.052240e+02
1.940000e-06	4.762435e-06	9.189509e-09	3.300470e+01	6.022173e+02
1.950000e-06	4.707435e-06	9.130190e-09	3.262353e+01	5.990784e+02
1.960000e-06	4.650797e-06	9.092278e-09	3.223102e+01	5.959482e+02
1.970000e-06	4.592530e-06	9.073916e-09	3.182721e+01	5.928869e+02
1.980000e-06	4.532838e-06	8.943053e-09	3.141354e+01	5.898351e+02
1.990000e-06	4.471401e-06	8.956479e-09	3.098776e+01	5.866552e+02
2.000000e-06	4.408207e-06	8.892464e-09	3.054982e+01	5.832209e+02
2.010000e-06	4.343491e-06	8.882281e-09	3.010132e+01	5.794901e+02
2.020000e-06	4.277155e-06	8.816745e-09	2.964160e+01	5.755179e+02
2.030000e-06	4.209468e-06	8.660361e-09	2.917252e+01	5.714059e+02
2.040000e-06	4.140124e-06	8.652917e-09	2.869194e+01	5.672319e+02
2.050000e-06	4.069096e-06	8.584323e-09	2.819971e+01	5.630077e+02
2.060000e-06	3.996700e-06	8.552754e-09	2.769798e+01	5.586872e+02
2.070000e-06	3.922870e-06	8.443218e-09	2.718633e+01	5.542094e+02
2.080000e-06	3.847623e-06	8.346973e-09	2.666485e+01	5.495380e+02
2.090000e-06	3.770671e-06	8.330491e-09	2.613156e+01	5.446701e+02
2.100000e-06	3.692101e-06	8.247301e-09	2.558705e+01	5.396159e+02
2.110000e-06	3.612242e-06	8.178592e-09	2.503361e+01	5.343722e+02
2.120000e-06	3.531211e-06	8.037790e-09	2.447205e+01	5.289172e+02
2.130000e-06	3.449026e-06	7.965304e-09	2.390248e+01	5.232293e+02
2.140000e-06	3.365762e-06	7.904003e-09	2.332545e+01	5.173128e+02
2.150000e-06	3.281294e-06	7.806388e-09	2.274007e+01	5.112042e+02
2.160000e-06	3.195293e-06	7.696770e-09	2.214406e+01	5.049518e+02
2.170000e-06	3.108048e-06	7.569960e-09	2.153944e+01	4.985795e+02
2.180000e-06	3.019840e-06	7.511714e-09	2.092814e+01	4.920642e+02
2.190000e-06	2.930699e-06	7.421805e-09	2.031037e+01	4.853441e+02
2.200000e-06	2.840619e-06	7.306794e-09	1.968609e+01	4.783529e+02
2.210000e-06	2.749635e-06	7.164297e-09	1.905556e+01	4.710564e+02
2.220000e-06	2.657749e-06	7.046698e-09	1.841877e+01	4.634657e+02
2.230000e-06	2.564871e-06	6.954563e-09	1.777510e+01	4.556203e+02
2.240000e-06	2.470905e-06	6.829692e-09	1.712390e+01	4.475554e+02
2.250000e-06	2.375899e-06	6.690904e-09	1.646549e+01	4.392779e+02
2.260000e-06	2.280116e-06	6.546128e-09	1.580169e+01	4.307682e+02
2.270000e-06	2.183611e-06	6.435279e-09	1.513289e+01	4.220011e+02
2.280000e-06	2.086389e-06	6.315495e-09	1.445912e+01	4.129676e+02
2.290000e-06	1.988452e-06	6.165871e-09	1.378040e+01	4.036778e+02
2.300000e-06	1.889876e-06	5.995974e-09	1.309725e+01	3.941424e+02
2.310000e-06	1.790802e-06	5.839673e-09	1.241064e+01	3.843473e+02
2.320000e-06	1.691290e-06	5.705818e-09	1.172100e+01	3.742434e+02
2.330000e-06	1.591293e-06	5.552061e-09	1.102800e+01	3.637616e+02
2.340000e-06	1.490507e-06	5.373686e-09	1.032953e+01	3.528461e+02
2.350000e-06	1.388776e-06	5.187697e-09	9.624518e+00	3.414851e+02
2.360000e-06	1.286317e-06	5.021992e-09	8.914451e+00	3.297179e+02
2.370000e-06	1.183434e-06	4.853008e-09	8.201453e+00	3.176146e+02
2.380000e-06	1.080294e-06	4.657851e-09	7.486668e+00	3.052373e+02
2.390000e-06	9.768357e-07	4.448794e-09	6.769680e+00	2.926040e+02
2.400000e-06	8.729789e-07	4.251306e-09	6.049931e+00	2.796732e+02
2.410000e-06	7.687968e-07	4.066663e-09	5.327926e+00	2.663544e+02
2.420000e-06	6.644029e-07	3.862080e-09	4.604454e+00	2.525402e+02
2.430000e-06	5.598006e-07	3.629172e-09	3.879538e+00	2.381436e+02
2.440000e-06	4.550042e-07	3.388191e-09	3.153276e+00	2.231285e+02
2.450000e-06	3.500883e-07	3.160212e-09	2.426187e+00	2.075189e+02
2.460000e-06	2.450745e-07	2.930096e-09	1.698419e+00	1.913846e+02
2.470000e-06	1.399636e-07	2.675448e-09	9.699774e-01	1.748060e+02
2.480000e-06	3.477201e-08	2.402466e-09	2.409775e-01	1.578306e+02
2.490000e-06	-7.040250e-08	2.132994e-09	-4.879044e-01	1.404422e+02
2.500000e-06	-1.754906e-07	1.872573e-09	-1.216188e+00	1.225580e+02
2.510000e-06	-2.805322e-07	1.597538e-09	-1.944148e+00	1.040600e+02
2.520000e-06	-3.854903e-07	1.297604e-09	-2.671530e+00	8.484730e+01
2.530000e-06	-4.903379e-07	9.844679e-10	-3.398147e+00	6.488523e+01
2.540000e-06	-5.949420e-07	6.744015e-10	-4.123075e+00	4.422370e+01
2.550000e-06	-6.992705e-07	3.635420e-10	-4.846094e+00	2.297612e+01
2.560000e-06	-8.034382e-07	3.406669e-11	-5.567998e+00	1.270756e+00
2.570000e-06	-9.073002e-07	-3.125030e-10	-6.287785e+00	-2.079637e+01
2.580000e-06	-1.010809e-06	-6.600270e-10	-7.005125e+00	-4.318024e+01
2.590000e-06	-1.114011e-06	-9.982077e-10	-7.720331e+00	-6.586833e+01
2.600000e-06	-1.216793e-06	-1.340909e-09	-8.432634e+00	-8.883929e+01
2.610000e-06	-1.319042e-06	-1.700017e-09	-9.141240e+00	-1.120261e+02
2.620000e-06	-1.420709e-06	-2.065244e-09	-9.845815e+00	-1.353051e+02
2.630000e-06	-1.521635e-06	-2.418681e-09	-1.054525e+01	-1.585140e+02
2.640000e-06	-1.621803e-06	-2.758279e-09	-1.123944e+01	-1.814832e+02
2.650000e-06	-1.721413e-06	-3.098309e-09	-1.192976e+01	-2.040593e+02
2.660000e-06	-1.820581e-06	-3.440949e-09	-1.261701e+01	-2.261102e+02
2.670000e-06	-1.919268e-06	-3.773076e-09	-1.330094e+01	-2.475174e+02
2.680000e-06	-2.017309e-06	-4.083924e-09	-1.398038e+01	-2.681699e+02
2.690000e-06	-2.114611e-06	-4.380020e-09	-1.465470e+01	-2.879724e+02
2.700000e-06	-2.211125e-06	-4.671676e-09	-1.532357e+01	-3.068639e+02
2.710000e-06	-2.306909e-06	-4.953978e-09	-1.598737e+01	-3.248346e+02
2.720000e-06	-2.402065e-06	-5.216535e-09	-1.664683e+01	-3.419261e+02
2.730000e-06	-2.496464e-06	-5.459312e-09	-1.730103e+01	-3.582114e+02
2.740000e-06	-2.589778e-06	-5.693543e-09	-1.794771e+01	-3.737628e+02
2.750000e-06	-2.681897e-06	-5.926077e-09	-1.858612e+01	-3.886256e+02
2.760000e-06	-2.773015e-06	-6.148862e-09	-1.921759e+01	-4.028078e+02
2.770000e-06	-2.863175e-06	-6.350805e-09	-1.984242e+01	-4.162884e+02
2.780000e-06	-2.952300e-06	-6.537215e-09	-2.046007e+01	-4.290361e+02
2.790000e-06	-3.040430e-06	-6.722211e-09	-2.107083e+01	-4.410298e+02
2.800000e-06	-3.127686e-06	-6.903581e-09	-2.167553e+01	-4.522755e+02
2.810000e-06	-3.213861e-06	-7.068793e-09	-2.227274e+01	-4.628173e+02
2.820000e-06	-3.298626e-06	-7.214077e-09	-2.286018e+01	-4.727397e+02
2.830000e-06	-3.382157e-06	-7.351061e-09	-2.343907e+01	-4.821569e+02
2.840000e-06	-3.464609e-06	-7.490322e-09	-2.401048e+01	-4.911839e+02
2.850000e-06	-3.545907e-06	-7.627168e-09	-2.457389e+01	-4.998985e+02
2.860000e-06	-3.626062e-06	-7.752257e-09	-2.512938e+01	-5.083084e+02
2.870000e-06	-3.704965e-06	-7.867568e-09	-2.567620e+01	-5.163477e+02
2.880000e-06	-3.782265e-06	-7.982210e-09	-2.621191e+01	-5.239124e+02
2.890000e-06	-3.857922e-06	-8.095877e-09	-2.673623e+01	-5.309234e+02
2.900000e-06	-3.932162e-06	-8.199338e-09	-2.725072e+01	-5.373851e+02
2.910000e-06	-4.004979e-06	-8.288632e-09	-2.775536e+01	-5.434024e+02
2.920000e-06	-4.076428e-06	-8.372356e-09	-2.825052e+01	-5.491430e+02
2.930000e-06	-4.146436e-06	-8.457717e-09	-2.873569e+01	-5.547593e+02
2.940000e-06	-4.214798e-06	-8.543887e-09	-2.920945e+01	-5.603150e+02
