# Temperatura_=_20.0
# Concentracion g/m^3_=_10000.0
# C_Vs_to_Am_M_A/Vsm_=_65563218390.804596
# pendiente_HvsI_1/m_=_3716.3
# ordenada_HvsI_A/m_=_1297.0
# frecuencia_Hz_=_300954.4070266627

Tiempo_(s)	Campo_(V.s)	Magnetizacion_(V.s)	Campo_(kA/m)	Magnetizacion_(A/m)
0.000000e+00	-5.491063e-06	-9.702897e-09	-3.825983e+01	-6.359503e+02
1.000000e-08	-5.487950e-06	-9.700850e-09	-3.823814e+01	-6.357182e+02
2.000000e-08	-5.483012e-06	-9.696954e-09	-3.820373e+01	-6.355048e+02
3.000000e-08	-5.476500e-06	-9.690252e-09	-3.815836e+01	-6.352408e+02
4.000000e-08	-5.468375e-06	-9.679512e-09	-3.810174e+01	-6.348294e+02
5.000000e-08	-5.458328e-06	-9.668516e-09	-3.803174e+01	-6.342255e+02
6.000000e-08	-5.446182e-06	-9.652870e-09	-3.794711e+01	-6.334786e+02
7.000000e-08	-5.432097e-06	-9.624865e-09	-3.784897e+01	-6.326979e+02
8.000000e-08	-5.415721e-06	-9.638457e-09	-3.773487e+01	-6.319642e+02
9.000000e-08	-5.396996e-06	-9.669413e-09	-3.760440e+01	-6.312542e+02
1.000000e-07	-5.376313e-06	-9.642138e-09	-3.746029e+01	-6.304415e+02
1.100000e-07	-5.353746e-06	-9.616278e-09	-3.730305e+01	-6.293838e+02
1.200000e-07	-5.329542e-06	-9.559937e-09	-3.713440e+01	-6.280354e+02
1.300000e-07	-5.303905e-06	-9.478883e-09	-3.695577e+01	-6.265014e+02
1.400000e-07	-5.276560e-06	-9.567151e-09	-3.676524e+01	-6.249845e+02
1.500000e-07	-5.247388e-06	-9.544935e-09	-3.656199e+01	-6.236524e+02
1.600000e-07	-5.216629e-06	-9.432705e-09	-3.634766e+01	-6.225150e+02
1.700000e-07	-5.184106e-06	-9.502880e-09	-3.612106e+01	-6.214004e+02
1.800000e-07	-5.149396e-06	-9.444967e-09	-3.587921e+01	-6.200526e+02
1.900000e-07	-5.113028e-06	-9.387532e-09	-3.562581e+01	-6.182891e+02
2.000000e-07	-5.075132e-06	-9.448108e-09	-3.536176e+01	-6.161120e+02
2.100000e-07	-5.035389e-06	-9.347743e-09	-3.508485e+01	-6.136998e+02
2.200000e-07	-4.993775e-06	-9.284528e-09	-3.479490e+01	-6.112852e+02
2.300000e-07	-4.950182e-06	-9.320587e-09	-3.449115e+01	-6.090054e+02
2.400000e-07	-4.904787e-06	-9.281104e-09	-3.417486e+01	-6.068257e+02
2.500000e-07	-4.857570e-06	-9.236522e-09	-3.384587e+01	-6.045836e+02
2.600000e-07	-4.808273e-06	-9.142410e-09	-3.350238e+01	-6.021141e+02
2.700000e-07	-4.756860e-06	-9.094643e-09	-3.314415e+01	-5.993644e+02
2.800000e-07	-4.703529e-06	-9.097201e-09	-3.277256e+01	-5.964178e+02
2.900000e-07	-4.648500e-06	-9.065877e-09	-3.238914e+01	-5.934166e+02
3.000000e-07	-4.591866e-06	-9.020507e-09	-3.199453e+01	-5.904467e+02
3.100000e-07	-4.533437e-06	-8.945426e-09	-3.158742e+01	-5.874713e+02
3.200000e-07	-4.473332e-06	-8.914085e-09	-3.116863e+01	-5.843584e+02
3.300000e-07	-4.411797e-06	-8.874843e-09	-3.073987e+01	-5.809798e+02
3.400000e-07	-4.348795e-06	-8.794219e-09	-3.030090e+01	-5.773033e+02
3.500000e-07	-4.284273e-06	-8.713462e-09	-2.985133e+01	-5.734135e+02
3.600000e-07	-4.218033e-06	-8.638706e-09	-2.938979e+01	-5.694468e+02
3.700000e-07	-4.150170e-06	-8.618240e-09	-2.891695e+01	-5.654930e+02
3.800000e-07	-4.080884e-06	-8.593047e-09	-2.843418e+01	-5.615335e+02
3.900000e-07	-4.010205e-06	-8.517426e-09	-2.794172e+01	-5.574580e+02
4.000000e-07	-3.938203e-06	-8.430436e-09	-2.744004e+01	-5.531422e+02
4.100000e-07	-3.864746e-06	-8.356601e-09	-2.692822e+01	-5.485283e+02
4.200000e-07	-3.789687e-06	-8.308051e-09	-2.640523e+01	-5.436519e+02
4.300000e-07	-3.713074e-06	-8.220334e-09	-2.587142e+01	-5.386046e+02
4.400000e-07	-3.634956e-06	-8.107976e-09	-2.532711e+01	-5.334645e+02
4.500000e-07	-3.555226e-06	-8.019805e-09	-2.477159e+01	-5.282479e+02
4.600000e-07	-3.474044e-06	-7.962368e-09	-2.420593e+01	-5.229097e+02
4.700000e-07	-3.391716e-06	-7.911941e-09	-2.363230e+01	-5.173838e+02
4.800000e-07	-3.308298e-06	-7.816476e-09	-2.305108e+01	-5.116258e+02
4.900000e-07	-3.223817e-06	-7.705413e-09	-2.246244e+01	-5.056269e+02
5.000000e-07	-3.138306e-06	-7.608457e-09	-2.186663e+01	-4.993975e+02
5.100000e-07	-3.051797e-06	-7.527155e-09	-2.126387e+01	-4.929427e+02
5.200000e-07	-2.964401e-06	-7.426944e-09	-2.065492e+01	-4.862565e+02
5.300000e-07	-2.876078e-06	-7.297070e-09	-2.003952e+01	-4.793367e+02
5.400000e-07	-2.786577e-06	-7.182062e-09	-1.941590e+01	-4.722039e+02
5.500000e-07	-2.695769e-06	-7.093146e-09	-1.878319e+01	-4.648976e+02
5.600000e-07	-2.603860e-06	-7.003694e-09	-1.814280e+01	-4.574476e+02
5.700000e-07	-2.511151e-06	-6.879313e-09	-1.749683e+01	-4.498385e+02
5.800000e-07	-2.417623e-06	-6.735665e-09	-1.684516e+01	-4.420015e+02
5.900000e-07	-2.323221e-06	-6.605289e-09	-1.618740e+01	-4.338461e+02
6.000000e-07	-2.228127e-06	-6.490762e-09	-1.552481e+01	-4.253150e+02
6.100000e-07	-2.132354e-06	-6.363010e-09	-1.485751e+01	-4.164234e+02
6.200000e-07	-2.035787e-06	-6.209573e-09	-1.418466e+01	-4.072513e+02
6.300000e-07	-1.938396e-06	-6.057693e-09	-1.350607e+01	-3.978901e+02
6.400000e-07	-1.840214e-06	-5.924146e-09	-1.282197e+01	-3.883786e+02
6.500000e-07	-1.741264e-06	-5.792513e-09	-1.213253e+01	-3.786728e+02
6.600000e-07	-1.641612e-06	-5.634600e-09	-1.143819e+01	-3.686702e+02
6.700000e-07	-1.541358e-06	-5.458186e-09	-1.073965e+01	-3.582706e+02
6.800000e-07	-1.440588e-06	-5.290369e-09	-1.003752e+01	-3.474320e+02
6.900000e-07	-1.339451e-06	-5.135748e-09	-9.332829e+00	-3.361828e+02
7.000000e-07	-1.237916e-06	-4.967114e-09	-8.625367e+00	-3.245867e+02
7.100000e-07	-1.135923e-06	-4.773561e-09	-7.914718e+00	-3.126898e+02
7.200000e-07	-1.033522e-06	-4.573971e-09	-7.201226e+00	-3.004874e+02
7.300000e-07	-9.307776e-07	-4.385425e-09	-6.485336e+00	-2.879334e+02
7.400000e-07	-8.277951e-07	-4.199191e-09	-5.767789e+00	-2.749760e+02
7.500000e-07	-7.245421e-07	-3.991432e-09	-5.048358e+00	-2.615908e+02
7.600000e-07	-6.209315e-07	-3.767318e-09	-4.326436e+00	-2.477812e+02
7.700000e-07	-5.170289e-07	-3.546993e-09	-3.602478e+00	-2.335506e+02
7.800000e-07	-4.130135e-07	-3.335328e-09	-2.877735e+00	-2.188711e+02
7.900000e-07	-3.089263e-07	-3.113067e-09	-2.152492e+00	-2.036791e+02
8.000000e-07	-2.046990e-07	-2.864814e-09	-1.426271e+00	-1.879050e+02
8.100000e-07	-1.003343e-07	-2.602284e-09	-6.990948e-01	-1.715168e+02
8.200000e-07	4.081302e-09	-2.344579e-09	2.843710e-02	-1.545422e+02
8.300000e-07	1.084358e-07	-2.087993e-09	7.555432e-01	-1.370507e+02
8.400000e-07	2.127374e-07	-1.814855e-09	1.482281e+00	-1.191039e+02
8.500000e-07	3.170470e-07	-1.523326e-09	2.209074e+00	-1.007073e+02
8.600000e-07	4.212285e-07	-1.227309e-09	2.934974e+00	-8.179823e+01
8.700000e-07	5.251825e-07	-9.363088e-10	3.659290e+00	-6.227870e+01
8.800000e-07	6.289497e-07	-6.375236e-10	4.382304e+00	-4.207335e+01
8.900000e-07	7.325188e-07	-3.158952e-10	5.103938e+00	-2.117691e+01
9.000000e-07	8.358692e-07	2.305313e-11	5.824047e+00	3.357426e-01
9.100000e-07	9.389566e-07	3.596707e-10	6.542325e+00	2.233799e+01
9.200000e-07	1.041700e-06	6.908209e-10	7.258206e+00	4.469619e+01
9.300000e-07	1.144026e-06	1.031628e-09	7.971174e+00	6.730268e+01
9.400000e-07	1.245958e-06	1.386498e-09	8.681404e+00	9.008159e+01
9.500000e-07	1.347466e-06	1.742477e-09	9.388677e+00	1.129718e+02
9.600000e-07	1.448534e-06	2.086447e-09	1.009288e+01	1.359037e+02
9.700000e-07	1.549201e-06	2.425796e-09	1.079429e+01	1.587845e+02
9.800000e-07	1.649406e-06	2.773989e-09	1.149249e+01	1.814970e+02
9.900000e-07	1.749016e-06	3.126715e-09	1.218654e+01	2.039050e+02
1.000000e-06	1.847874e-06	3.464906e-09	1.287534e+01	2.258607e+02
1.010000e-06	1.945953e-06	3.781478e-09	1.355873e+01	2.472128e+02
1.020000e-06	2.043287e-06	4.088201e-09	1.423692e+01	2.678190e+02
1.030000e-06	2.139786e-06	4.393412e-09	1.490929e+01	2.875663e+02
1.040000e-06	2.235464e-06	4.688118e-09	1.557594e+01	3.063931e+02
1.050000e-06	2.330429e-06	4.959451e-09	1.623763e+01	3.243023e+02
1.060000e-06	2.424613e-06	5.211687e-09	1.689386e+01	3.413542e+02
1.070000e-06	2.518000e-06	5.457257e-09	1.754455e+01	3.576382e+02
1.080000e-06	2.610675e-06	5.699096e-09	1.819028e+01	3.732346e+02
1.090000e-06	2.702553e-06	5.928225e-09	1.883045e+01	3.881827e+02
1.100000e-06	2.793340e-06	6.139875e-09	1.946302e+01	4.024710e+02
1.110000e-06	2.882887e-06	6.341930e-09	2.008696e+01	4.160515e+02
1.120000e-06	2.971345e-06	6.540396e-09	2.070330e+01	4.288711e+02
1.130000e-06	3.058840e-06	6.730339e-09	2.131294e+01	4.409048e+02
1.140000e-06	3.145305e-06	6.902126e-09	2.191539e+01	4.521783e+02
1.150000e-06	3.230703e-06	7.058427e-09	2.251042e+01	4.627704e+02
1.160000e-06	3.315138e-06	7.210318e-09	2.309873e+01	4.727946e+02
1.170000e-06	3.398505e-06	7.361720e-09	2.367961e+01	4.823649e+02
1.180000e-06	3.480652e-06	7.506186e-09	2.425198e+01	4.915598e+02
1.190000e-06	3.561483e-06	7.637727e-09	2.481518e+01	5.003983e+02
1.200000e-06	3.640940e-06	7.760058e-09	2.536881e+01	5.088425e+02
1.210000e-06	3.719082e-06	7.882592e-09	2.591328e+01	5.168276e+02
1.220000e-06	3.795951e-06	8.003196e-09	2.644887e+01	5.243069e+02
1.230000e-06	3.871381e-06	8.111526e-09	2.697444e+01	5.312892e+02
1.240000e-06	3.945134e-06	8.207685e-09	2.748833e+01	5.378451e+02
1.250000e-06	4.017362e-06	8.300285e-09	2.799159e+01	5.440790e+02
1.260000e-06	4.088223e-06	8.396269e-09	2.848532e+01	5.500792e+02
1.270000e-06	4.157697e-06	8.490215e-09	2.896939e+01	5.558785e+02
1.280000e-06	4.225827e-06	8.573240e-09	2.944410e+01	5.614481e+02
1.290000e-06	4.292374e-06	8.647365e-09	2.990777e+01	5.667280e+02
1.300000e-06	4.357178e-06	8.721138e-09	3.035931e+01	5.716734e+02
1.310000e-06	4.420490e-06	8.796637e-09	3.080044e+01	5.762859e+02
1.320000e-06	4.482388e-06	8.866080e-09	3.123173e+01	5.806112e+02
1.330000e-06	4.542894e-06	8.925270e-09	3.165331e+01	5.847095e+02
1.340000e-06	4.601871e-06	8.983176e-09	3.206425e+01	5.886222e+02
1.350000e-06	4.659036e-06	9.044576e-09	3.246255e+01	5.923601e+02
1.360000e-06	4.714448e-06	9.102749e-09	3.284864e+01	5.959183e+02
1.370000e-06	4.768184e-06	9.151915e-09	3.322305e+01	5.993009e+02
1.380000e-06	4.820015e-06	9.194105e-09	3.358419e+01	6.025304e+02
1.390000e-06	4.869769e-06	9.238418e-09	3.393087e+01	6.056326e+02
1.400000e-06	4.917618e-06	9.286573e-09	3.426426e+01	6.086101e+02
1.410000e-06	4.963762e-06	9.330271e-09	3.458578e+01	6.114287e+02
1.420000e-06	5.008310e-06	9.367825e-09	3.489617e+01	6.140370e+02
1.430000e-06	5.051090e-06	9.404102e-09	3.519425e+01	6.164070e+02
1.440000e-06	5.091926e-06	9.441846e-09	3.547878e+01	6.185667e+02
1.450000e-06	5.130981e-06	9.478284e-09	3.575090e+01	6.205947e+02
1.460000e-06	5.168386e-06	9.507330e-09	3.601152e+01	6.225741e+02
1.470000e-06	5.204064e-06	9.529198e-09	3.626012e+01	6.245362e+02
1.480000e-06	5.237743e-06	9.551965e-09	3.649478e+01	6.264350e+02
1.490000e-06	5.269518e-06	9.579285e-09	3.671618e+01	6.281753e+02
1.500000e-06	5.299606e-06	9.606092e-09	3.692582e+01	6.296796e+02
1.510000e-06	5.328002e-06	9.627618e-09	3.712367e+01	6.309453e+02
1.520000e-06	5.354429e-06	9.644958e-09	3.730781e+01	6.320510e+02
1.530000e-06	5.378710e-06	9.663378e-09	3.747699e+01	6.331059e+02
1.540000e-06	5.401132e-06	9.681508e-09	3.763322e+01	6.341764e+02
1.550000e-06	5.421877e-06	9.695290e-09	3.777776e+01	6.352442e+02
1.560000e-06	5.440810e-06	9.704398e-09	3.790968e+01	6.362252e+02
1.570000e-06	5.457737e-06	9.712391e-09	3.802762e+01	6.370352e+02
1.580000e-06	5.472627e-06	9.723339e-09	3.813137e+01	6.376515e+02
1.590000e-06	5.485456e-06	9.734229e-09	3.822076e+01	6.381248e+02
1.600000e-06	5.496087e-06	9.742350e-09	3.829483e+01	6.385339e+02
1.610000e-06	5.504593e-06	9.748714e-09	3.835410e+01	6.389192e+02
1.620000e-06	5.511197e-06	9.753949e-09	3.840011e+01	6.392504e+02
1.630000e-06	5.516005e-06	9.758193e-09	3.843361e+01	6.394523e+02
1.640000e-06	5.518916e-06	9.761162e-09	3.845390e+01	6.394702e+02
1.650000e-06	5.519792e-06	9.762204e-09	3.846000e+01	6.393205e+02
1.660000e-06	5.518774e-06	9.758360e-09	3.845290e+01	6.390846e+02
1.670000e-06	5.516071e-06	9.752977e-09	3.843407e+01	6.388485e+02
1.680000e-06	5.511604e-06	9.749121e-09	3.840295e+01	6.386340e+02
1.690000e-06	5.505156e-06	9.743371e-09	3.835802e+01	6.383791e+02
1.700000e-06	5.496932e-06	9.735814e-09	3.830072e+01	6.379860e+02
1.710000e-06	5.487111e-06	9.729492e-09	3.823229e+01	6.374008e+02
1.720000e-06	5.475414e-06	9.737053e-09	3.815079e+01	6.366632e+02
1.730000e-06	5.461642e-06	9.745177e-09	3.805483e+01	6.358798e+02
1.740000e-06	5.445871e-06	9.680275e-09	3.794495e+01	6.351388e+02
1.750000e-06	5.427795e-06	9.646335e-09	3.781900e+01	6.344297e+02
1.760000e-06	5.406875e-06	9.642004e-09	3.767323e+01	6.336344e+02
1.770000e-06	5.383565e-06	9.648592e-09	3.751082e+01	6.326064e+02
1.780000e-06	5.358975e-06	9.726837e-09	3.733948e+01	6.312855e+02
1.790000e-06	5.333657e-06	9.610777e-09	3.716307e+01	6.297613e+02
1.800000e-06	5.306863e-06	9.540113e-09	3.697639e+01	6.282315e+02
1.810000e-06	5.277640e-06	9.641657e-09	3.677277e+01	6.268745e+02
1.820000e-06	5.246574e-06	9.517474e-09	3.655631e+01	6.257205e+02
1.830000e-06	5.213931e-06	9.512717e-09	3.632887e+01	6.246142e+02
1.840000e-06	5.179360e-06	9.582719e-09	3.608798e+01	6.233016e+02
1.850000e-06	5.143173e-06	9.400984e-09	3.583585e+01	6.215850e+02
1.860000e-06	5.105076e-06	9.441985e-09	3.557040e+01	6.194449e+02
1.870000e-06	5.064999e-06	9.482675e-09	3.529116e+01	6.170451e+02
1.880000e-06	5.023301e-06	9.321207e-09	3.500062e+01	6.146203e+02
1.890000e-06	4.979772e-06	9.311159e-09	3.469733e+01	6.123234e+02
1.900000e-06	4.934575e-06	9.245892e-09	3.438241e+01	6.101382e+02
1.910000e-06	4.887655e-06	9.260090e-09	3.405549e+01	6.079106e+02
1.920000e-06	4.838721e-06	9.300666e-09	3.371453e+01	6.054694e+02
1.930000e-06	4.788049e-06	9.164546e-09	3.336147e+01	6.027466e+02
1.940000e-06	4.735398e-06	9.144915e-09	3.299462e+01	5.998132e+02
1.950000e-06	4.680727e-06	9.086088e-09	3.261368e+01	5.968106e+02
1.960000e-06	4.624362e-06	9.051726e-09	3.222095e+01	5.938357e+02
1.970000e-06	4.566336e-06	9.020486e-09	3.181665e+01	5.908650e+02
1.980000e-06	4.506897e-06	8.906814e-09	3.140249e+01	5.877728e+02
1.990000e-06	4.445803e-06	8.911381e-09	3.097682e+01	5.844252e+02
2.000000e-06	4.382943e-06	8.849705e-09	3.053883e+01	5.807772e+02
2.010000e-06	4.318525e-06	8.829758e-09	3.008999e+01	5.769025e+02
2.020000e-06	4.252583e-06	8.765803e-09	2.963053e+01	5.729370e+02
2.030000e-06	4.185266e-06	8.628788e-09	2.916148e+01	5.689794e+02
2.040000e-06	4.116292e-06	8.609374e-09	2.868089e+01	5.650235e+02
2.050000e-06	4.045624e-06	8.538634e-09	2.818851e+01	5.609657e+02
2.060000e-06	3.973537e-06	8.492467e-09	2.768623e+01	5.566789e+02
2.070000e-06	3.900000e-06	8.389806e-09	2.717385e+01	5.520955e+02
2.080000e-06	3.825057e-06	8.302130e-09	2.665167e+01	5.472422e+02
2.090000e-06	3.748552e-06	8.280566e-09	2.611861e+01	5.422074e+02
2.100000e-06	3.670427e-06	8.206698e-09	2.557427e+01	5.370740e+02
2.110000e-06	3.590905e-06	8.134226e-09	2.502018e+01	5.318657e+02
2.120000e-06	3.510219e-06	7.998074e-09	2.445799e+01	5.265426e+02
2.130000e-06	3.428455e-06	7.920067e-09	2.388829e+01	5.210384e+02
2.140000e-06	3.345606e-06	7.854609e-09	2.331102e+01	5.153051e+02
2.150000e-06	3.261569e-06	7.760664e-09	2.272549e+01	5.093304e+02
2.160000e-06	3.176137e-06	7.659131e-09	2.213022e+01	5.031240e+02
2.170000e-06	3.089405e-06	7.540475e-09	2.152590e+01	4.966923e+02
2.180000e-06	3.001619e-06	7.471765e-09	2.091424e+01	4.900301e+02
2.190000e-06	2.912894e-06	7.375364e-09	2.029604e+01	4.831336e+02
2.200000e-06	2.823238e-06	7.254256e-09	1.967135e+01	4.760206e+02
2.210000e-06	2.732648e-06	7.111125e-09	1.904014e+01	4.687299e+02
2.220000e-06	2.641174e-06	6.994560e-09	1.840278e+01	4.612938e+02
2.230000e-06	2.548786e-06	6.906749e-09	1.775906e+01	4.537030e+02
2.240000e-06	2.455403e-06	6.793340e-09	1.710840e+01	4.458936e+02
2.250000e-06	2.360990e-06	6.662630e-09	1.645056e+01	4.377749e+02
2.260000e-06	2.265628e-06	6.519393e-09	1.578611e+01	4.292835e+02
2.270000e-06	2.169525e-06	6.399557e-09	1.511650e+01	4.204264e+02
2.280000e-06	2.072778e-06	6.272322e-09	1.444240e+01	4.112784e+02
2.290000e-06	1.975321e-06	6.119953e-09	1.376335e+01	4.019330e+02
2.300000e-06	1.877224e-06	5.954795e-09	1.307985e+01	3.924370e+02
2.310000e-06	1.778591e-06	5.805167e-09	1.239261e+01	3.827552e+02
2.320000e-06	1.679399e-06	5.671619e-09	1.170147e+01	3.727886e+02
2.330000e-06	1.579673e-06	5.517398e-09	1.100662e+01	3.624337e+02
2.340000e-06	1.479348e-06	5.342950e-09	1.030758e+01	3.516407e+02
2.350000e-06	1.378351e-06	5.162317e-09	9.603873e+00	3.404313e+02
2.360000e-06	1.276781e-06	4.996179e-09	8.896165e+00	3.288683e+02
2.370000e-06	1.174801e-06	4.827000e-09	8.185609e+00	3.170017e+02
2.380000e-06	1.072390e-06	4.636808e-09	7.472044e+00	3.048326e+02
2.390000e-06	9.694329e-07	4.434401e-09	6.754673e+00	2.923177e+02
2.400000e-06	8.659703e-07	4.238661e-09	6.033781e+00	2.794042e+02
2.410000e-06	7.621952e-07	4.051292e-09	5.310712e+00	2.660638e+02
2.420000e-06	6.582762e-07	3.846848e-09	4.586641e+00	2.522980e+02
2.430000e-06	5.542260e-07	3.620636e-09	3.861655e+00	2.381119e+02
2.440000e-06	4.500447e-07	3.388795e-09	3.135755e+00	2.234819e+02
2.450000e-06	3.457313e-07	3.164329e-09	2.408936e+00	2.083471e+02
2.460000e-06	2.413046e-07	2.935630e-09	1.681327e+00	1.926368e+02
2.470000e-06	1.367574e-07	2.684733e-09	9.528782e-01	1.763129e+02
2.480000e-06	3.211324e-08	2.416985e-09	2.237539e-01	1.593970e+02
2.490000e-06	-7.250165e-08	2.149432e-09	-5.051664e-01	1.419562e+02
2.500000e-06	-1.770115e-07	1.886507e-09	-1.233355e+00	1.240554e+02
2.510000e-06	-2.814313e-07	1.612388e-09	-1.960916e+00	1.057077e+02
2.520000e-06	-3.857614e-07	1.319962e-09	-2.687852e+00	8.685686e+01
2.530000e-06	-4.899896e-07	1.017926e-09	-3.414078e+00	6.740604e+01
2.540000e-06	-5.941206e-07	7.148567e-10	-4.139627e+00	4.727471e+01
2.550000e-06	-6.980825e-07	4.066067e-10	-4.863997e+00	2.644883e+01
2.560000e-06	-8.017915e-07	7.991585e-11	-5.586606e+00	4.995487e+00
2.570000e-06	-9.051654e-07	-2.618255e-10	-6.306879e+00	-1.696213e+01
2.580000e-06	-1.008150e-06	-6.047312e-10	-7.024438e+00	-3.928914e+01
2.590000e-06	-1.110682e-06	-9.428269e-10	-7.738850e+00	-6.187433e+01
2.600000e-06	-1.212694e-06	-1.286130e-09	-8.449634e+00	-8.463894e+01
2.610000e-06	-1.314169e-06	-1.641527e-09	-9.156677e+00	-1.075214e+02
2.620000e-06	-1.415104e-06	-1.998243e-09	-9.859955e+00	-1.304540e+02
2.630000e-06	-1.515493e-06	-2.344701e-09	-1.055943e+01	-1.533468e+02
2.640000e-06	-1.615231e-06	-2.682409e-09	-1.125437e+01	-1.760847e+02
2.650000e-06	-1.714340e-06	-3.021319e-09	-1.194493e+01	-1.985334e+02
2.660000e-06	-1.812946e-06	-3.362090e-09	-1.263198e+01	-2.205460e+02
2.670000e-06	-1.910995e-06	-3.693704e-09	-1.331515e+01	-2.419711e+02
2.680000e-06	-2.008356e-06	-4.006543e-09	-1.399353e+01	-2.626646e+02
2.690000e-06	-2.105055e-06	-4.305152e-09	-1.466729e+01	-2.825091e+02
2.700000e-06	-2.201172e-06	-4.597584e-09	-1.533700e+01	-3.014368e+02
2.710000e-06	-2.296640e-06	-4.878945e-09	-1.600219e+01	-3.194434e+02
2.720000e-06	-2.391298e-06	-5.141789e-09	-1.666174e+01	-3.365842e+02
2.730000e-06	-2.485024e-06	-5.383931e-09	-1.731478e+01	-3.529475e+02
2.740000e-06	-2.577764e-06	-5.618076e-09	-1.796097e+01	-3.686160e+02
2.750000e-06	-2.669480e-06	-5.852980e-09	-1.860001e+01	-3.836344e+02
2.760000e-06	-2.760135e-06	-6.077801e-09	-1.923166e+01	-3.979964e+02
2.770000e-06	-2.849787e-06	-6.283342e-09	-1.985633e+01	-4.116567e+02
2.780000e-06	-2.938483e-06	-6.473893e-09	-2.047433e+01	-4.245610e+02
2.790000e-06	-3.026265e-06	-6.661563e-09	-2.108597e+01	-4.366798e+02
2.800000e-06	-3.113076e-06	-6.844324e-09	-2.169084e+01	-4.480330e+02
2.810000e-06	-3.198715e-06	-7.008848e-09	-2.228754e+01	-4.586943e+02
2.820000e-06	-3.283053e-06	-7.153081e-09	-2.287518e+01	-4.687748e+02
2.830000e-06	-3.366158e-06	-7.292205e-09	-2.345423e+01	-4.783903e+02
2.840000e-06	-3.448173e-06	-7.435966e-09	-2.402568e+01	-4.876245e+02
2.850000e-06	-3.529033e-06	-7.576899e-09	-2.458908e+01	-4.965034e+02
2.860000e-06	-3.608705e-06	-7.704517e-09	-2.514420e+01	-5.049941e+02
2.870000e-06	-3.687027e-06	-7.821029e-09	-2.568993e+01	-5.130325e+02
2.880000e-06	-3.763773e-06	-7.936867e-09	-2.622467e+01	-5.205679e+02
2.890000e-06	-3.838971e-06	-8.051018e-09	-2.674862e+01	-5.276022e+02
2.900000e-06	-3.912746e-06	-8.153469e-09	-2.726266e+01	-5.342002e+02
2.910000e-06	-3.985219e-06	-8.243777e-09	-2.776763e+01	-5.404649e+02
2.920000e-06	-4.056389e-06	-8.330966e-09	-2.826352e+01	-5.464886e+02
2.930000e-06	-4.126007e-06	-8.420035e-09	-2.874859e+01	-5.523110e+02
2.940000e-06	-4.193955e-06	-8.508253e-09	-2.922202e+01	-5.579091e+02
