# Temperatura_=_20.0
# Concentracion g/m^3_=_10000.0
# C_Vs_to_Am_M_A/Vsm_=_65563218390.804596
# pendiente_HvsI_1/m_=_3716.3
# ordenada_HvsI_A/m_=_1297.0
# frecuencia_Hz_=_300952.6832990407

Tiempo_(s)	Campo_(V.s)	Magnetizacion_(V.s)	Campo_(kA/m)	Magnetizacion_(A/m)
0.000000e+00	-5.491964e-06	-9.691662e-09	-3.827029e+01	-6.355741e+02
1.000000e-08	-5.490475e-06	-9.692281e-09	-3.825991e+01	-6.355358e+02
2.000000e-08	-5.487025e-06	-9.694041e-09	-3.823587e+01	-6.355358e+02
3.000000e-08	-5.481783e-06	-9.694575e-09	-3.819934e+01	-6.354609e+02
4.000000e-08	-5.474918e-06	-9.688805e-09	-3.815150e+01	-6.351711e+02
5.000000e-08	-5.466380e-06	-9.675656e-09	-3.809201e+01	-6.345912e+02
6.000000e-08	-5.455875e-06	-9.660642e-09	-3.801880e+01	-6.337734e+02
7.000000e-08	-5.443267e-06	-9.637866e-09	-3.793094e+01	-6.328796e+02
8.000000e-08	-5.428690e-06	-9.620372e-09	-3.782936e+01	-6.320836e+02
9.000000e-08	-5.411820e-06	-9.648996e-09	-3.771180e+01	-6.314528e+02
1.000000e-07	-5.392608e-06	-9.651091e-09	-3.757793e+01	-6.308910e+02
1.100000e-07	-5.371407e-06	-9.621084e-09	-3.743019e+01	-6.301904e+02
1.200000e-07	-5.348392e-06	-9.606767e-09	-3.726982e+01	-6.291668e+02
1.300000e-07	-5.323897e-06	-9.518442e-09	-3.709912e+01	-6.277905e+02
1.400000e-07	-5.297972e-06	-9.510586e-09	-3.691847e+01	-6.262186e+02
1.500000e-07	-5.270243e-06	-9.591140e-09	-3.672524e+01	-6.246993e+02
1.600000e-07	-5.240756e-06	-9.473376e-09	-3.651976e+01	-6.234062e+02
1.700000e-07	-5.209668e-06	-9.458792e-09	-3.630313e+01	-6.223120e+02
1.800000e-07	-5.176600e-06	-9.509641e-09	-3.607269e+01	-6.211930e+02
1.900000e-07	-5.141472e-06	-9.394935e-09	-3.582791e+01	-6.197647e+02
2.000000e-07	-5.104827e-06	-9.421829e-09	-3.557255e+01	-6.178623e+02
2.100000e-07	-5.066565e-06	-9.418461e-09	-3.530593e+01	-6.155447e+02
2.200000e-07	-5.026386e-06	-9.301405e-09	-3.502594e+01	-6.130512e+02
2.300000e-07	-4.984307e-06	-9.302117e-09	-3.473272e+01	-6.106408e+02
2.400000e-07	-4.940276e-06	-9.303394e-09	-3.442589e+01	-6.084238e+02
2.500000e-07	-4.894460e-06	-9.274058e-09	-3.410663e+01	-6.062974e+02
2.600000e-07	-4.846774e-06	-9.212828e-09	-3.377433e+01	-6.040284e+02
2.700000e-07	-4.796981e-06	-9.112211e-09	-3.342735e+01	-6.014202e+02
2.800000e-07	-4.745141e-06	-9.102472e-09	-3.306611e+01	-5.984478e+02
2.900000e-07	-4.691481e-06	-9.083013e-09	-3.269219e+01	-5.952701e+02
3.000000e-07	-4.636164e-06	-9.032802e-09	-3.230671e+01	-5.921136e+02
3.100000e-07	-4.579159e-06	-8.983259e-09	-3.190948e+01	-5.891131e+02
3.200000e-07	-4.520356e-06	-8.927453e-09	-3.149972e+01	-5.862179e+02
3.300000e-07	-4.459901e-06	-8.899624e-09	-3.107844e+01	-5.832263e+02
3.400000e-07	-4.398019e-06	-8.847308e-09	-3.064722e+01	-5.799195e+02
3.500000e-07	-4.334707e-06	-8.774311e-09	-3.020604e+01	-5.762008e+02
3.600000e-07	-4.269836e-06	-8.680613e-09	-2.975399e+01	-5.721499e+02
3.700000e-07	-4.203213e-06	-8.624552e-09	-2.928974e+01	-5.679603e+02
3.800000e-07	-4.134949e-06	-8.610163e-09	-2.881404e+01	-5.638121e+02
3.900000e-07	-4.065263e-06	-8.551448e-09	-2.832844e+01	-5.597634e+02
4.000000e-07	-3.994218e-06	-8.475796e-09	-2.783337e+01	-5.557290e+02
4.100000e-07	-3.921857e-06	-8.394889e-09	-2.732913e+01	-5.515456e+02
4.200000e-07	-3.848106e-06	-8.340053e-09	-2.681520e+01	-5.470728e+02
4.300000e-07	-3.772764e-06	-8.288078e-09	-2.629019e+01	-5.422616e+02
4.400000e-07	-3.695818e-06	-8.190946e-09	-2.575399e+01	-5.371571e+02
4.500000e-07	-3.617327e-06	-8.086519e-09	-2.520703e+01	-5.318488e+02
4.600000e-07	-3.537199e-06	-8.006687e-09	-2.464867e+01	-5.264122e+02
4.700000e-07	-3.455649e-06	-7.948717e-09	-2.408040e+01	-5.208787e+02
4.800000e-07	-3.373010e-06	-7.873801e-09	-2.350453e+01	-5.152407e+02
4.900000e-07	-3.289312e-06	-7.769898e-09	-2.292129e+01	-5.094727e+02
5.000000e-07	-3.204588e-06	-7.668068e-09	-2.233090e+01	-5.035449e+02
5.100000e-07	-3.118889e-06	-7.586517e-09	-2.173371e+01	-4.974226e+02
5.200000e-07	-3.032244e-06	-7.506590e-09	-2.112993e+01	-4.910635e+02
5.300000e-07	-2.944651e-06	-7.393624e-09	-2.051955e+01	-4.844266e+02
5.400000e-07	-2.856038e-06	-7.263119e-09	-1.990206e+01	-4.774939e+02
5.500000e-07	-2.766327e-06	-7.155603e-09	-1.927692e+01	-4.702883e+02
5.600000e-07	-2.675430e-06	-7.067420e-09	-1.864350e+01	-4.628665e+02
5.700000e-07	-2.583416e-06	-6.966122e-09	-1.800231e+01	-4.552870e+02
5.800000e-07	-2.490518e-06	-6.834102e-09	-1.735496e+01	-4.475700e+02
5.900000e-07	-2.396793e-06	-6.697529e-09	-1.670185e+01	-4.396796e+02
6.000000e-07	-2.302264e-06	-6.578922e-09	-1.604313e+01	-4.315418e+02
6.100000e-07	-2.207013e-06	-6.465694e-09	-1.537938e+01	-4.230898e+02
6.200000e-07	-2.111019e-06	-6.329832e-09	-1.471046e+01	-4.143024e+02
6.300000e-07	-2.014219e-06	-6.173654e-09	-1.403591e+01	-4.052107e+02
6.400000e-07	-1.916639e-06	-6.029964e-09	-1.335594e+01	-3.958668e+02
6.500000e-07	-1.818342e-06	-5.900819e-09	-1.267096e+01	-3.862978e+02
6.600000e-07	-1.719280e-06	-5.761679e-09	-1.198066e+01	-3.764794e+02
6.700000e-07	-1.619470e-06	-5.595237e-09	-1.128514e+01	-3.663458e+02
6.800000e-07	-1.519049e-06	-5.420047e-09	-1.058537e+01	-3.558297e+02
6.900000e-07	-1.418184e-06	-5.257979e-09	-9.882495e+00	-3.449014e+02
7.000000e-07	-1.316955e-06	-5.100589e-09	-9.177092e+00	-3.335813e+02
7.100000e-07	-1.215284e-06	-4.924900e-09	-8.468606e+00	-3.219198e+02
7.200000e-07	-1.113156e-06	-4.728978e-09	-7.756936e+00	-3.099593e+02
7.300000e-07	-1.010647e-06	-4.535482e-09	-7.042609e+00	-2.977062e+02
7.400000e-07	-9.077948e-07	-4.352292e-09	-6.325891e+00	-2.851266e+02
7.500000e-07	-8.046658e-07	-4.163104e-09	-5.607245e+00	-2.721645e+02
7.600000e-07	-7.012613e-07	-3.950845e-09	-4.886679e+00	-2.587640e+02
7.700000e-07	-5.975850e-07	-3.727333e-09	-4.164220e+00	-2.448834e+02
7.800000e-07	-4.936855e-07	-3.510327e-09	-3.440206e+00	-2.304970e+02
7.900000e-07	-3.896619e-07	-3.295927e-09	-2.715326e+00	-2.155925e+02
8.000000e-07	-2.855310e-07	-3.063511e-09	-1.989698e+00	-2.001700e+02
8.100000e-07	-1.812415e-07	-2.808712e-09	-1.262966e+00	-1.842437e+02
8.200000e-07	-7.685557e-08	-2.552386e-09	-5.355615e-01	-1.678358e+02
8.300000e-07	2.753235e-08	-2.301817e-09	1.918569e-01	-1.509600e+02
8.400000e-07	1.319204e-07	-2.043611e-09	9.192759e-01	-1.336001e+02
8.500000e-07	2.362965e-07	-1.764423e-09	1.646612e+00	-1.157009e+02
8.600000e-07	3.406103e-07	-1.469977e-09	2.373514e+00	-9.718385e+01
8.700000e-07	4.447420e-07	-1.175427e-09	3.099147e+00	-7.798449e+01
8.800000e-07	5.486245e-07	-8.815259e-10	3.823043e+00	-5.809161e+01
8.900000e-07	6.523521e-07	-5.740102e-10	4.545860e+00	-3.756156e+01
9.000000e-07	7.558764e-07	-2.475110e-10	5.267260e+00	-1.649646e+01
9.100000e-07	8.591440e-07	8.482678e-11	5.986872e+00	5.000979e+00
9.200000e-07	9.621442e-07	4.123029e-10	6.704620e+00	2.686667e+01
9.300000e-07	1.064814e-06	7.432123e-10	7.420064e+00	4.908158e+01
9.400000e-07	1.167072e-06	1.091734e-09	8.132645e+00	7.164124e+01
9.500000e-07	1.268880e-06	1.451629e-09	8.842085e+00	9.450903e+01
9.600000e-07	1.370294e-06	1.805533e-09	9.548777e+00	1.175847e+02
9.700000e-07	1.471321e-06	2.148691e-09	1.025278e+01	1.407074e+02
9.800000e-07	1.571943e-06	2.492923e-09	1.095395e+01	1.636894e+02
9.900000e-07	1.672114e-06	2.844790e-09	1.165198e+01	1.863557e+02
1.000000e-06	1.771632e-06	3.190976e-09	1.234546e+01	2.085664e+02
1.010000e-06	1.870281e-06	3.518636e-09	1.303290e+01	2.302144e+02
1.020000e-06	1.968069e-06	3.830735e-09	1.371432e+01	2.512104e+02
1.030000e-06	2.065137e-06	4.139499e-09	1.439073e+01	2.714747e+02
1.040000e-06	2.161477e-06	4.443561e-09	1.506207e+01	2.909448e+02
1.050000e-06	2.256999e-06	4.730543e-09	1.572771e+01	3.095914e+02
1.060000e-06	2.351741e-06	4.995726e-09	1.638791e+01	3.274246e+02
1.070000e-06	2.445735e-06	5.248730e-09	1.704289e+01	3.444797e+02
1.080000e-06	2.539010e-06	5.498380e-09	1.769288e+01	3.607879e+02
1.090000e-06	2.631577e-06	5.739696e-09	1.833792e+01	3.763522e+02
1.100000e-06	2.723248e-06	5.964827e-09	1.897672e+01	3.911462e+02
1.110000e-06	2.813715e-06	6.172100e-09	1.960714e+01	4.051374e+02
1.120000e-06	2.902994e-06	6.371847e-09	2.022927e+01	4.183205e+02
1.130000e-06	2.991285e-06	6.565188e-09	2.084452e+01	4.307360e+02
1.140000e-06	3.078575e-06	6.746847e-09	2.145279e+01	4.424632e+02
1.150000e-06	3.164796e-06	6.913400e-09	2.205361e+01	4.535923e+02
1.160000e-06	3.249967e-06	7.072131e-09	2.264712e+01	4.641937e+02
1.170000e-06	3.334159e-06	7.230050e-09	2.323380e+01	4.743032e+02
1.180000e-06	3.417259e-06	7.382750e-09	2.381288e+01	4.839268e+02
1.190000e-06	3.499028e-06	7.523181e-09	2.438268e+01	4.930575e+02
1.200000e-06	3.579490e-06	7.649462e-09	2.494337e+01	5.016905e+02
1.210000e-06	3.658621e-06	7.770395e-09	2.549479e+01	5.098325e+02
1.220000e-06	3.736406e-06	7.890438e-09	2.603683e+01	5.175043e+02
1.230000e-06	3.812954e-06	8.004138e-09	2.657025e+01	5.247444e+02
1.240000e-06	3.888050e-06	8.105448e-09	2.709354e+01	5.316094e+02
1.250000e-06	3.961497e-06	8.201463e-09	2.760536e+01	5.381676e+02
1.260000e-06	4.033479e-06	8.299538e-09	2.810696e+01	5.444784e+02
1.270000e-06	4.104089e-06	8.399779e-09	2.859900e+01	5.505654e+02
1.280000e-06	4.173249e-06	8.491433e-09	2.908093e+01	5.564000e+02
1.290000e-06	4.240959e-06	8.570751e-09	2.955276e+01	5.619135e+02
1.300000e-06	4.307029e-06	8.645192e-09	3.001316e+01	5.670382e+02
1.310000e-06	4.371488e-06	8.719201e-09	3.046234e+01	5.717581e+02
1.320000e-06	4.434533e-06	8.790723e-09	3.090166e+01	5.761350e+02
1.330000e-06	4.496142e-06	8.853456e-09	3.133098e+01	5.802893e+02
1.340000e-06	4.556339e-06	8.910371e-09	3.175046e+01	5.843410e+02
1.350000e-06	4.614806e-06	8.970698e-09	3.215789e+01	5.883463e+02
1.360000e-06	4.671441e-06	9.034325e-09	3.255254e+01	5.922689e+02
1.370000e-06	4.726466e-06	9.092433e-09	3.293597e+01	5.960083e+02
1.380000e-06	4.779795e-06	9.141996e-09	3.330759e+01	5.994649e+02
1.390000e-06	4.831112e-06	9.186285e-09	3.366519e+01	6.026025e+02
1.400000e-06	4.880350e-06	9.231254e-09	3.400830e+01	6.054678e+02
1.410000e-06	4.927828e-06	9.274600e-09	3.433915e+01	6.081570e+02
1.420000e-06	4.973676e-06	9.311063e-09	3.465864e+01	6.107559e+02
1.430000e-06	5.017859e-06	9.344934e-09	3.496652e+01	6.132947e+02
1.440000e-06	5.060129e-06	9.381277e-09	3.526108e+01	6.157451e+02
1.450000e-06	5.100527e-06	9.420199e-09	3.554259e+01	6.180557e+02
1.460000e-06	5.139233e-06	9.456109e-09	3.581231e+01	6.201961e+02
1.470000e-06	5.176273e-06	9.484095e-09	3.607042e+01	6.221767e+02
1.480000e-06	5.211514e-06	9.506877e-09	3.631599e+01	6.240336e+02
1.490000e-06	5.244748e-06	9.532938e-09	3.654758e+01	6.257952e+02
1.500000e-06	5.276141e-06	9.561759e-09	3.676634e+01	6.274584e+02
1.510000e-06	5.305879e-06	9.586291e-09	3.697357e+01	6.289922e+02
1.520000e-06	5.333875e-06	9.604083e-09	3.716866e+01	6.303641e+02
1.530000e-06	5.359800e-06	9.619390e-09	3.734931e+01	6.315671e+02
1.540000e-06	5.383635e-06	9.636605e-09	3.751540e+01	6.326268e+02
1.550000e-06	5.405659e-06	9.652884e-09	3.766887e+01	6.335875e+02
1.560000e-06	5.425970e-06	9.665764e-09	3.781041e+01	6.344875e+02
1.570000e-06	5.444405e-06	9.675480e-09	3.793888e+01	6.353441e+02
1.580000e-06	5.460837e-06	9.687589e-09	3.805338e+01	6.361529e+02
1.590000e-06	5.475292e-06	9.703959e-09	3.815411e+01	6.368947e+02
1.600000e-06	5.487661e-06	9.717044e-09	3.824030e+01	6.375416e+02
1.610000e-06	5.497794e-06	9.721626e-09	3.831091e+01	6.380582e+02
1.620000e-06	5.505822e-06	9.721599e-09	3.836685e+01	6.384079e+02
1.630000e-06	5.511981e-06	9.723976e-09	3.840977e+01	6.385704e+02
1.640000e-06	5.516352e-06	9.729251e-09	3.844023e+01	6.385650e+02
1.650000e-06	5.518778e-06	9.733823e-09	3.845714e+01	6.384601e+02
1.660000e-06	5.519189e-06	9.733580e-09	3.846000e+01	6.383500e+02
1.670000e-06	5.517769e-06	9.729047e-09	3.845010e+01	6.383013e+02
1.680000e-06	5.514672e-06	9.730325e-09	3.842852e+01	6.383008e+02
1.690000e-06	5.509757e-06	9.731233e-09	3.839427e+01	6.382452e+02
1.700000e-06	5.502889e-06	9.724233e-09	3.834642e+01	6.379927e+02
1.710000e-06	5.494270e-06	9.711906e-09	3.828635e+01	6.374539e+02
1.720000e-06	5.484011e-06	9.705074e-09	3.821487e+01	6.366616e+02
1.730000e-06	5.471832e-06	9.719798e-09	3.812999e+01	6.357665e+02
1.740000e-06	5.457613e-06	9.695887e-09	3.803091e+01	6.349485e+02
1.750000e-06	5.441384e-06	9.640672e-09	3.791782e+01	6.342958e+02
1.760000e-06	5.422640e-06	9.631738e-09	3.778720e+01	6.337351e+02
1.770000e-06	5.401083e-06	9.616793e-09	3.763699e+01	6.330674e+02
1.780000e-06	5.377400e-06	9.670862e-09	3.747195e+01	6.320960e+02
1.790000e-06	5.352641e-06	9.680513e-09	3.729942e+01	6.307640e+02
1.800000e-06	5.327079e-06	9.533685e-09	3.712130e+01	6.292048e+02
1.810000e-06	5.299726e-06	9.592293e-09	3.693069e+01	6.276635e+02
1.820000e-06	5.269973e-06	9.598070e-09	3.672336e+01	6.263340e+02
1.830000e-06	5.238613e-06	9.480429e-09	3.650483e+01	6.252211e+02
1.840000e-06	5.205641e-06	9.573982e-09	3.627507e+01	6.241233e+02
1.850000e-06	5.170727e-06	9.500642e-09	3.603177e+01	6.227534e+02
1.860000e-06	5.134123e-06	9.386990e-09	3.577670e+01	6.209202e+02
1.870000e-06	5.095518e-06	9.499683e-09	3.550768e+01	6.186497e+02
1.880000e-06	5.055066e-06	9.432860e-09	3.522580e+01	6.161634e+02
1.890000e-06	5.013009e-06	9.338778e-09	3.493273e+01	6.137293e+02
1.900000e-06	4.969094e-06	9.303686e-09	3.462671e+01	6.114858e+02
1.910000e-06	4.923514e-06	9.241974e-09	3.430909e+01	6.093589e+02
1.920000e-06	4.876112e-06	9.323734e-09	3.397877e+01	6.071247e+02
1.930000e-06	4.826768e-06	9.250097e-09	3.363492e+01	6.045709e+02
1.940000e-06	4.775674e-06	9.161096e-09	3.327888e+01	6.016440e+02
1.950000e-06	4.722539e-06	9.155234e-09	3.290861e+01	5.984811e+02
1.960000e-06	4.667459e-06	9.070256e-09	3.252479e+01	5.953093e+02
1.970000e-06	4.610731e-06	9.061745e-09	3.212948e+01	5.922847e+02
1.980000e-06	4.552420e-06	8.981702e-09	3.172315e+01	5.893840e+02
1.990000e-06	4.492666e-06	8.919129e-09	3.130676e+01	5.864205e+02
2.000000e-06	4.431198e-06	8.905468e-09	3.087842e+01	5.831682e+02
2.010000e-06	4.367982e-06	8.852090e-09	3.043791e+01	5.795071e+02
2.020000e-06	4.303255e-06	8.837749e-09	2.998686e+01	5.754928e+02
2.030000e-06	4.237036e-06	8.709312e-09	2.952543e+01	5.713099e+02
2.040000e-06	4.169314e-06	8.627284e-09	2.905351e+01	5.671482e+02
2.050000e-06	4.099887e-06	8.592302e-09	2.856971e+01	5.630872e+02
2.060000e-06	4.028879e-06	8.533902e-09	2.807490e+01	5.590596e+02
2.070000e-06	3.956510e-06	8.483744e-09	2.757060e+01	5.549073e+02
2.080000e-06	3.882751e-06	8.360859e-09	2.705662e+01	5.504809e+02
2.090000e-06	3.807488e-06	8.315022e-09	2.653216e+01	5.457167e+02
2.100000e-06	3.730517e-06	8.265208e-09	2.599579e+01	5.406486e+02
2.110000e-06	3.652015e-06	8.191826e-09	2.544875e+01	5.353636e+02
2.120000e-06	3.572278e-06	8.095681e-09	2.489312e+01	5.299419e+02
2.130000e-06	3.491419e-06	7.973053e-09	2.432966e+01	5.244216e+02
2.140000e-06	3.409368e-06	7.916010e-09	2.375789e+01	5.187995e+02
2.150000e-06	3.326122e-06	7.832258e-09	2.317780e+01	5.130515e+02
2.160000e-06	3.241726e-06	7.739139e-09	2.258969e+01	5.071481e+02
2.170000e-06	3.156001e-06	7.621134e-09	2.199232e+01	5.010556e+02
2.180000e-06	3.069011e-06	7.526649e-09	2.138614e+01	4.947327e+02
2.190000e-06	2.981028e-06	7.458458e-09	2.077304e+01	4.881370e+02
2.200000e-06	2.892128e-06	7.355454e-09	2.015355e+01	4.812458e+02
2.210000e-06	2.802327e-06	7.232734e-09	1.952777e+01	4.740759e+02
2.220000e-06	2.711613e-06	7.091035e-09	1.889565e+01	4.666805e+02
2.230000e-06	2.619905e-06	6.988977e-09	1.825659e+01	4.591207e+02
2.240000e-06	2.527243e-06	6.889764e-09	1.761088e+01	4.514239e+02
2.250000e-06	2.433641e-06	6.767554e-09	1.695862e+01	4.435619e+02
2.260000e-06	2.339015e-06	6.626223e-09	1.629923e+01	4.354639e+02
2.270000e-06	2.243469e-06	6.494844e-09	1.563342e+01	4.270590e+02
2.280000e-06	2.147221e-06	6.386430e-09	1.496273e+01	4.183182e+02
2.290000e-06	2.050327e-06	6.255138e-09	1.428753e+01	4.092665e+02
2.300000e-06	1.952780e-06	6.097358e-09	1.360778e+01	3.999555e+02
2.310000e-06	1.854609e-06	5.932478e-09	1.292368e+01	3.904185e+02
2.320000e-06	1.755831e-06	5.793156e-09	1.223536e+01	3.806387e+02
2.330000e-06	1.656500e-06	5.655923e-09	1.154318e+01	3.705544e+02
2.340000e-06	1.556654e-06	5.493079e-09	1.084741e+01	3.600956e+02
2.350000e-06	1.456239e-06	5.311467e-09	1.014768e+01	3.492256e+02
2.360000e-06	1.355232e-06	5.136200e-09	9.443820e+00	3.379583e+02
2.370000e-06	1.253587e-06	4.976402e-09	8.735515e+00	3.263420e+02
2.380000e-06	1.151423e-06	4.803158e-09	8.023592e+00	3.144224e+02
2.390000e-06	1.048840e-06	4.607032e-09	7.308755e+00	3.022120e+02
2.400000e-06	9.457462e-07	4.403170e-09	6.590352e+00	2.896819e+02
2.410000e-06	8.422255e-07	4.214466e-09	5.868976e+00	2.767777e+02
2.420000e-06	7.384792e-07	4.027855e-09	5.146029e+00	2.634423e+02
2.430000e-06	6.346164e-07	3.816396e-09	4.422271e+00	2.496318e+02
2.440000e-06	5.306188e-07	3.583341e-09	3.697572e+00	2.353184e+02
2.450000e-06	4.264588e-07	3.351001e-09	2.971742e+00	2.204878e+02
2.460000e-06	3.221472e-07	3.129429e-09	2.244856e+00	2.051384e+02
2.470000e-06	2.176925e-07	2.897897e-09	1.516971e+00	1.892823e+02
2.480000e-06	1.131669e-07	2.641557e-09	7.885936e-01	1.729416e+02
2.490000e-06	8.556868e-09	2.373305e-09	5.962781e-02	1.561323e+02
2.500000e-06	-9.609053e-08	2.112131e-09	-6.695987e-01	1.388437e+02
2.510000e-06	-2.006247e-07	1.854410e-09	-1.398036e+00	1.210258e+02
2.520000e-06	-3.050039e-07	1.579279e-09	-2.125394e+00	1.026014e+02
2.530000e-06	-4.092393e-07	1.280127e-09	-2.851749e+00	8.350135e+01
2.540000e-06	-5.133533e-07	9.713182e-10	-3.577259e+00	6.370522e+01
2.550000e-06	-6.173370e-07	6.651172e-10	-4.301860e+00	4.326018e+01
2.560000e-06	-7.211407e-07	3.526320e-10	-5.025208e+00	2.226434e+01
2.570000e-06	-8.247107e-07	2.200244e-11	-5.746926e+00	8.231934e-01
2.580000e-06	-9.280190e-07	-3.205123e-10	-6.466821e+00	-2.099230e+01
2.590000e-06	-1.030926e-06	-6.591680e-10	-7.183920e+00	-4.315782e+01
2.600000e-06	-1.133354e-06	-9.916559e-10	-7.897684e+00	-6.566963e+01
2.610000e-06	-1.235273e-06	-1.334998e-09	-8.607897e+00	-8.849830e+01
2.620000e-06	-1.336634e-06	-1.694486e-09	-9.314219e+00	-1.115533e+02
2.630000e-06	-1.437421e-06	-2.055099e-09	-1.001654e+01	-1.346810e+02
2.640000e-06	-1.537606e-06	-2.402617e-09	-1.071467e+01	-1.576949e+02
2.650000e-06	-1.637208e-06	-2.740114e-09	-1.140874e+01	-1.804161e+02
2.660000e-06	-1.736233e-06	-3.080567e-09	-1.209879e+01	-2.026995e+02
2.670000e-06	-1.834702e-06	-3.419875e-09	-1.278497e+01	-2.244340e+02
2.680000e-06	-1.932626e-06	-3.742529e-09	-1.346734e+01	-2.455287e+02
2.690000e-06	-2.029908e-06	-4.044815e-09	-1.414524e+01	-2.659023e+02
2.700000e-06	-2.126450e-06	-4.338817e-09	-1.481798e+01	-2.854889e+02
2.710000e-06	-2.222308e-06	-4.632028e-09	-1.548596e+01	-3.042538e+02
2.720000e-06	-2.317588e-06	-4.914122e-09	-1.614991e+01	-3.222017e+02
2.730000e-06	-2.412148e-06	-5.173969e-09	-1.680885e+01	-3.393660e+02
2.740000e-06	-2.505657e-06	-5.415684e-09	-1.746046e+01	-3.557803e+02
2.750000e-06	-2.598044e-06	-5.654611e-09	-1.810425e+01	-3.714523e+02
2.760000e-06	-2.689470e-06	-5.891752e-09	-1.874134e+01	-3.863589e+02
2.770000e-06	-2.779926e-06	-6.111983e-09	-1.937168e+01	-4.004665e+02
2.780000e-06	-2.869304e-06	-6.308376e-09	-1.999450e+01	-4.137641e+02
2.790000e-06	-2.957693e-06	-6.491913e-09	-2.061043e+01	-4.262854e+02
2.800000e-06	-3.045242e-06	-6.678138e-09	-2.122051e+01	-4.381057e+02
2.810000e-06	-3.131866e-06	-6.860120e-09	-2.182414e+01	-4.493156e+02
2.820000e-06	-3.217206e-06	-7.022020e-09	-2.241883e+01	-4.599897e+02
2.830000e-06	-3.301182e-06	-7.166211e-09	-2.300401e+01	-4.701690e+02
2.840000e-06	-3.384002e-06	-7.308294e-09	-2.358113e+01	-4.798627e+02
2.850000e-06	-3.465698e-06	-7.454293e-09	-2.415042e+01	-4.890647e+02
2.860000e-06	-3.546257e-06	-7.593099e-09	-2.471179e+01	-4.977691e+02
2.870000e-06	-3.625668e-06	-7.714792e-09	-2.526516e+01	-5.059807e+02
2.880000e-06	-3.703641e-06	-7.826485e-09	-2.580851e+01	-5.137182e+02
2.890000e-06	-3.779962e-06	-7.939824e-09	-2.634034e+01	-5.210172e+02
2.900000e-06	-3.854813e-06	-8.051428e-09	-2.686194e+01	-5.279321e+02
2.910000e-06	-3.928308e-06	-8.152721e-09	-2.737408e+01	-5.345304e+02
2.920000e-06	-4.000454e-06	-8.244099e-09	-2.787682e+01	-5.408744e+02
2.930000e-06	-4.071243e-06	-8.334933e-09	-2.837011e+01	-5.469942e+02
2.940000e-06	-4.140436e-06	-8.429309e-09	-2.885228e+01	-5.528688e+02
