# Temperatura_=_20.0
# Concentracion g/m^3_=_10000.0
# C_Vs_to_Am_M_A/Vsm_=_65563218390.804596
# pendiente_HvsI_1/m_=_3716.3
# ordenada_HvsI_A/m_=_1297.0
# frecuencia_Hz_=_269809.4775665654

Tiempo_(s)	Campo_(V.s)	Magnetizacion_(V.s)	Campo_(kA/m)	Magnetizacion_(A/m)
0.000000e+00	-2.286856e-06	-4.994791e-09	-1.612656e+01	-3.249618e+02
1.000000e-08	-2.286581e-06	-5.000268e-09	-1.612462e+01	-3.253612e+02
2.000000e-08	-2.285869e-06	-5.004900e-09	-1.611960e+01	-3.256740e+02
3.000000e-08	-2.284570e-06	-5.007566e-09	-1.611044e+01	-3.258839e+02
4.000000e-08	-2.282452e-06	-5.005656e-09	-1.609551e+01	-3.259830e+02
5.000000e-08	-2.279470e-06	-5.000841e-09	-1.607448e+01	-3.259699e+02
6.000000e-08	-2.275676e-06	-5.016687e-09	-1.604772e+01	-3.258466e+02
7.000000e-08	-2.271221e-06	-5.026726e-09	-1.601631e+01	-3.256193e+02
8.000000e-08	-2.266132e-06	-4.955922e-09	-1.598042e+01	-3.253011e+02
9.000000e-08	-2.260365e-06	-4.969637e-09	-1.593976e+01	-3.249130e+02
1.000000e-07	-2.254003e-06	-5.009036e-09	-1.589489e+01	-3.244810e+02
1.100000e-07	-2.247127e-06	-5.015915e-09	-1.584640e+01	-3.240272e+02
1.200000e-07	-2.239684e-06	-4.925535e-09	-1.579392e+01	-3.235591e+02
1.300000e-07	-2.231673e-06	-4.937478e-09	-1.573743e+01	-3.230641e+02
1.400000e-07	-2.223202e-06	-5.006423e-09	-1.567769e+01	-3.225126e+02
1.500000e-07	-2.214193e-06	-4.953681e-09	-1.561415e+01	-3.218703e+02
1.600000e-07	-2.204339e-06	-4.888295e-09	-1.554466e+01	-3.211143e+02
1.700000e-07	-2.193518e-06	-4.920432e-09	-1.546836e+01	-3.202433e+02
1.800000e-07	-2.181898e-06	-4.952195e-09	-1.538641e+01	-3.192777e+02
1.900000e-07	-2.169639e-06	-4.849266e-09	-1.529997e+01	-3.182476e+02
2.000000e-07	-2.156709e-06	-4.856345e-09	-1.520879e+01	-3.171768e+02
2.100000e-07	-2.143126e-06	-4.893210e-09	-1.511300e+01	-3.160704e+02
2.200000e-07	-2.129000e-06	-4.839525e-09	-1.501339e+01	-3.149147e+02
2.300000e-07	-2.114219e-06	-4.759282e-09	-1.490916e+01	-3.136862e+02
2.400000e-07	-2.098546e-06	-4.817591e-09	-1.479863e+01	-3.123673e+02
2.500000e-07	-2.081948e-06	-4.813662e-09	-1.468158e+01	-3.109563e+02
2.600000e-07	-2.064685e-06	-4.719607e-09	-1.455985e+01	-3.094680e+02
2.700000e-07	-2.046943e-06	-4.699744e-09	-1.443474e+01	-3.079246e+02
2.800000e-07	-2.028693e-06	-4.739232e-09	-1.430604e+01	-3.063419e+02
2.900000e-07	-2.009865e-06	-4.685525e-09	-1.417327e+01	-3.047216e+02
3.000000e-07	-1.990461e-06	-4.620628e-09	-1.403644e+01	-3.030521e+02
3.100000e-07	-1.970521e-06	-4.617948e-09	-1.389582e+01	-3.013173e+02
3.200000e-07	-1.950122e-06	-4.604276e-09	-1.375196e+01	-2.995081e+02
3.300000e-07	-1.929355e-06	-4.569283e-09	-1.360552e+01	-2.976273e+02
3.400000e-07	-1.908174e-06	-4.529222e-09	-1.345616e+01	-2.956876e+02
3.500000e-07	-1.886452e-06	-4.508228e-09	-1.330298e+01	-2.937015e+02
3.600000e-07	-1.864170e-06	-4.467689e-09	-1.314585e+01	-2.916734e+02
3.700000e-07	-1.841355e-06	-4.444896e-09	-1.298496e+01	-2.895979e+02
3.800000e-07	-1.818031e-06	-4.404693e-09	-1.282048e+01	-2.874646e+02
3.900000e-07	-1.794183e-06	-4.381620e-09	-1.265231e+01	-2.852682e+02
4.000000e-07	-1.769899e-06	-4.332801e-09	-1.248106e+01	-2.830132e+02
4.100000e-07	-1.745361e-06	-4.290591e-09	-1.230802e+01	-2.807113e+02
4.200000e-07	-1.720426e-06	-4.279071e-09	-1.213219e+01	-2.783715e+02
4.300000e-07	-1.694807e-06	-4.237476e-09	-1.195152e+01	-2.759898e+02
4.400000e-07	-1.668386e-06	-4.173662e-09	-1.176521e+01	-2.735466e+02
4.500000e-07	-1.641194e-06	-4.147158e-09	-1.157345e+01	-2.710159e+02
4.600000e-07	-1.613414e-06	-4.134734e-09	-1.137755e+01	-2.683809e+02
4.700000e-07	-1.585266e-06	-4.063284e-09	-1.117906e+01	-2.656486e+02
4.800000e-07	-1.556849e-06	-4.018658e-09	-1.097866e+01	-2.628514e+02
4.900000e-07	-1.528169e-06	-3.986378e-09	-1.077642e+01	-2.600335e+02
5.000000e-07	-1.499087e-06	-3.935847e-09	-1.057134e+01	-2.572273e+02
5.100000e-07	-1.469517e-06	-3.889577e-09	-1.036281e+01	-2.544331e+02
5.200000e-07	-1.439525e-06	-3.856464e-09	-1.015132e+01	-2.516137e+02
5.300000e-07	-1.409185e-06	-3.800938e-09	-9.937362e+00	-2.487098e+02
5.400000e-07	-1.378540e-06	-3.746050e-09	-9.721257e+00	-2.456681e+02
5.500000e-07	-1.347529e-06	-3.710993e-09	-9.502570e+00	-2.424703e+02
5.600000e-07	-1.316112e-06	-3.654982e-09	-9.281024e+00	-2.391438e+02
5.700000e-07	-1.284349e-06	-3.598398e-09	-9.057034e+00	-2.357507e+02
5.800000e-07	-1.252294e-06	-3.547991e-09	-8.830989e+00	-2.323580e+02
5.900000e-07	-1.219991e-06	-3.504192e-09	-8.603196e+00	-2.290047e+02
6.000000e-07	-1.187462e-06	-3.451835e-09	-8.373802e+00	-2.256842e+02
6.100000e-07	-1.154697e-06	-3.392861e-09	-8.142748e+00	-2.223480e+02
6.200000e-07	-1.121563e-06	-3.333374e-09	-7.909096e+00	-2.189324e+02
6.300000e-07	-1.087981e-06	-3.284631e-09	-7.672279e+00	-2.153899e+02
6.400000e-07	-1.053953e-06	-3.233119e-09	-7.432315e+00	-2.117123e+02
6.500000e-07	-1.019396e-06	-3.168418e-09	-7.188629e+00	-2.079324e+02
6.600000e-07	-9.842373e-07	-3.111390e-09	-6.940694e+00	-2.041043e+02
6.700000e-07	-9.485535e-07	-3.054236e-09	-6.689057e+00	-2.002756e+02
6.800000e-07	-9.125558e-07	-2.996045e-09	-6.435207e+00	-1.964637e+02
6.900000e-07	-8.763855e-07	-2.935321e-09	-6.180139e+00	-1.926502e+02
7.000000e-07	-8.400966e-07	-2.873958e-09	-5.924235e+00	-1.887932e+02
7.100000e-07	-8.037113e-07	-2.809915e-09	-5.667651e+00	-1.848502e+02
7.200000e-07	-7.672209e-07	-2.747344e-09	-5.410327e+00	-1.807997e+02
7.300000e-07	-7.305942e-07	-2.686219e-09	-5.152041e+00	-1.766493e+02
7.400000e-07	-6.938189e-07	-2.619797e-09	-4.892707e+00	-1.724295e+02
7.500000e-07	-6.568147e-07	-2.553777e-09	-4.631759e+00	-1.681757e+02
7.600000e-07	-6.195614e-07	-2.487526e-09	-4.369054e+00	-1.639109e+02
7.700000e-07	-5.821624e-07	-2.423324e-09	-4.105322e+00	-1.596349e+02
7.800000e-07	-5.446165e-07	-2.356014e-09	-3.840554e+00	-1.553267e+02
7.900000e-07	-5.069110e-07	-2.284831e-09	-3.574660e+00	-1.509551e+02
8.000000e-07	-4.690728e-07	-2.212920e-09	-3.307831e+00	-1.464936e+02
8.100000e-07	-4.310641e-07	-2.143156e-09	-3.039799e+00	-1.419300e+02
8.200000e-07	-3.928970e-07	-2.073047e-09	-2.770650e+00	-1.372693e+02
8.300000e-07	-3.546404e-07	-1.998397e-09	-2.500871e+00	-1.325285e+02
8.400000e-07	-3.163144e-07	-1.925352e-09	-2.230602e+00	-1.277281e+02
8.500000e-07	-2.779261e-07	-1.852096e-09	-1.959893e+00	-1.228831e+02
8.600000e-07	-2.394988e-07	-1.779301e-09	-1.688910e+00	-1.179989e+02
8.700000e-07	-2.010419e-07	-1.700160e-09	-1.417717e+00	-1.130711e+02
8.800000e-07	-1.625442e-07	-1.617147e-09	-1.146238e+00	-1.080906e+02
8.900000e-07	-1.240236e-07	-1.537436e-09	-8.745961e-01	-1.030485e+02
9.000000e-07	-8.543535e-08	-1.460948e-09	-6.024772e-01	-9.794086e+01
9.100000e-07	-4.681273e-08	-1.382283e-09	-3.301163e-01	-9.276968e+01
9.200000e-07	-8.227618e-09	-1.300378e-09	-5.801993e-02	-8.754053e+01
9.300000e-07	3.039764e-08	-1.221697e-09	2.143596e-01	-8.225812e+01
9.400000e-07	6.902748e-08	-1.142756e-09	4.867714e-01	-7.692208e+01
9.500000e-07	1.076228e-07	-1.061189e-09	7.589398e-01	-7.152572e+01
9.600000e-07	1.461752e-07	-9.740249e-10	1.030806e+00	-6.605901e+01
9.700000e-07	1.846727e-07	-8.866785e-10	1.302284e+00	-6.051472e+01
9.800000e-07	2.231622e-07	-8.023515e-10	1.573706e+00	-5.489456e+01
9.900000e-07	2.616351e-07	-7.189406e-10	1.845012e+00	-4.921140e+01
1.000000e-06	3.000519e-07	-6.303170e-10	2.115921e+00	-4.348508e+01
1.010000e-06	3.383910e-07	-5.383622e-10	2.386282e+00	-3.773280e+01
1.020000e-06	3.766637e-07	-4.521264e-10	2.656176e+00	-3.195853e+01
1.030000e-06	4.148735e-07	-3.679913e-10	2.925626e+00	-2.614754e+01
1.040000e-06	4.529747e-07	-2.790451e-10	3.194310e+00	-2.027042e+01
1.050000e-06	4.909483e-07	-1.829452e-10	3.462094e+00	-1.429614e+01
1.060000e-06	5.287543e-07	-8.798359e-11	3.728696e+00	-8.208669e+00
1.070000e-06	5.663870e-07	4.057543e-12	3.994076e+00	-2.018618e+00
1.080000e-06	6.038330e-07	9.852728e-11	4.258139e+00	4.237205e+00
1.090000e-06	6.410516e-07	1.960858e-10	4.520600e+00	1.050956e+01
1.100000e-06	6.780561e-07	2.923387e-10	4.781549e+00	1.675824e+01
1.110000e-06	7.148664e-07	3.830924e-10	5.041131e+00	2.297085e+01
1.120000e-06	7.515205e-07	4.735972e-10	5.299610e+00	2.916934e+01
1.130000e-06	7.880342e-07	5.684483e-10	5.557099e+00	3.540000e+01
1.140000e-06	8.244636e-07	6.686490e-10	5.813993e+00	4.171155e+01
1.150000e-06	8.608212e-07	7.684170e-10	6.070382e+00	4.813144e+01
1.160000e-06	8.970415e-07	8.672062e-10	6.325802e+00	5.465198e+01
1.170000e-06	9.330417e-07	9.689995e-10	6.579670e+00	6.123277e+01
1.180000e-06	9.687144e-07	1.071767e-09	6.831229e+00	6.781763e+01
1.190000e-06	1.003945e-06	1.169333e-09	7.079667e+00	7.435766e+01
1.200000e-06	1.038729e-06	1.263915e-09	7.324961e+00	8.082904e+01
1.210000e-06	1.073014e-06	1.361392e-09	7.566734e+00	8.723800e+01
1.220000e-06	1.106753e-06	1.460997e-09	7.804657e+00	9.361208e+01
1.230000e-06	1.140041e-06	1.558960e-09	8.039397e+00	9.998339e+01
1.240000e-06	1.172958e-06	1.654467e-09	8.271523e+00	1.063725e+02
1.250000e-06	1.205583e-06	1.752231e-09	8.501588e+00	1.127802e+02
1.260000e-06	1.237987e-06	1.851594e-09	8.730097e+00	1.191888e+02
1.270000e-06	1.270212e-06	1.948983e-09	8.957347e+00	1.255709e+02
1.280000e-06	1.302198e-06	2.041649e-09	9.182906e+00	1.318989e+02
1.290000e-06	1.333827e-06	2.132942e-09	9.405947e+00	1.381530e+02
1.300000e-06	1.365069e-06	2.226583e-09	9.626258e+00	1.443233e+02
1.310000e-06	1.395886e-06	2.321024e-09	9.843576e+00	1.504091e+02
1.320000e-06	1.426262e-06	2.412832e-09	1.005779e+01	1.564166e+02
1.330000e-06	1.456276e-06	2.502180e-09	1.026944e+01	1.623557e+02
1.340000e-06	1.485928e-06	2.592335e-09	1.047854e+01	1.682370e+02
1.350000e-06	1.515189e-06	2.682220e-09	1.068488e+01	1.740670e+02
1.360000e-06	1.544094e-06	2.768971e-09	1.088872e+01	1.798433e+02
1.370000e-06	1.572702e-06	2.852627e-09	1.109046e+01	1.855517e+02
1.380000e-06	1.601063e-06	2.936418e-09	1.129045e+01	1.911675e+02
1.390000e-06	1.629145e-06	3.020463e-09	1.148849e+01	1.966628e+02
1.400000e-06	1.656728e-06	3.102415e-09	1.168300e+01	2.020171e+02
1.410000e-06	1.683647e-06	3.182303e-09	1.187283e+01	2.072272e+02
1.420000e-06	1.709764e-06	3.259985e-09	1.205700e+01	2.123103e+02
1.430000e-06	1.735112e-06	3.336311e-09	1.223575e+01	2.172977e+02
1.440000e-06	1.759888e-06	3.410894e-09	1.241046e+01	2.222211e+02
1.450000e-06	1.784194e-06	3.484248e-09	1.258187e+01	2.270972e+02
1.460000e-06	1.808071e-06	3.556126e-09	1.275024e+01	2.319188e+02
1.470000e-06	1.831496e-06	3.626478e-09	1.291543e+01	2.366560e+02
1.480000e-06	1.854422e-06	3.696133e-09	1.307710e+01	2.412688e+02
1.490000e-06	1.876795e-06	3.764314e-09	1.323487e+01	2.457231e+02
1.500000e-06	1.898694e-06	3.830909e-09	1.338931e+01	2.500043e+02
1.510000e-06	1.920133e-06	3.893654e-09	1.354049e+01	2.541216e+02
1.520000e-06	1.941066e-06	3.952507e-09	1.368810e+01	2.581012e+02
1.530000e-06	1.961574e-06	4.010003e-09	1.383272e+01	2.619737e+02
1.540000e-06	1.981741e-06	4.066615e-09	1.397494e+01	2.657605e+02
1.550000e-06	2.001450e-06	4.120907e-09	1.411393e+01	2.694658e+02
1.560000e-06	2.020512e-06	4.171590e-09	1.424835e+01	2.730767e+02
1.570000e-06	2.038879e-06	4.220566e-09	1.437787e+01	2.765693e+02
1.580000e-06	2.056600e-06	4.270274e-09	1.450283e+01	2.799172e+02
1.590000e-06	2.073750e-06	4.319840e-09	1.462377e+01	2.830999e+02
1.600000e-06	2.090346e-06	4.364711e-09	1.474081e+01	2.861083e+02
1.610000e-06	2.106331e-06	4.404445e-09	1.485353e+01	2.889470e+02
1.620000e-06	2.121637e-06	4.442634e-09	1.496147e+01	2.916334e+02
1.630000e-06	2.136219e-06	4.480246e-09	1.506429e+01	2.941946e+02
1.640000e-06	2.150213e-06	4.514976e-09	1.516298e+01	2.966600e+02
1.650000e-06	2.163683e-06	4.546616e-09	1.525797e+01	2.990524e+02
1.660000e-06	2.176485e-06	4.578998e-09	1.534824e+01	3.013795e+02
1.670000e-06	2.188639e-06	4.612868e-09	1.543395e+01	3.036293e+02
1.680000e-06	2.200128e-06	4.644110e-09	1.551497e+01	3.057735e+02
1.690000e-06	2.210786e-06	4.671148e-09	1.559013e+01	3.077793e+02
1.700000e-06	2.220511e-06	4.696103e-09	1.565871e+01	3.096241e+02
1.710000e-06	2.229440e-06	4.719977e-09	1.572168e+01	3.113080e+02
1.720000e-06	2.237831e-06	4.741531e-09	1.578085e+01	3.128566e+02
1.730000e-06	2.245721e-06	4.760479e-09	1.583649e+01	3.143108e+02
1.740000e-06	2.253047e-06	4.779120e-09	1.588815e+01	3.157093e+02
1.750000e-06	2.259760e-06	4.799461e-09	1.593549e+01	3.170703e+02
1.760000e-06	2.265817e-06	4.819836e-09	1.597820e+01	3.183833e+02
1.770000e-06	2.271243e-06	4.837614e-09	1.601646e+01	3.196147e+02
1.780000e-06	2.276082e-06	4.853395e-09	1.605059e+01	3.207238e+02
1.790000e-06	2.280447e-06	4.868621e-09	1.608137e+01	3.216837e+02
1.800000e-06	2.284359e-06	4.882060e-09	1.610896e+01	3.224933e+02
1.810000e-06	2.287566e-06	4.892669e-09	1.613157e+01	3.231781e+02
1.820000e-06	2.289786e-06	4.901188e-09	1.614722e+01	3.237770e+02
1.830000e-06	2.291076e-06	4.908170e-09	1.615632e+01	3.243255e+02
1.840000e-06	2.291737e-06	4.914506e-09	1.616099e+01	3.248414e+02
1.850000e-06	2.291909e-06	4.922225e-09	1.616220e+01	3.253210e+02
1.860000e-06	2.291585e-06	4.929219e-09	1.615991e+01	3.257452e+02
1.870000e-06	2.290669e-06	4.935849e-09	1.615345e+01	3.260899e+02
1.880000e-06	2.289102e-06	4.942622e-09	1.614240e+01	3.263362e+02
1.890000e-06	2.286937e-06	4.947810e-09	1.612714e+01	3.264735e+02
1.900000e-06	2.284230e-06	4.950551e-09	1.610804e+01	3.264985e+02
1.910000e-06	2.281039e-06	4.921710e-09	1.608554e+01	3.264123e+02
1.920000e-06	2.277292e-06	4.920470e-09	1.605912e+01	3.262195e+02
1.930000e-06	2.272730e-06	4.991991e-09	1.602695e+01	3.259304e+02
1.940000e-06	2.267163e-06	4.921972e-09	1.598769e+01	3.255636e+02
1.950000e-06	2.260677e-06	4.901721e-09	1.594195e+01	3.251442e+02
1.960000e-06	2.253634e-06	4.902732e-09	1.589229e+01	3.246968e+02
1.970000e-06	2.246190e-06	4.963617e-09	1.583980e+01	3.242347e+02
1.980000e-06	2.238168e-06	4.896547e-09	1.578322e+01	3.237521e+02
1.990000e-06	2.229522e-06	4.839851e-09	1.572226e+01	3.232242e+02
2.000000e-06	2.220378e-06	4.903925e-09	1.565778e+01	3.226164e+02
2.010000e-06	2.210725e-06	4.909760e-09	1.558970e+01	3.219004e+02
2.020000e-06	2.200384e-06	4.840767e-09	1.551678e+01	3.210672e+02
2.030000e-06	2.189350e-06	4.812226e-09	1.543897e+01	3.201308e+02
2.040000e-06	2.177709e-06	4.894592e-09	1.535687e+01	3.191198e+02
2.050000e-06	2.165325e-06	4.807752e-09	1.526954e+01	3.180617e+02
2.060000e-06	2.151946e-06	4.751680e-09	1.517520e+01	3.169687e+02
2.070000e-06	2.137673e-06	4.803621e-09	1.507455e+01	3.158327e+02
2.080000e-06	2.122822e-06	4.825016e-09	1.496982e+01	3.146318e+02
2.090000e-06	2.107463e-06	4.701550e-09	1.486151e+01	3.133450e+02
2.100000e-06	2.091569e-06	4.701259e-09	1.474943e+01	3.119645e+02
2.110000e-06	2.075154e-06	4.753024e-09	1.463368e+01	3.105005e+02
2.120000e-06	2.058186e-06	4.691165e-09	1.451402e+01	3.089739e+02
2.130000e-06	2.040639e-06	4.607603e-09	1.439028e+01	3.074041e+02
2.140000e-06	2.022544e-06	4.645301e-09	1.426268e+01	3.057980e+02
2.150000e-06	2.003895e-06	4.644549e-09	1.413117e+01	3.041476e+02
2.160000e-06	1.984712e-06	4.575215e-09	1.399589e+01	3.024369e+02
2.170000e-06	1.965086e-06	4.551614e-09	1.385749e+01	3.006536e+02
2.180000e-06	1.944957e-06	4.535733e-09	1.371555e+01	2.987964e+02
2.190000e-06	1.924189e-06	4.509294e-09	1.356909e+01	2.968756e+02
2.200000e-06	1.902675e-06	4.467870e-09	1.341738e+01	2.949047e+02
2.210000e-06	1.880350e-06	4.437037e-09	1.325995e+01	2.928916e+02
2.220000e-06	1.857346e-06	4.410250e-09	1.309772e+01	2.908338e+02
2.230000e-06	1.833874e-06	4.392159e-09	1.293220e+01	2.887217e+02
2.240000e-06	1.810081e-06	4.338608e-09	1.276442e+01	2.865472e+02
2.250000e-06	1.785892e-06	4.310615e-09	1.259384e+01	2.843114e+02
2.260000e-06	1.761207e-06	4.297590e-09	1.241977e+01	2.820246e+02
2.270000e-06	1.736006e-06	4.231975e-09	1.224205e+01	2.796979e+02
2.280000e-06	1.710341e-06	4.199359e-09	1.206107e+01	2.773324e+02
2.290000e-06	1.684222e-06	4.197292e-09	1.187688e+01	2.749134e+02
2.300000e-06	1.657603e-06	4.132534e-09	1.168917e+01	2.724154e+02
2.310000e-06	1.630553e-06	4.075109e-09	1.149841e+01	2.698166e+02
2.320000e-06	1.603182e-06	4.071470e-09	1.130540e+01	2.671151e+02
2.330000e-06	1.575537e-06	4.017694e-09	1.111045e+01	2.643356e+02
2.340000e-06	1.547535e-06	3.959006e-09	1.091298e+01	2.615206e+02
2.350000e-06	1.519018e-06	3.940649e-09	1.071189e+01	2.587094e+02
2.360000e-06	1.489857e-06	3.889569e-09	1.050625e+01	2.559145e+02
2.370000e-06	1.460008e-06	3.841542e-09	1.029576e+01	2.531104e+02
2.380000e-06	1.429482e-06	3.817188e-09	1.008049e+01	2.502423e+02
2.390000e-06	1.398447e-06	3.764577e-09	9.861641e+00	2.472516e+02
2.400000e-06	1.367104e-06	3.707521e-09	9.640614e+00	2.441059e+02
2.410000e-06	1.335519e-06	3.671083e-09	9.417881e+00	2.408174e+02
2.420000e-06	1.303678e-06	3.617050e-09	9.193343e+00	2.374394e+02
2.430000e-06	1.271505e-06	3.561502e-09	8.966460e+00	2.340411e+02
2.440000e-06	1.238975e-06	3.510443e-09	8.737068e+00	2.306738e+02
2.450000e-06	1.206082e-06	3.456825e-09	8.505110e+00	2.273469e+02
2.460000e-06	1.172824e-06	3.418045e-09	8.270576e+00	2.240238e+02
2.470000e-06	1.139312e-06	3.368144e-09	8.034255e+00	2.206421e+02
2.480000e-06	1.105544e-06	3.305388e-09	7.796127e+00	2.171458e+02
2.490000e-06	1.071455e-06	3.256344e-09	7.555739e+00	2.135123e+02
2.500000e-06	1.037030e-06	3.206487e-09	7.312978e+00	2.097618e+02
2.510000e-06	1.002243e-06	3.139776e-09	7.067665e+00	2.059444e+02
2.520000e-06	9.671823e-07	3.081024e-09	6.820424e+00	2.021130e+02
2.530000e-06	9.319441e-07	3.025965e-09	6.571930e+00	1.982966e+02
2.540000e-06	8.965917e-07	2.968489e-09	6.322630e+00	1.944884e+02
2.550000e-06	8.611279e-07	2.914570e-09	6.072544e+00	1.906519e+02
2.560000e-06	8.255361e-07	2.855347e-09	5.821556e+00	1.867422e+02
2.570000e-06	7.897925e-07	2.794234e-09	5.569498e+00	1.827290e+02
2.580000e-06	7.538382e-07	2.733887e-09	5.315953e+00	1.786101e+02
2.590000e-06	7.176322e-07	2.671918e-09	5.060634e+00	1.744102e+02
2.600000e-06	6.811213e-07	2.606671e-09	4.803165e+00	1.701651e+02
2.610000e-06	6.442693e-07	2.540960e-09	4.543290e+00	1.659035e+02
2.620000e-06	6.070338e-07	2.474704e-09	4.280711e+00	1.616336e+02
2.630000e-06	5.694840e-07	2.412169e-09	4.015915e+00	1.573402e+02
2.640000e-06	5.316792e-07	2.351851e-09	3.749322e+00	1.529940e+02
2.650000e-06	4.935483e-07	2.285986e-09	3.480428e+00	1.485655e+02
2.660000e-06	4.551337e-07	2.217247e-09	3.209534e+00	1.440370e+02
2.670000e-06	4.166337e-07	2.148318e-09	2.938038e+00	1.394080e+02
2.680000e-06	3.780817e-07	2.078470e-09	2.666175e+00	1.346925e+02
2.690000e-06	3.393126e-07	2.003288e-09	2.392781e+00	1.299107e+02
2.700000e-06	3.003483e-07	1.927420e-09	2.118011e+00	1.250803e+02
2.710000e-06	2.612929e-07	1.853987e-09	1.842598e+00	1.202100e+02
2.720000e-06	2.221538e-07	1.783350e-09	1.566595e+00	1.152984e+02
2.730000e-06	1.829705e-07	1.712389e-09	1.290281e+00	1.103374e+02
2.740000e-06	1.437722e-07	1.637551e-09	1.013860e+00	1.053174e+02
2.750000e-06	1.045693e-07	1.562030e-09	7.374069e-01	1.002325e+02
2.760000e-06	6.534750e-08	1.485209e-09	4.608208e-01	9.508284e+01
2.770000e-06	2.606999e-08	1.404658e-09	1.838416e-01	8.987317e+01
2.780000e-06	-1.324884e-08	1.320633e-09	-9.342885e-02	8.460907e+01
2.790000e-06	-5.255520e-08	1.239513e-09	-3.706114e-01	7.929218e+01
2.800000e-06	-9.180654e-08	1.159938e-09	-6.474059e-01	7.391780e+01
2.810000e-06	-1.310575e-07	1.078211e-09	-9.241980e-01	6.847645e+01
2.820000e-06	-1.702906e-07	9.937211e-10	-1.200864e+00	6.295920e+01
2.830000e-06	-2.094702e-07	9.081920e-10	-1.477152e+00	5.736425e+01
2.840000e-06	-2.486394e-07	8.229800e-10	-1.753368e+00	5.170090e+01
2.850000e-06	-2.877969e-07	7.353127e-10	-2.029501e+00	4.598751e+01
2.860000e-06	-3.268905e-07	6.471008e-10	-2.305183e+00	4.024343e+01
2.870000e-06	-3.658680e-07	5.590289e-10	-2.580046e+00	3.447801e+01
2.880000e-06	-4.047018e-07	4.707176e-10	-2.853896e+00	2.868282e+01
2.890000e-06	-4.433815e-07	3.807167e-10	-3.126660e+00	2.283228e+01
2.900000e-06	-4.818926e-07	2.909036e-10	-3.398234e+00	1.689405e+01
2.910000e-06	-5.202361e-07	2.001076e-10	-3.668627e+00	1.084540e+01
2.920000e-06	-5.583250e-07	1.061532e-10	-3.937224e+00	4.687407e+00
2.930000e-06	-5.960441e-07	1.172595e-11	-4.203214e+00	-1.550932e+00
2.940000e-06	-6.333704e-07	-8.418723e-11	-4.466433e+00	-7.822329e+00
2.950000e-06	-6.702800e-07	-1.809359e-10	-4.726714e+00	-1.408111e+01
