# Temperatura_=_20.0
# Concentracion g/m^3_=_10000.0
# C_Vs_to_Am_M_A/Vsm_=_65563218390.804596
# pendiente_HvsI_1/m_=_3716.3
# ordenada_HvsI_A/m_=_1297.0
# frecuencia_Hz_=_269816.32763583347

Tiempo_(s)	Campo_(V.s)	Magnetizacion_(V.s)	Campo_(kA/m)	Magnetizacion_(A/m)
0.000000e+00	-2.284880e-06	-9.382718e-11	-1.612663e+01	-6.120369e+00
1.000000e-08	-2.284770e-06	-9.905356e-11	-1.612585e+01	-6.194387e+00
2.000000e-08	-2.284284e-06	-1.017616e-10	-1.612241e+01	-6.231462e+00
3.000000e-08	-2.283184e-06	-1.002848e-10	-1.611466e+01	-6.204481e+00
4.000000e-08	-2.281224e-06	-9.517215e-11	-1.610082e+01	-6.119371e+00
5.000000e-08	-2.278335e-06	-8.518398e-11	-1.608043e+01	-6.008866e+00
6.000000e-08	-2.274657e-06	-8.253037e-11	-1.605447e+01	-5.912553e+00
7.000000e-08	-2.270424e-06	-1.157763e-10	-1.602459e+01	-5.855514e+00
8.000000e-08	-2.265528e-06	-1.215146e-10	-1.599004e+01	-5.837777e+00
9.000000e-08	-2.259919e-06	-3.656427e-11	-1.595045e+01	-5.839489e+00
1.000000e-07	-2.253792e-06	-2.315510e-11	-1.590720e+01	-5.836975e+00
1.100000e-07	-2.247130e-06	-1.552162e-10	-1.586019e+01	-5.818638e+00
1.200000e-07	-2.239838e-06	-1.530998e-10	-1.580872e+01	-5.790715e+00
1.300000e-07	-2.232030e-06	-3.226493e-11	-1.575361e+01	-5.770105e+00
1.400000e-07	-2.223834e-06	-2.699578e-11	-1.569576e+01	-5.770079e+00
1.500000e-07	-2.215040e-06	-1.706401e-10	-1.563369e+01	-5.789134e+00
1.600000e-07	-2.205288e-06	-1.407823e-10	-1.556486e+01	-5.810784e+00
1.700000e-07	-2.194567e-06	-1.445816e-11	-1.548920e+01	-5.814487e+00
1.800000e-07	-2.183151e-06	-8.671184e-11	-1.540862e+01	-5.790259e+00
1.900000e-07	-2.171077e-06	-1.434728e-10	-1.532340e+01	-5.746838e+00
2.000000e-07	-2.158272e-06	-7.013237e-11	-1.523303e+01	-5.707382e+00
2.100000e-07	-2.144864e-06	-6.327655e-11	-1.513839e+01	-5.694846e+00
2.200000e-07	-2.130901e-06	-1.633439e-10	-1.503985e+01	-5.716229e+00
2.300000e-07	-2.116234e-06	-9.685071e-11	-1.493633e+01	-5.756028e+00
2.400000e-07	-2.100663e-06	-3.124302e-11	-1.482642e+01	-5.783697e+00
2.500000e-07	-2.084347e-06	-1.349146e-10	-1.471126e+01	-5.771146e+00
2.600000e-07	-2.067423e-06	-1.558411e-10	-1.459182e+01	-5.709779e+00
2.700000e-07	-2.049901e-06	-3.326098e-11	-1.446815e+01	-5.616580e+00
2.800000e-07	-2.031896e-06	-5.881313e-11	-1.434107e+01	-5.525289e+00
2.900000e-07	-2.013295e-06	-1.545112e-10	-1.420979e+01	-5.467754e+00
3.000000e-07	-1.994033e-06	-1.012527e-10	-1.407383e+01	-5.456493e+00
3.100000e-07	-1.974280e-06	-5.503149e-11	-1.393442e+01	-5.478605e+00
3.200000e-07	-1.954185e-06	-1.063323e-10	-1.379258e+01	-5.504194e+00
3.300000e-07	-1.933654e-06	-1.145331e-10	-1.364768e+01	-5.503702e+00
3.400000e-07	-1.912565e-06	-7.832609e-11	-1.349883e+01	-5.463580e+00
3.500000e-07	-1.890953e-06	-1.106206e-10	-1.334630e+01	-5.391376e+00
3.600000e-07	-1.868813e-06	-9.419875e-11	-1.319003e+01	-5.308365e+00
3.700000e-07	-1.846122e-06	-6.171908e-11	-1.302988e+01	-5.235564e+00
3.800000e-07	-1.822928e-06	-9.407300e-11	-1.286618e+01	-5.182458e+00
3.900000e-07	-1.799288e-06	-1.177645e-10	-1.269933e+01	-5.145028e+00
4.000000e-07	-1.775281e-06	-8.523724e-11	-1.252989e+01	-5.112810e+00
4.100000e-07	-1.750922e-06	-7.089470e-11	-1.235796e+01	-5.078588e+00
4.200000e-07	-1.726159e-06	-9.958411e-11	-1.218319e+01	-5.043014e+00
4.300000e-07	-1.700695e-06	-1.040149e-10	-1.200346e+01	-5.010812e+00
4.400000e-07	-1.674327e-06	-9.463253e-11	-1.181735e+01	-4.982030e+00
4.500000e-07	-1.647210e-06	-7.300597e-11	-1.162597e+01	-4.946132e+00
4.600000e-07	-1.619568e-06	-8.007430e-11	-1.143087e+01	-4.885252e+00
4.700000e-07	-1.591598e-06	-9.842933e-11	-1.123346e+01	-4.786294e+00
4.800000e-07	-1.563398e-06	-9.317682e-11	-1.103443e+01	-4.654283e+00
4.900000e-07	-1.534863e-06	-7.497666e-11	-1.083303e+01	-4.516635e+00
5.000000e-07	-1.505818e-06	-7.860632e-11	-1.062802e+01	-4.412509e+00
5.100000e-07	-1.476325e-06	-9.083599e-11	-1.041986e+01	-4.370852e+00
5.200000e-07	-1.446496e-06	-8.829681e-11	-1.020933e+01	-4.389321e+00
5.300000e-07	-1.416319e-06	-8.385677e-11	-9.996342e+00	-4.428042e+00
5.400000e-07	-1.385769e-06	-6.913516e-11	-9.780719e+00	-4.425056e+00
5.500000e-07	-1.354829e-06	-6.874557e-11	-9.562350e+00	-4.327749e+00
5.600000e-07	-1.323501e-06	-7.685441e-11	-9.341235e+00	-4.123997e+00
5.700000e-07	-1.291873e-06	-7.345267e-11	-9.118007e+00	-3.854831e+00
5.800000e-07	-1.260023e-06	-5.735447e-11	-8.893212e+00	-3.599247e+00
5.900000e-07	-1.227965e-06	-6.003668e-11	-8.666948e+00	-3.436950e+00
6.000000e-07	-1.195650e-06	-7.456633e-11	-8.438866e+00	-3.407753e+00
6.100000e-07	-1.162936e-06	-7.244075e-11	-8.207974e+00	-3.489502e+00
6.200000e-07	-1.129827e-06	-6.237664e-11	-7.974292e+00	-3.607276e+00
6.300000e-07	-1.096302e-06	-5.690130e-11	-7.737668e+00	-3.669997e+00
6.400000e-07	-1.062288e-06	-6.317552e-11	-7.497600e+00	-3.615637e+00
6.500000e-07	-1.027691e-06	-6.425123e-11	-7.253414e+00	-3.441341e+00
6.600000e-07	-9.924816e-07	-5.797287e-11	-7.004909e+00	-3.202784e+00
6.700000e-07	-9.569244e-07	-5.051887e-11	-6.753947e+00	-2.983678e+00
6.800000e-07	-9.211919e-07	-5.244176e-11	-6.501749e+00	-2.852140e+00
6.900000e-07	-8.852814e-07	-5.851298e-11	-6.248293e+00	-2.827184e+00
7.000000e-07	-8.492094e-07	-5.785768e-11	-5.993698e+00	-2.872336e+00
7.100000e-07	-8.130091e-07	-5.094077e-11	-5.738197e+00	-2.918301e+00
7.200000e-07	-7.766988e-07	-4.569124e-11	-5.481920e+00	-2.901109e+00
7.300000e-07	-7.402642e-07	-4.991214e-11	-5.224765e+00	-2.794836e+00
7.400000e-07	-7.035571e-07	-4.919927e-11	-4.965688e+00	-2.622168e+00
7.500000e-07	-6.665198e-07	-4.215366e-11	-4.704279e+00	-2.439010e+00
7.600000e-07	-6.293099e-07	-3.652902e-11	-4.441653e+00	-2.303248e+00
7.700000e-07	-5.920113e-07	-4.097852e-11	-4.178401e+00	-2.245255e+00
7.800000e-07	-5.545714e-07	-4.783516e-11	-3.914151e+00	-2.255208e+00
7.900000e-07	-5.169070e-07	-4.550837e-11	-3.648316e+00	-2.292033e+00
8.000000e-07	-4.790242e-07	-3.969371e-11	-3.380940e+00	-2.307074e+00
8.100000e-07	-4.410593e-07	-3.755533e-11	-3.112985e+00	-2.268750e+00
8.200000e-07	-4.030818e-07	-4.004306e-11	-2.844941e+00	-2.175664e+00
8.300000e-07	-3.649661e-07	-3.708733e-11	-2.575921e+00	-2.053152e+00
8.400000e-07	-3.267215e-07	-3.083339e-11	-2.305992e+00	-1.937351e+00
8.500000e-07	-2.884383e-07	-2.785007e-11	-2.035790e+00	-1.856481e+00
8.600000e-07	-2.500801e-07	-3.157433e-11	-1.765059e+00	-1.818810e+00
8.700000e-07	-2.116243e-07	-3.274002e-11	-1.493639e+00	-1.811787e+00
8.800000e-07	-1.731645e-07	-2.625281e-11	-1.222191e+00	-1.810623e+00
8.900000e-07	-1.347352e-07	-2.072603e-11	-9.509576e-01	-1.790525e+00
9.000000e-07	-9.628058e-08	-2.097535e-11	-6.795458e-01	-1.736496e+00
9.100000e-07	-5.779222e-08	-2.343077e-11	-4.078960e-01	-1.647274e+00
9.200000e-07	-1.921698e-08	-1.997611e-11	-1.356330e-01	-1.533368e+00
9.300000e-07	1.938069e-08	-1.420467e-11	1.367884e-01	-1.411453e+00
9.400000e-07	5.790118e-08	-1.201539e-11	4.086650e-01	-1.297827e+00
9.500000e-07	9.634985e-08	-1.439865e-11	6.800348e-01	-1.202967e+00
9.600000e-07	1.347979e-07	-1.390849e-11	9.513999e-01	-1.128358e+00
9.700000e-07	1.732914e-07	-9.651016e-12	1.223086e+00	-1.066288e+00
9.800000e-07	2.117536e-07	-7.547052e-12	1.494552e+00	-1.002921e+00
9.900000e-07	2.501173e-07	-1.073740e-11	1.765321e+00	-9.240893e-01
1.000000e-06	2.883928e-07	-1.365749e-11	2.035469e+00	-8.218990e-01
1.010000e-06	3.265845e-07	-8.465664e-12	2.305025e+00	-6.991202e-01
1.020000e-06	3.647367e-07	-2.719653e-12	2.574302e+00	-5.685960e-01
1.030000e-06	4.028565e-07	-2.342443e-12	2.843351e+00	-4.469917e-01
1.040000e-06	4.408836e-07	-4.175048e-12	3.111745e+00	-3.454051e-01
1.050000e-06	4.788316e-07	-7.243558e-13	3.379581e+00	-2.617978e-01
1.060000e-06	5.166617e-07	5.666955e-12	3.646585e+00	-1.800804e-01
1.070000e-06	5.543326e-07	6.741491e-12	3.912465e+00	-7.750852e-02
1.080000e-06	5.918355e-07	3.740672e-12	4.177159e+00	6.272861e-02
1.090000e-06	6.291790e-07	3.918372e-12	4.440729e+00	2.404656e-01
1.100000e-06	6.663345e-07	9.790583e-12	4.702972e+00	4.358353e-01
1.110000e-06	7.032217e-07	1.429755e-11	4.963321e+00	6.175732e-01
1.120000e-06	7.398651e-07	1.482298e-11	5.221949e+00	7.589018e-01
1.130000e-06	7.762996e-07	1.562957e-11	5.479102e+00	8.527563e-01
1.140000e-06	8.125389e-07	2.095871e-11	5.734879e+00	9.176859e-01
1.150000e-06	8.486610e-07	2.530474e-11	5.989827e+00	9.903046e-01
1.160000e-06	8.847224e-07	2.584126e-11	6.244347e+00	1.107398e+00
1.170000e-06	9.207185e-07	2.564595e-11	6.498407e+00	1.286711e+00
1.180000e-06	9.565854e-07	2.946810e-11	6.751555e+00	1.516652e+00
1.190000e-06	9.922031e-07	3.612735e-11	7.002944e+00	1.760725e+00
1.200000e-06	1.027421e-06	3.914719e-11	7.251508e+00	1.974861e+00
1.210000e-06	1.062116e-06	3.902109e-11	7.496388e+00	2.128918e+00
1.220000e-06	1.096269e-06	4.003123e-11	7.737435e+00	2.221438e+00
1.230000e-06	1.129849e-06	4.403993e-11	7.974442e+00	2.280201e+00
1.240000e-06	1.162866e-06	4.775727e-11	8.207478e+00	2.348444e+00
1.250000e-06	1.195457e-06	4.830566e-11	8.437505e+00	2.463822e+00
1.260000e-06	1.227767e-06	4.789771e-11	8.665545e+00	2.640516e+00
1.270000e-06	1.259907e-06	5.053099e-11	8.892392e+00	2.862944e+00
1.280000e-06	1.291902e-06	5.539770e-11	9.118210e+00	3.093490e+00
1.290000e-06	1.323656e-06	5.904481e-11	9.342328e+00	3.289943e+00
1.300000e-06	1.355078e-06	6.133205e-11	9.564103e+00	3.424179e+00
1.310000e-06	1.386057e-06	6.330573e-11	9.782756e+00	3.493738e+00
1.320000e-06	1.416583e-06	6.564899e-11	9.998209e+00	3.521833e+00
1.330000e-06	1.446736e-06	6.786853e-11	1.021102e+01	3.546690e+00
1.340000e-06	1.476504e-06	6.771257e-11	1.042112e+01	3.605448e+00
1.350000e-06	1.505880e-06	6.734873e-11	1.062846e+01	3.719493e+00
1.360000e-06	1.534838e-06	6.913615e-11	1.083285e+01	3.886813e+00
1.370000e-06	1.563440e-06	7.269293e-11	1.103472e+01	4.083822e+00
1.380000e-06	1.591780e-06	7.547256e-11	1.123474e+01	4.275430e+00
1.390000e-06	1.619852e-06	7.660231e-11	1.143287e+01	4.429254e+00
1.400000e-06	1.647574e-06	7.772919e-11	1.162854e+01	4.528534e+00
1.410000e-06	1.674760e-06	8.008204e-11	1.182041e+01	4.578838e+00
1.420000e-06	1.701179e-06	8.201816e-11	1.200688e+01	4.605824e+00
1.430000e-06	1.726807e-06	8.244594e-11	1.218776e+01	4.644708e+00
1.440000e-06	1.751724e-06	8.400741e-11	1.236362e+01	4.725437e+00
1.450000e-06	1.776092e-06	8.740293e-11	1.253561e+01	4.859686e+00
1.460000e-06	1.800069e-06	9.013297e-11	1.270484e+01	5.035417e+00
1.470000e-06	1.823604e-06	9.172160e-11	1.287095e+01	5.221725e+00
1.480000e-06	1.846651e-06	9.312637e-11	1.303361e+01	5.382137e+00
1.490000e-06	1.869193e-06	9.425888e-11	1.319272e+01	5.490448e+00
1.500000e-06	1.891270e-06	9.637799e-11	1.334854e+01	5.541760e+00
1.510000e-06	1.912825e-06	9.923375e-11	1.350067e+01	5.553598e+00
1.520000e-06	1.933821e-06	1.002800e-10	1.364886e+01	5.556809e+00
1.530000e-06	1.954363e-06	9.905776e-11	1.379385e+01	5.580977e+00
1.540000e-06	1.974540e-06	9.799120e-11	1.393625e+01	5.641678e+00
1.550000e-06	1.994375e-06	9.832757e-11	1.407625e+01	5.735526e+00
1.560000e-06	2.013643e-06	9.859594e-11	1.421224e+01	5.844542e+00
1.570000e-06	2.032148e-06	9.845366e-11	1.434285e+01	5.946439e+00
1.580000e-06	2.049967e-06	9.940331e-11	1.446861e+01	6.024756e+00
1.590000e-06	2.067245e-06	1.022830e-10	1.459056e+01	6.073765e+00
1.600000e-06	2.084026e-06	1.040684e-10	1.470900e+01	6.096922e+00
1.610000e-06	2.100179e-06	1.035617e-10	1.482301e+01	6.101633e+00
1.620000e-06	2.115596e-06	1.027507e-10	1.493182e+01	6.094795e+00
1.630000e-06	2.130328e-06	1.018815e-10	1.503580e+01	6.082005e+00
1.640000e-06	2.144456e-06	1.007317e-10	1.513551e+01	6.069778e+00
1.650000e-06	2.157967e-06	1.002049e-10	1.523088e+01	6.067360e+00
1.660000e-06	2.170854e-06	1.000995e-10	1.532183e+01	6.084790e+00
1.670000e-06	2.183159e-06	1.006600e-10	1.540868e+01	6.126931e+00
1.680000e-06	2.194882e-06	1.018846e-10	1.549142e+01	6.187133e+00
1.690000e-06	2.205874e-06	1.016722e-10	1.556900e+01	6.245892e+00
1.700000e-06	2.215902e-06	1.007402e-10	1.563978e+01	6.277758e+00
1.710000e-06	2.225020e-06	1.000560e-10	1.570414e+01	6.264522e+00
1.720000e-06	2.233530e-06	9.961085e-11	1.576420e+01	6.207747e+00
1.730000e-06	2.241556e-06	9.857309e-11	1.582084e+01	6.132421e+00
1.740000e-06	2.249046e-06	9.608534e-11	1.587371e+01	6.077547e+00
1.750000e-06	2.255944e-06	9.434992e-11	1.592239e+01	6.076920e+00
1.760000e-06	2.262205e-06	9.470540e-11	1.596659e+01	6.139892e+00
1.770000e-06	2.267769e-06	9.552322e-11	1.600585e+01	6.243328e+00
1.780000e-06	2.272727e-06	9.528789e-11	1.604085e+01	6.340657e+00
1.790000e-06	2.277203e-06	9.551478e-11	1.607244e+01	6.384561e+00
1.800000e-06	2.281213e-06	9.715787e-11	1.610074e+01	6.351651e+00
1.810000e-06	2.284601e-06	9.893863e-11	1.612465e+01	6.255572e+00
1.820000e-06	2.287119e-06	9.790030e-11	1.614242e+01	6.140725e+00
1.830000e-06	2.288751e-06	9.465542e-11	1.615394e+01	6.059442e+00
1.840000e-06	2.289627e-06	9.196196e-11	1.616013e+01	6.044783e+00
1.850000e-06	2.289921e-06	9.048992e-11	1.616220e+01	6.093744e+00
1.860000e-06	2.289675e-06	9.064557e-11	1.616046e+01	6.169945e+00
1.870000e-06	2.288834e-06	9.120073e-11	1.615453e+01	6.223930e+00
1.880000e-06	2.287461e-06	9.185632e-11	1.614484e+01	6.219464e+00
1.890000e-06	2.285537e-06	9.426599e-11	1.613126e+01	6.151232e+00
1.900000e-06	2.282966e-06	1.001960e-10	1.611311e+01	6.044784e+00
1.910000e-06	2.279806e-06	9.200196e-11	1.609081e+01	5.940014e+00
1.920000e-06	2.276149e-06	5.025911e-11	1.606500e+01	5.868739e+00
1.930000e-06	2.271796e-06	7.632323e-11	1.603428e+01	5.839529e+00
1.940000e-06	2.266362e-06	1.586097e-10	1.599592e+01	5.837719e+00
1.950000e-06	2.260035e-06	1.162368e-10	1.595127e+01	5.838884e+00
1.960000e-06	2.253312e-06	2.117258e-11	1.590382e+01	5.826114e+00
1.970000e-06	2.246143e-06	5.911896e-11	1.585322e+01	5.799906e+00
1.980000e-06	2.238257e-06	1.651368e-10	1.579756e+01	5.775039e+00
1.990000e-06	2.229811e-06	1.017075e-10	1.573795e+01	5.767600e+00
2.000000e-06	2.221037e-06	-8.490471e-12	1.567602e+01	5.781661e+00
2.010000e-06	2.211663e-06	7.648895e-11	1.560986e+01	5.804976e+00
2.020000e-06	2.201429e-06	1.666545e-10	1.553763e+01	5.816700e+00
2.030000e-06	2.190548e-06	6.816195e-11	1.546083e+01	5.801914e+00
2.040000e-06	2.179259e-06	3.461089e-11	1.538115e+01	5.762937e+00
2.050000e-06	2.167266e-06	1.267202e-10	1.529651e+01	5.719376e+00
2.060000e-06	2.154318e-06	9.062628e-11	1.520512e+01	5.696179e+00
2.070000e-06	2.140553e-06	9.290644e-12	1.510797e+01	5.707023e+00
2.080000e-06	2.126000e-06	9.989738e-11	1.500525e+01	5.743772e+00
2.090000e-06	2.110717e-06	1.423339e-10	1.489738e+01	5.779272e+00
2.100000e-06	2.094873e-06	1.999290e-11	1.478556e+01	5.782449e+00
2.110000e-06	2.078546e-06	3.539141e-11	1.467033e+01	5.736826e+00
2.120000e-06	2.061645e-06	1.532829e-10	1.455104e+01	5.651125e+00
2.130000e-06	2.044166e-06	8.651494e-11	1.442767e+01	5.555281e+00
2.140000e-06	2.026187e-06	5.043701e-12	1.430078e+01	5.484021e+00
2.150000e-06	2.007585e-06	9.168433e-11	1.416948e+01	5.457693e+00
2.160000e-06	1.988401e-06	1.118127e-10	1.403408e+01	5.471613e+00
2.170000e-06	1.968853e-06	4.831045e-11	1.389611e+01	5.499869e+00
2.180000e-06	1.948956e-06	6.164958e-11	1.375568e+01	5.510736e+00
2.190000e-06	1.928508e-06	8.995956e-11	1.361136e+01	5.484122e+00
2.200000e-06	1.907320e-06	5.027092e-11	1.346182e+01	5.420801e+00
2.210000e-06	1.885290e-06	7.110270e-11	1.330633e+01	5.338886e+00
2.220000e-06	1.862456e-06	9.669854e-11	1.314517e+01	5.261052e+00
2.230000e-06	1.839064e-06	5.592351e-11	1.298007e+01	5.201376e+00
2.240000e-06	1.815319e-06	5.349970e-11	1.281247e+01	5.159913e+00
2.250000e-06	1.791181e-06	8.021304e-11	1.264211e+01	5.127229e+00
2.260000e-06	1.766571e-06	7.012942e-11	1.246842e+01	5.094131e+00
2.270000e-06	1.741481e-06	5.186392e-11	1.229133e+01	5.058660e+00
2.280000e-06	1.715888e-06	5.412221e-11	1.211069e+01	5.025052e+00
2.290000e-06	1.689833e-06	6.382934e-11	1.192680e+01	4.995880e+00
2.300000e-06	1.663266e-06	7.934678e-11	1.173929e+01	4.964299e+00
2.310000e-06	1.636194e-06	6.258514e-11	1.154821e+01	4.913882e+00
2.320000e-06	1.608794e-06	4.399338e-11	1.135483e+01	4.828308e+00
2.330000e-06	1.581131e-06	6.422249e-11	1.115958e+01	4.705443e+00
2.340000e-06	1.553166e-06	6.433674e-11	1.096220e+01	4.565659e+00
2.350000e-06	1.524846e-06	4.435267e-11	1.076232e+01	4.446269e+00
2.360000e-06	1.495988e-06	4.673298e-11	1.055865e+01	4.382321e+00
2.370000e-06	1.466418e-06	5.114838e-11	1.034994e+01	4.383569e+00
2.380000e-06	1.436131e-06	5.174668e-11	1.013618e+01	4.422018e+00
2.390000e-06	1.405281e-06	6.541567e-11	9.918437e+00	4.440108e+00
2.400000e-06	1.374043e-06	5.975256e-11	9.697958e+00	4.378231e+00
2.410000e-06	1.342531e-06	4.622141e-11	9.475551e+00	4.208129e+00
2.420000e-06	1.310804e-06	5.465410e-11	9.251619e+00	3.953388e+00
2.430000e-06	1.278837e-06	5.530675e-11	9.025999e+00	3.683692e+00
2.440000e-06	1.246521e-06	4.173553e-11	8.797914e+00	3.483328e+00
2.450000e-06	1.213748e-06	3.231082e-11	8.566601e+00	3.409172e+00
2.460000e-06	1.180590e-06	3.700366e-11	8.332576e+00	3.460343e+00
2.470000e-06	1.147175e-06	4.725907e-11	8.096731e+00	3.576520e+00
2.480000e-06	1.113489e-06	5.071928e-11	7.858980e+00	3.666916e+00
2.490000e-06	1.079531e-06	4.447618e-11	7.619305e+00	3.655276e+00
2.500000e-06	1.045257e-06	4.396057e-11	7.377398e+00	3.517416e+00
2.510000e-06	1.010593e-06	4.545064e-11	7.132740e+00	3.291631e+00
2.520000e-06	9.756030e-07	4.112457e-11	6.885781e+00	3.056957e+00
2.530000e-06	9.403702e-07	3.577803e-11	6.637108e+00	2.891396e+00
2.540000e-06	9.049247e-07	2.883590e-11	6.386935e+00	2.832581e+00
2.550000e-06	8.693134e-07	3.070618e-11	6.135592e+00	2.861302e+00
2.560000e-06	8.336173e-07	3.829748e-11	5.883649e+00	2.915321e+00
2.570000e-06	7.978590e-07	4.019969e-11	5.631268e+00	2.924556e+00
2.580000e-06	7.619473e-07	3.486013e-11	5.377805e+00	2.847909e+00
2.590000e-06	7.257814e-07	3.413590e-11	5.122546e+00	2.692380e+00
2.600000e-06	6.894060e-07	3.775375e-11	4.865810e+00	2.505821e+00
2.610000e-06	6.528206e-07	3.503019e-11	4.607591e+00	2.349197e+00
2.620000e-06	6.159402e-07	2.478369e-11	4.347290e+00	2.264510e+00
2.630000e-06	5.787384e-07	2.074619e-11	4.084721e+00	2.255370e+00
2.640000e-06	5.411928e-07	2.802614e-11	3.819725e+00	2.288969e+00
2.650000e-06	5.033400e-07	3.197286e-11	3.552561e+00	2.316183e+00
2.660000e-06	4.652173e-07	2.971299e-11	3.283492e+00	2.297519e+00
2.670000e-06	4.268827e-07	2.706127e-11	3.012927e+00	2.221087e+00
2.680000e-06	3.883448e-07	2.867260e-11	2.740927e+00	2.104636e+00
2.690000e-06	3.495349e-07	3.004443e-11	2.467009e+00	1.982865e+00
2.700000e-06	3.106168e-07	2.677124e-11	2.192325e+00	1.888456e+00
2.710000e-06	2.716552e-07	2.377089e-11	1.917335e+00	1.836995e+00
2.720000e-06	2.326293e-07	2.608001e-11	1.641892e+00	1.822290e+00
2.730000e-06	1.935302e-07	3.064392e-11	1.365931e+00	1.822313e+00
2.740000e-06	1.543395e-07	3.178680e-11	1.089324e+00	1.810958e+00
2.750000e-06	1.151204e-07	3.056484e-11	8.125170e-01	1.769206e+00
2.760000e-06	7.586893e-08	2.881728e-11	5.354809e-01	1.691174e+00
2.770000e-06	3.659550e-08	2.948085e-11	2.582901e-01	1.583950e+00
2.780000e-06	-2.639406e-09	2.935701e-11	-1.862886e-02	1.462884e+00
2.790000e-06	-4.184823e-08	2.668774e-11	-2.953637e-01	1.345091e+00
2.800000e-06	-8.111644e-08	2.440796e-11	-5.725177e-01	1.243470e+00
2.810000e-06	-1.203609e-07	2.323786e-11	-8.495038e-01	1.162683e+00
2.820000e-06	-1.595470e-07	2.393829e-11	-1.126078e+00	1.097905e+00
2.830000e-06	-1.987550e-07	2.246210e-11	-1.402808e+00	1.036805e+00
2.840000e-06	-2.379383e-07	1.857592e-11	-1.679362e+00	9.645796e-01
2.850000e-06	-2.770345e-07	1.548083e-11	-1.955302e+00	8.705771e-01
2.860000e-06	-3.160854e-07	1.455963e-11	-2.230923e+00	7.537914e-01
2.870000e-06	-3.550854e-07	1.254722e-11	-2.506183e+00	6.241433e-01
2.880000e-06	-3.938253e-07	9.815632e-12	-2.779609e+00	4.979987e-01
2.890000e-06	-4.323366e-07	9.640760e-12	-3.051420e+00	3.893567e-01
2.900000e-06	-4.706961e-07	1.136366e-11	-3.322161e+00	3.010641e-01
2.910000e-06	-5.088446e-07	1.178132e-11	-3.591412e+00	2.212865e-01
2.920000e-06	-5.467310e-07	7.861076e-12	-3.858813e+00	1.282402e-01
2.930000e-06	-5.842558e-07	3.345829e-12	-4.123662e+00	1.675383e-03
2.940000e-06	-6.213731e-07	6.806150e-13	-4.385635e+00	-1.647248e-01
2.950000e-06	-6.581487e-07	-1.748658e-12	-4.645196e+00	-3.572723e-01
