# Temperatura_=_20.0
# Concentracion g/m^3_=_10000.0
# C_Vs_to_Am_M_A/Vsm_=_65563218390.804596
# pendiente_HvsI_1/m_=_3716.3
# ordenada_HvsI_A/m_=_1297.0
# frecuencia_Hz_=_269811.80201348924

Tiempo_(s)	Campo_(V.s)	Magnetizacion_(V.s)	Campo_(kA/m)	Magnetizacion_(A/m)
0.000000e+00	-2.287920e-06	-5.012118e-09	-1.612321e+01	-3.257337e+02
1.000000e-08	-2.287603e-06	-5.018944e-09	-1.612098e+01	-3.260871e+02
2.000000e-08	-2.286823e-06	-5.022896e-09	-1.611548e+01	-3.263569e+02
3.000000e-08	-2.285436e-06	-5.023235e-09	-1.610570e+01	-3.265347e+02
4.000000e-08	-2.283211e-06	-5.020141e-09	-1.609003e+01	-3.266174e+02
5.000000e-08	-2.280111e-06	-5.017639e-09	-1.606818e+01	-3.266050e+02
6.000000e-08	-2.276274e-06	-5.028532e-09	-1.604114e+01	-3.264990e+02
7.000000e-08	-2.271746e-06	-5.040630e-09	-1.600923e+01	-3.263034e+02
8.000000e-08	-2.266497e-06	-4.992286e-09	-1.597224e+01	-3.260276e+02
9.000000e-08	-2.260592e-06	-4.969496e-09	-1.593063e+01	-3.256872e+02
1.000000e-07	-2.254193e-06	-5.027328e-09	-1.588553e+01	-3.253012e+02
1.100000e-07	-2.247321e-06	-5.028926e-09	-1.583710e+01	-3.248833e+02
1.200000e-07	-2.239801e-06	-4.956953e-09	-1.578411e+01	-3.244342e+02
1.300000e-07	-2.231717e-06	-4.937087e-09	-1.572714e+01	-3.239379e+02
1.400000e-07	-2.223199e-06	-5.004991e-09	-1.566711e+01	-3.233670e+02
1.500000e-07	-2.214099e-06	-4.985461e-09	-1.560299e+01	-3.226947e+02
1.600000e-07	-2.204109e-06	-4.896338e-09	-1.553258e+01	-3.219079e+02
1.700000e-07	-2.193182e-06	-4.927937e-09	-1.545558e+01	-3.210149e+02
1.800000e-07	-2.181519e-06	-4.956799e-09	-1.537339e+01	-3.200412e+02
1.900000e-07	-2.169207e-06	-4.878275e-09	-1.528662e+01	-3.190165e+02
2.000000e-07	-2.156211e-06	-4.851348e-09	-1.519504e+01	-3.179594e+02
2.100000e-07	-2.142527e-06	-4.910429e-09	-1.509861e+01	-3.168677e+02
2.200000e-07	-2.128228e-06	-4.864533e-09	-1.499784e+01	-3.157199e+02
2.300000e-07	-2.113256e-06	-4.771108e-09	-1.489233e+01	-3.144880e+02
2.400000e-07	-2.097484e-06	-4.816911e-09	-1.478118e+01	-3.131534e+02
2.500000e-07	-2.080904e-06	-4.836355e-09	-1.466435e+01	-3.117172e+02
2.600000e-07	-2.063615e-06	-4.732634e-09	-1.454251e+01	-3.101995e+02
2.700000e-07	-2.045756e-06	-4.699940e-09	-1.441666e+01	-3.086287e+02
2.800000e-07	-2.027431e-06	-4.751573e-09	-1.428751e+01	-3.070257e+02
2.900000e-07	-2.008519e-06	-4.702903e-09	-1.415424e+01	-3.053939e+02
3.000000e-07	-1.988946e-06	-4.628203e-09	-1.401631e+01	-3.037187e+02
3.100000e-07	-1.968892e-06	-4.631632e-09	-1.387498e+01	-3.019773e+02
3.200000e-07	-1.948489e-06	-4.623386e-09	-1.373120e+01	-3.001518e+02
3.300000e-07	-1.927674e-06	-4.560995e-09	-1.358452e+01	-2.982392e+02
3.400000e-07	-1.906386e-06	-4.545022e-09	-1.343450e+01	-2.962518e+02
3.500000e-07	-1.884590e-06	-4.525575e-09	-1.328090e+01	-2.942096e+02
3.600000e-07	-1.862278e-06	-4.463124e-09	-1.312367e+01	-2.921301e+02
3.700000e-07	-1.839389e-06	-4.438328e-09	-1.296237e+01	-2.900201e+02
3.800000e-07	-1.815922e-06	-4.425731e-09	-1.279699e+01	-2.878758e+02
3.900000e-07	-1.792009e-06	-4.385153e-09	-1.262847e+01	-2.856878e+02
4.000000e-07	-1.767729e-06	-4.326848e-09	-1.245737e+01	-2.834477e+02
4.100000e-07	-1.743104e-06	-4.309579e-09	-1.228383e+01	-2.811510e+02
4.200000e-07	-1.718035e-06	-4.283023e-09	-1.210717e+01	-2.787960e+02
4.300000e-07	-1.692332e-06	-4.236758e-09	-1.192604e+01	-2.763790e+02
4.400000e-07	-1.665810e-06	-4.185926e-09	-1.173914e+01	-2.738922e+02
4.500000e-07	-1.638500e-06	-4.152274e-09	-1.154668e+01	-2.713261e+02
4.600000e-07	-1.610623e-06	-4.120862e-09	-1.135023e+01	-2.686769e+02
4.700000e-07	-1.582386e-06	-4.072632e-09	-1.115124e+01	-2.659527e+02
4.800000e-07	-1.553901e-06	-4.028989e-09	-1.095050e+01	-2.631750e+02
4.900000e-07	-1.525162e-06	-3.981216e-09	-1.074797e+01	-2.603706e+02
5.000000e-07	-1.496033e-06	-3.941871e-09	-1.054270e+01	-2.575583e+02
5.100000e-07	-1.466384e-06	-3.902085e-09	-1.033376e+01	-2.547361e+02
5.200000e-07	-1.436299e-06	-3.858949e-09	-1.012175e+01	-2.518780e+02
5.300000e-07	-1.405906e-06	-3.798917e-09	-9.907567e+00	-2.489422e+02
5.400000e-07	-1.375202e-06	-3.752110e-09	-9.691188e+00	-2.458900e+02
5.500000e-07	-1.344098e-06	-3.714108e-09	-9.471998e+00	-2.427052e+02
5.600000e-07	-1.312582e-06	-3.660759e-09	-9.249904e+00	-2.394046e+02
5.700000e-07	-1.280683e-06	-3.601672e-09	-9.025104e+00	-2.360327e+02
5.800000e-07	-1.248496e-06	-3.548585e-09	-8.798283e+00	-2.326426e+02
5.900000e-07	-1.216135e-06	-3.505890e-09	-8.570232e+00	-2.292722e+02
6.000000e-07	-1.183623e-06	-3.451382e-09	-8.341110e+00	-2.259260e+02
6.100000e-07	-1.150857e-06	-3.390965e-09	-8.110210e+00	-2.225729e+02
6.200000e-07	-1.117655e-06	-3.333097e-09	-7.876233e+00	-2.191597e+02
6.300000e-07	-1.084020e-06	-3.286460e-09	-7.639198e+00	-2.156363e+02
6.400000e-07	-1.050005e-06	-3.233796e-09	-7.399495e+00	-2.119775e+02
6.500000e-07	-1.015407e-06	-3.171946e-09	-7.155677e+00	-2.081948e+02
6.600000e-07	-9.801569e-07	-3.109207e-09	-6.907267e+00	-2.043298e+02
6.700000e-07	-9.444918e-07	-3.048416e-09	-6.655931e+00	-2.004351e+02
6.800000e-07	-9.085623e-07	-2.992173e-09	-6.402732e+00	-1.965507e+02
6.900000e-07	-8.724108e-07	-2.931118e-09	-6.147969e+00	-1.926865e+02
7.000000e-07	-8.360766e-07	-2.867596e-09	-5.891918e+00	-1.888196e+02
7.100000e-07	-7.996372e-07	-2.803308e-09	-5.635126e+00	-1.849053e+02
7.200000e-07	-7.630881e-07	-2.744460e-09	-5.377561e+00	-1.808976e+02
7.300000e-07	-7.263918e-07	-2.683048e-09	-5.118958e+00	-1.767695e+02
7.400000e-07	-6.895390e-07	-2.615701e-09	-4.859253e+00	-1.725231e+02
7.500000e-07	-6.525344e-07	-2.547064e-09	-4.598478e+00	-1.681875e+02
7.600000e-07	-6.153294e-07	-2.481060e-09	-4.336290e+00	-1.638046e+02
7.700000e-07	-5.779418e-07	-2.416371e-09	-4.072815e+00	-1.594103e+02
7.800000e-07	-5.403675e-07	-2.346472e-09	-3.808025e+00	-1.550192e+02
7.900000e-07	-5.025412e-07	-2.274709e-09	-3.541459e+00	-1.506190e+02
8.000000e-07	-4.645541e-07	-2.203291e-09	-3.273760e+00	-1.461774e+02
8.100000e-07	-4.264529e-07	-2.135860e-09	-3.005257e+00	-1.416564e+02
8.200000e-07	-3.882473e-07	-2.066153e-09	-2.736018e+00	-1.370292e+02
8.300000e-07	-3.499671e-07	-1.993338e-09	-2.466254e+00	-1.322912e+02
8.400000e-07	-3.116130e-07	-1.919711e-09	-2.195969e+00	-1.274597e+02
8.500000e-07	-2.732163e-07	-1.844591e-09	-1.925384e+00	-1.225656e+02
8.600000e-07	-2.347949e-07	-1.769609e-09	-1.654624e+00	-1.176378e+02
8.700000e-07	-1.963022e-07	-1.690975e-09	-1.383362e+00	-1.126908e+02
8.800000e-07	-1.577421e-07	-1.609200e-09	-1.111625e+00	-1.077194e+02
8.900000e-07	-1.191451e-07	-1.528180e-09	-8.396281e-01	-1.027025e+02
9.000000e-07	-8.051870e-08	-1.452415e-09	-5.674236e-01	-9.761438e+01
9.100000e-07	-4.190806e-08	-1.376377e-09	-2.953304e-01	-9.243712e+01
9.200000e-07	-3.318101e-09	-1.296245e-09	-2.338300e-02	-8.716820e+01
9.300000e-07	3.533022e-08	-1.213326e-09	2.489757e-01	-8.182005e+01
9.400000e-07	7.402030e-08	-1.130169e-09	5.216287e-01	-7.641264e+01
9.500000e-07	1.126892e-07	-1.048400e-09	7.941321e-01	-7.096336e+01
9.600000e-07	1.513300e-07	-9.630859e-10	1.066438e+00	-6.547937e+01
9.700000e-07	1.898770e-07	-8.748593e-10	1.338083e+00	-5.995606e+01
9.800000e-07	2.283906e-07	-7.891367e-10	1.609492e+00	-5.438128e+01
9.900000e-07	2.668923e-07	-7.080407e-10	1.880818e+00	-4.874242e+01
1.000000e-06	3.053247e-07	-6.220644e-10	2.151655e+00	-4.303210e+01
1.010000e-06	3.436928e-07	-5.310792e-10	2.422038e+00	-3.724976e+01
1.020000e-06	3.820051e-07	-4.418753e-10	2.692029e+00	-3.139912e+01
1.030000e-06	4.202457e-07	-3.545887e-10	2.961515e+00	-2.548403e+01
1.040000e-06	4.583396e-07	-2.646300e-10	3.229967e+00	-1.950577e+01
1.050000e-06	4.962965e-07	-1.686035e-10	3.497453e+00	-1.346346e+01
1.060000e-06	5.341306e-07	-7.125983e-11	3.764074e+00	-7.357018e+00
1.070000e-06	5.717886e-07	2.193896e-11	4.029454e+00	-1.190342e+00
1.080000e-06	6.092195e-07	1.114092e-10	4.293233e+00	5.027878e+00
1.090000e-06	6.464194e-07	2.043107e-10	4.555384e+00	1.128649e+01
1.100000e-06	6.834117e-07	3.015737e-10	4.816072e+00	1.757621e+01
1.110000e-06	7.202197e-07	3.978704e-10	5.075463e+00	2.389333e+01
1.120000e-06	7.568726e-07	4.917967e-10	5.333759e+00	3.024052e+01
1.130000e-06	7.933979e-07	5.891157e-10	5.591157e+00	3.662427e+01
1.140000e-06	8.297963e-07	6.913465e-10	5.847660e+00	4.305012e+01
1.150000e-06	8.660770e-07	7.923968e-10	6.103334e+00	4.951843e+01
1.160000e-06	9.022161e-07	8.893611e-10	6.358010e+00	5.602251e+01
1.170000e-06	9.381812e-07	9.856128e-10	6.611460e+00	6.254962e+01
1.180000e-06	9.739228e-07	1.085892e-09	6.863335e+00	6.908398e+01
1.190000e-06	1.009233e-06	1.186766e-09	7.112171e+00	7.561004e+01
1.200000e-06	1.043970e-06	1.284903e-09	7.356964e+00	8.211487e+01
1.210000e-06	1.078127e-06	1.381153e-09	7.597674e+00	8.858948e+01
1.220000e-06	1.111748e-06	1.479498e-09	7.834602e+00	9.502949e+01
1.230000e-06	1.144909e-06	1.579871e-09	8.068292e+00	1.014354e+02
1.240000e-06	1.177716e-06	1.678657e-09	8.299489e+00	1.078120e+02
1.250000e-06	1.210321e-06	1.774982e-09	8.529256e+00	1.141664e+02
1.260000e-06	1.242769e-06	1.870313e-09	8.757922e+00	1.205036e+02
1.270000e-06	1.275002e-06	1.966068e-09	8.985074e+00	1.268223e+02
1.280000e-06	1.306990e-06	2.060185e-09	9.210493e+00	1.331116e+02
1.290000e-06	1.338607e-06	2.151441e-09	9.433304e+00	1.393525e+02
1.300000e-06	1.369790e-06	2.242018e-09	9.653055e+00	1.455239e+02
1.310000e-06	1.400599e-06	2.336010e-09	9.870166e+00	1.516112e+02
1.320000e-06	1.431006e-06	2.430327e-09	1.008445e+01	1.576130e+02
1.330000e-06	1.461066e-06	2.521217e-09	1.029628e+01	1.635420e+02
1.340000e-06	1.490765e-06	2.609333e-09	1.050558e+01	1.694173e+02
1.350000e-06	1.520053e-06	2.697067e-09	1.071197e+01	1.752525e+02
1.360000e-06	1.548984e-06	2.785110e-09	1.091585e+01	1.810444e+02
1.370000e-06	1.577593e-06	2.870432e-09	1.111746e+01	1.867698e+02
1.380000e-06	1.605918e-06	2.953242e-09	1.131707e+01	1.923924e+02
1.390000e-06	1.633903e-06	3.036316e-09	1.151428e+01	1.978782e+02
1.400000e-06	1.661370e-06	3.119456e-09	1.170785e+01	2.032104e+02
1.410000e-06	1.688123e-06	3.200154e-09	1.189638e+01	2.083976e+02
1.420000e-06	1.714092e-06	3.277239e-09	1.207938e+01	2.134693e+02
1.430000e-06	1.739362e-06	3.352544e-09	1.225746e+01	2.184610e+02
1.440000e-06	1.764107e-06	3.427774e-09	1.243185e+01	2.233967e+02
1.450000e-06	1.788441e-06	3.502212e-09	1.260333e+01	2.282769e+02
1.460000e-06	1.812334e-06	3.572800e-09	1.277171e+01	2.330786e+02
1.470000e-06	1.835757e-06	3.641141e-09	1.293677e+01	2.377670e+02
1.480000e-06	1.858665e-06	3.709598e-09	1.309821e+01	2.423113e+02
1.490000e-06	1.881036e-06	3.776853e-09	1.325586e+01	2.466980e+02
1.500000e-06	1.902893e-06	3.842330e-09	1.340988e+01	2.509332e+02
1.510000e-06	1.924207e-06	3.905319e-09	1.356009e+01	2.550364e+02
1.520000e-06	1.945055e-06	3.967367e-09	1.370701e+01	2.590282e+02
1.530000e-06	1.965547e-06	4.027010e-09	1.385141e+01	2.629211e+02
1.540000e-06	1.985647e-06	4.081636e-09	1.399306e+01	2.667156e+02
1.550000e-06	2.005208e-06	4.134109e-09	1.413091e+01	2.704049e+02
1.560000e-06	2.024093e-06	4.185506e-09	1.426399e+01	2.739803e+02
1.570000e-06	2.042319e-06	4.235193e-09	1.439243e+01	2.774360e+02
1.580000e-06	2.059999e-06	4.284450e-09	1.451703e+01	2.807678e+02
1.590000e-06	2.077124e-06	4.332621e-09	1.463771e+01	2.839693e+02
1.600000e-06	2.093645e-06	4.376954e-09	1.475413e+01	2.870302e+02
1.610000e-06	2.109509e-06	4.418076e-09	1.486593e+01	2.899374e+02
1.620000e-06	2.124663e-06	4.456362e-09	1.497272e+01	2.926834e+02
1.630000e-06	2.139169e-06	4.492522e-09	1.507494e+01	2.952732e+02
1.640000e-06	2.153103e-06	4.527713e-09	1.517314e+01	2.977273e+02
1.650000e-06	2.166470e-06	4.561723e-09	1.526734e+01	3.000758e+02
1.660000e-06	2.179233e-06	4.594481e-09	1.535728e+01	3.023453e+02
1.670000e-06	2.191391e-06	4.626197e-09	1.544296e+01	3.045462e+02
1.680000e-06	2.202810e-06	4.655711e-09	1.552343e+01	3.066665e+02
1.690000e-06	2.213283e-06	4.681397e-09	1.559724e+01	3.086778e+02
1.700000e-06	2.222795e-06	4.705111e-09	1.566427e+01	3.105497e+02
1.710000e-06	2.231608e-06	4.728003e-09	1.572637e+01	3.122667e+02
1.720000e-06	2.239967e-06	4.749913e-09	1.578528e+01	3.138378e+02
1.730000e-06	2.247852e-06	4.770475e-09	1.584085e+01	3.152926e+02
1.740000e-06	2.255118e-06	4.790371e-09	1.589205e+01	3.166671e+02
1.750000e-06	2.261756e-06	4.809698e-09	1.593882e+01	3.179858e+02
1.760000e-06	2.267795e-06	4.827189e-09	1.598138e+01	3.192505e+02
1.770000e-06	2.273202e-06	4.843151e-09	1.601949e+01	3.204406e+02
1.780000e-06	2.278045e-06	4.858156e-09	1.605362e+01	3.215259e+02
1.790000e-06	2.282409e-06	4.872828e-09	1.608437e+01	3.224825e+02
1.800000e-06	2.286195e-06	4.886933e-09	1.611106e+01	3.233056e+02
1.810000e-06	2.289230e-06	4.899045e-09	1.613244e+01	3.240107e+02
1.820000e-06	2.291381e-06	4.908016e-09	1.614760e+01	3.246249e+02
1.830000e-06	2.292681e-06	4.914725e-09	1.615676e+01	3.251740e+02
1.840000e-06	2.293335e-06	4.921052e-09	1.616137e+01	3.256715e+02
1.850000e-06	2.293453e-06	4.928221e-09	1.616220e+01	3.261158e+02
1.860000e-06	2.293016e-06	4.935805e-09	1.615912e+01	3.264950e+02
1.870000e-06	2.291993e-06	4.941958e-09	1.615191e+01	3.267946e+02
1.880000e-06	2.290380e-06	4.946875e-09	1.614054e+01	3.270044e+02
1.890000e-06	2.288173e-06	4.950765e-09	1.612499e+01	3.271197e+02
1.900000e-06	2.285377e-06	4.950631e-09	1.610529e+01	3.271397e+02
1.910000e-06	2.282062e-06	4.930975e-09	1.608193e+01	3.270653e+02
1.920000e-06	2.278259e-06	4.925529e-09	1.605513e+01	3.268996e+02
1.930000e-06	2.273603e-06	4.983204e-09	1.602232e+01	3.266498e+02
1.940000e-06	2.267821e-06	4.947823e-09	1.598157e+01	3.263297e+02
1.950000e-06	2.261202e-06	4.908122e-09	1.593493e+01	3.259576e+02
1.960000e-06	2.254114e-06	4.905394e-09	1.588498e+01	3.255503e+02
1.970000e-06	2.246604e-06	4.965275e-09	1.583205e+01	3.251133e+02
1.980000e-06	2.238503e-06	4.927575e-09	1.577496e+01	3.246361e+02
1.990000e-06	2.229811e-06	4.859119e-09	1.571371e+01	3.240942e+02
2.000000e-06	2.220628e-06	4.899841e-09	1.564899e+01	3.234587e+02
2.010000e-06	2.210869e-06	4.930951e-09	1.558022e+01	3.227110e+02
2.020000e-06	2.200380e-06	4.861584e-09	1.550630e+01	3.218520e+02
2.030000e-06	2.189280e-06	4.823854e-09	1.542808e+01	3.209025e+02
2.040000e-06	2.177587e-06	4.890092e-09	1.534568e+01	3.198926e+02
2.050000e-06	2.165091e-06	4.834299e-09	1.525762e+01	3.188463e+02
2.060000e-06	2.151624e-06	4.761455e-09	1.516272e+01	3.177684e+02
2.070000e-06	2.137222e-06	4.805881e-09	1.506122e+01	3.166432e+02
2.080000e-06	2.122182e-06	4.843054e-09	1.495523e+01	3.154429e+02
2.090000e-06	2.106692e-06	4.721807e-09	1.484608e+01	3.141443e+02
2.100000e-06	2.090767e-06	4.694696e-09	1.473385e+01	3.127412e+02
2.110000e-06	2.074310e-06	4.767029e-09	1.461788e+01	3.112484e+02
2.120000e-06	2.057241e-06	4.716323e-09	1.449759e+01	3.096931e+02
2.130000e-06	2.039635e-06	4.612959e-09	1.437352e+01	3.081002e+02
2.140000e-06	2.021494e-06	4.650463e-09	1.424568e+01	3.064796e+02
2.150000e-06	2.002771e-06	4.661706e-09	1.411374e+01	3.048220e+02
2.160000e-06	1.983556e-06	4.580421e-09	1.397833e+01	3.031059e+02
2.170000e-06	1.963927e-06	4.551103e-09	1.383999e+01	3.013103e+02
2.180000e-06	1.943760e-06	4.560828e-09	1.369788e+01	2.994268e+02
2.190000e-06	1.922874e-06	4.509382e-09	1.355069e+01	2.974630e+02
2.200000e-06	1.901140e-06	4.465652e-09	1.339753e+01	2.954376e+02
2.210000e-06	1.878598e-06	4.465829e-09	1.323867e+01	2.933699e+02
2.220000e-06	1.855537e-06	4.423157e-09	1.307616e+01	2.912707e+02
2.230000e-06	1.832074e-06	4.380641e-09	1.291082e+01	2.891396e+02
2.240000e-06	1.808225e-06	4.356579e-09	1.274275e+01	2.869680e+02
2.250000e-06	1.783941e-06	4.329393e-09	1.257162e+01	2.847467e+02
2.260000e-06	1.759118e-06	4.285940e-09	1.239669e+01	2.824698e+02
2.270000e-06	1.733801e-06	4.243510e-09	1.221827e+01	2.801353e+02
2.280000e-06	1.708024e-06	4.216039e-09	1.203662e+01	2.777403e+02
2.290000e-06	1.681794e-06	4.192233e-09	1.185177e+01	2.752786e+02
2.300000e-06	1.655104e-06	4.144068e-09	1.166369e+01	2.727406e+02
2.310000e-06	1.628007e-06	4.092588e-09	1.147273e+01	2.701196e+02
2.320000e-06	1.600586e-06	4.066744e-09	1.127949e+01	2.674194e+02
2.330000e-06	1.572875e-06	4.023791e-09	1.108421e+01	2.646573e+02
2.340000e-06	1.544805e-06	3.976084e-09	1.088640e+01	2.618597e+02
2.350000e-06	1.516133e-06	3.938955e-09	1.068435e+01	2.590498e+02
2.360000e-06	1.486712e-06	3.893003e-09	1.047701e+01	2.562334e+02
2.370000e-06	1.456614e-06	3.850812e-09	1.026491e+01	2.533923e+02
2.380000e-06	1.425936e-06	3.818542e-09	1.004872e+01	2.504880e+02
2.390000e-06	1.394859e-06	3.767110e-09	9.829714e+00	2.474785e+02
2.400000e-06	1.363533e-06	3.711559e-09	9.608958e+00	2.443385e+02
2.410000e-06	1.331962e-06	3.673424e-09	9.386473e+00	2.410734e+02
2.420000e-06	1.300144e-06	3.624471e-09	9.162246e+00	2.377200e+02
2.430000e-06	1.267967e-06	3.569294e-09	8.935496e+00	2.343313e+02
2.440000e-06	1.235358e-06	3.515893e-09	8.705698e+00	2.309528e+02
2.450000e-06	1.202366e-06	3.467750e-09	8.473198e+00	2.276011e+02
2.460000e-06	1.169094e-06	3.423861e-09	8.238724e+00	2.242563e+02
2.470000e-06	1.135589e-06	3.372542e-09	8.002610e+00	2.208701e+02
2.480000e-06	1.101801e-06	3.315555e-09	7.764508e+00	2.173886e+02
2.490000e-06	1.067651e-06	3.264065e-09	7.523846e+00	2.137763e+02
2.500000e-06	1.033116e-06	3.209848e-09	7.280472e+00	2.100322e+02
2.510000e-06	9.982714e-07	3.149381e-09	7.034921e+00	2.061896e+02
2.520000e-06	9.631732e-07	3.093331e-09	6.787581e+00	2.023000e+02
2.530000e-06	9.279326e-07	3.032411e-09	6.539236e+00	1.984101e+02
2.540000e-06	8.926062e-07	2.973264e-09	6.290288e+00	1.945410e+02
2.550000e-06	8.571576e-07	2.920944e-09	6.040478e+00	1.906800e+02
2.560000e-06	8.215669e-07	2.864570e-09	5.789667e+00	1.867877e+02
2.570000e-06	7.857736e-07	2.802278e-09	5.537427e+00	1.828162e+02
2.580000e-06	7.497182e-07	2.739939e-09	5.283342e+00	1.787303e+02
2.590000e-06	7.134314e-07	2.679593e-09	5.027624e+00	1.745219e+02
2.600000e-06	6.768739e-07	2.615233e-09	4.770000e+00	1.702124e+02
2.610000e-06	6.399035e-07	2.544649e-09	4.509466e+00	1.658413e+02
2.620000e-06	6.025434e-07	2.474161e-09	4.246185e+00	1.614487e+02
2.630000e-06	5.648689e-07	2.413104e-09	3.980689e+00	1.570573e+02
2.640000e-06	5.268581e-07	2.353388e-09	3.712823e+00	1.526638e+02
2.650000e-06	4.885630e-07	2.286917e-09	3.442954e+00	1.482410e+02
2.660000e-06	4.500623e-07	2.216907e-09	3.171635e+00	1.437510e+02
2.670000e-06	4.113610e-07	2.146697e-09	2.898904e+00	1.391617e+02
2.680000e-06	3.725391e-07	2.076228e-09	2.625321e+00	1.344604e+02
2.690000e-06	3.336632e-07	2.001669e-09	2.351359e+00	1.296578e+02
2.700000e-06	2.947075e-07	1.925875e-09	2.076834e+00	1.247817e+02
2.710000e-06	2.556484e-07	1.852181e-09	1.801581e+00	1.198633e+02
2.720000e-06	2.165257e-07	1.782278e-09	1.525879e+00	1.149231e+02
2.730000e-06	1.773759e-07	1.711019e-09	1.249986e+00	1.099624e+02
2.740000e-06	1.381891e-07	1.636262e-09	9.738326e-01	1.049643e+02
2.750000e-06	9.897028e-08	1.558886e-09	6.974538e-01	9.990322e+01
2.760000e-06	5.973333e-08	1.480348e-09	4.209470e-01	9.475753e+01
2.770000e-06	2.049962e-08	1.401060e-09	1.444629e-01	8.951917e+01
2.780000e-06	-1.873375e-08	1.318198e-09	-1.320187e-01	8.419612e+01
2.790000e-06	-5.796492e-08	1.234955e-09	-4.084848e-01	7.880695e+01
2.800000e-06	-9.719899e-08	1.153234e-09	-6.849713e-01	7.337098e+01
2.810000e-06	-1.364555e-07	1.073037e-09	-9.616158e-01	6.789927e+01
2.820000e-06	-1.756934e-07	9.905993e-10	-1.238129e+00	6.239093e+01
2.830000e-06	-2.148895e-07	9.048777e-10	-1.514349e+00	5.683558e+01
2.840000e-06	-2.540519e-07	8.178910e-10	-1.790330e+00	5.121998e+01
2.850000e-06	-2.931891e-07	7.307277e-10	-2.066134e+00	4.553461e+01
2.860000e-06	-3.322348e-07	6.428119e-10	-2.341293e+00	3.977674e+01
2.870000e-06	-3.711023e-07	5.526882e-10	-2.615196e+00	3.394911e+01
2.880000e-06	-4.098960e-07	4.619973e-10	-2.888579e+00	2.805595e+01
2.890000e-06	-4.485490e-07	3.723980e-10	-3.160971e+00	2.209953e+01
2.900000e-06	-4.869815e-07	2.832024e-10	-3.431809e+00	1.607944e+01
2.910000e-06	-5.252624e-07	1.907476e-10	-3.701578e+00	9.994939e+00
2.920000e-06	-5.632613e-07	9.548417e-11	-3.969361e+00	3.848342e+00
2.930000e-06	-6.009798e-07	4.404110e-13	-4.235166e+00	-2.353146e+00
2.940000e-06	-6.384095e-07	-9.543395e-11	-4.498938e+00	-8.598766e+00
2.950000e-06	-6.754415e-07	-1.928009e-10	-4.759906e+00	-1.487811e+01
