# Temperatura_=_20.0
# Concentracion g/m^3_=_10000.0
# C_Vs_to_Am_M_A/Vsm_=_65563218390.804596
# pendiente_HvsI_1/m_=_3716.3
# ordenada_HvsI_A/m_=_1297.0
# frecuencia_Hz_=_269803.98790274904

Tiempo_(s)	Campo_(V.s)	Magnetizacion_(V.s)	Campo_(kA/m)	Magnetizacion_(A/m)
0.000000e+00	-2.289349e-06	-5.020000e-09	-1.612818e+01	-3.266508e+02
1.000000e-08	-2.289164e-06	-5.025282e-09	-1.612687e+01	-3.269724e+02
2.000000e-08	-2.288533e-06	-5.029245e-09	-1.612243e+01	-3.271706e+02
3.000000e-08	-2.287233e-06	-5.029202e-09	-1.611327e+01	-3.272835e+02
4.000000e-08	-2.285025e-06	-5.028165e-09	-1.609772e+01	-3.273583e+02
5.000000e-08	-2.281908e-06	-5.024750e-09	-1.607576e+01	-3.274221e+02
6.000000e-08	-2.278074e-06	-5.030584e-09	-1.604874e+01	-3.274631e+02
7.000000e-08	-2.273708e-06	-5.061607e-09	-1.601799e+01	-3.274329e+02
8.000000e-08	-2.268694e-06	-5.043906e-09	-1.598267e+01	-3.272715e+02
9.000000e-08	-2.262974e-06	-4.965803e-09	-1.594237e+01	-3.269405e+02
1.000000e-07	-2.256731e-06	-4.981640e-09	-1.589839e+01	-3.264474e+02
1.100000e-07	-2.250021e-06	-5.072868e-09	-1.585112e+01	-3.258453e+02
1.200000e-07	-2.242688e-06	-5.031178e-09	-1.579946e+01	-3.252093e+02
1.300000e-07	-2.234753e-06	-4.923266e-09	-1.574355e+01	-3.245995e+02
1.400000e-07	-2.226417e-06	-4.960748e-09	-1.568483e+01	-3.240322e+02
1.500000e-07	-2.217455e-06	-5.051419e-09	-1.562169e+01	-3.234731e+02
1.600000e-07	-2.207481e-06	-4.972156e-09	-1.555143e+01	-3.228557e+02
1.700000e-07	-2.196575e-06	-4.886988e-09	-1.547459e+01	-3.221148e+02
1.800000e-07	-2.185001e-06	-4.965203e-09	-1.539306e+01	-3.212172e+02
1.900000e-07	-2.172793e-06	-4.959091e-09	-1.530706e+01	-3.201734e+02
2.000000e-07	-2.159884e-06	-4.855145e-09	-1.521612e+01	-3.190280e+02
2.100000e-07	-2.146363e-06	-4.880152e-09	-1.512086e+01	-3.178340e+02
2.200000e-07	-2.132250e-06	-4.935284e-09	-1.502144e+01	-3.166266e+02
2.300000e-07	-2.117416e-06	-4.819497e-09	-1.491693e+01	-3.154096e+02
2.400000e-07	-2.101744e-06	-4.763643e-09	-1.480652e+01	-3.141581e+02
2.500000e-07	-2.085244e-06	-4.866833e-09	-1.469028e+01	-3.128349e+02
2.600000e-07	-2.068131e-06	-4.832606e-09	-1.456972e+01	-3.114089e+02
2.700000e-07	-2.050488e-06	-4.695326e-09	-1.444543e+01	-3.098673e+02
2.800000e-07	-2.032299e-06	-4.722899e-09	-1.431730e+01	-3.082183e+02
2.900000e-07	-2.013494e-06	-4.776461e-09	-1.418482e+01	-3.064846e+02
3.000000e-07	-1.994019e-06	-4.675692e-09	-1.404761e+01	-3.046943e+02
3.100000e-07	-1.974060e-06	-4.614114e-09	-1.390700e+01	-3.028735e+02
3.200000e-07	-1.953751e-06	-4.638659e-09	-1.376394e+01	-3.010400e+02
3.300000e-07	-1.933030e-06	-4.608635e-09	-1.361796e+01	-2.992000e+02
3.400000e-07	-1.911813e-06	-4.550796e-09	-1.346848e+01	-2.973451e+02
3.500000e-07	-1.890089e-06	-4.552479e-09	-1.331544e+01	-2.954521e+02
3.600000e-07	-1.867808e-06	-4.512344e-09	-1.315847e+01	-2.934882e+02
3.700000e-07	-1.844992e-06	-4.452384e-09	-1.299774e+01	-2.914226e+02
3.800000e-07	-1.821683e-06	-4.449629e-09	-1.283353e+01	-2.892405e+02
3.900000e-07	-1.797929e-06	-4.429688e-09	-1.266619e+01	-2.869533e+02
4.000000e-07	-1.773820e-06	-4.361987e-09	-1.249634e+01	-2.845977e+02
4.100000e-07	-1.749375e-06	-4.307751e-09	-1.232413e+01	-2.822208e+02
4.200000e-07	-1.724444e-06	-4.300675e-09	-1.214849e+01	-2.798571e+02
4.300000e-07	-1.698761e-06	-4.272782e-09	-1.196756e+01	-2.775084e+02
4.400000e-07	-1.672224e-06	-4.221017e-09	-1.178061e+01	-2.751393e+02
4.500000e-07	-1.645001e-06	-4.169499e-09	-1.158883e+01	-2.726923e+02
4.600000e-07	-1.617270e-06	-4.144640e-09	-1.139347e+01	-2.701166e+02
4.700000e-07	-1.589156e-06	-4.114270e-09	-1.119541e+01	-2.673963e+02
4.800000e-07	-1.560788e-06	-4.056183e-09	-1.099556e+01	-2.645616e+02
4.900000e-07	-1.532137e-06	-3.999782e-09	-1.079371e+01	-2.616752e+02
5.000000e-07	-1.503064e-06	-3.954671e-09	-1.058890e+01	-2.588003e+02
5.100000e-07	-1.473514e-06	-3.920027e-09	-1.038072e+01	-2.559661e+02
5.200000e-07	-1.443590e-06	-3.880576e-09	-1.016991e+01	-2.531499e+02
5.300000e-07	-1.413373e-06	-3.830740e-09	-9.957033e+00	-2.502865e+02
5.400000e-07	-1.382785e-06	-3.769292e-09	-9.741550e+00	-2.473009e+02
5.500000e-07	-1.351770e-06	-3.726140e-09	-9.523048e+00	-2.441471e+02
5.600000e-07	-1.320340e-06	-3.685948e-09	-9.301631e+00	-2.408318e+02
5.700000e-07	-1.288581e-06	-3.625381e-09	-9.077894e+00	-2.374122e+02
5.800000e-07	-1.256573e-06	-3.560542e-09	-8.852403e+00	-2.339659e+02
5.900000e-07	-1.224348e-06	-3.512584e-09	-8.625379e+00	-2.305526e+02
6.000000e-07	-1.191896e-06	-3.472781e-09	-8.396756e+00	-2.271846e+02
6.100000e-07	-1.159115e-06	-3.417598e-09	-8.165824e+00	-2.238237e+02
6.200000e-07	-1.125874e-06	-3.355915e-09	-7.931641e+00	-2.204037e+02
6.300000e-07	-1.092108e-06	-3.298397e-09	-7.693764e+00	-2.168657e+02
6.400000e-07	-1.057915e-06	-3.249793e-09	-7.452880e+00	-2.131882e+02
6.500000e-07	-1.023250e-06	-3.196334e-09	-7.208668e+00	-2.093954e+02
6.600000e-07	-9.880338e-07	-3.132309e-09	-6.960575e+00	-2.055419e+02
6.700000e-07	-9.524061e-07	-3.065608e-09	-6.709582e+00	-2.016827e+02
6.800000e-07	-9.164941e-07	-3.007986e-09	-6.456587e+00	-1.978457e+02
6.900000e-07	-8.803856e-07	-2.957595e-09	-6.202207e+00	-1.940201e+02
7.000000e-07	-8.441510e-07	-2.897029e-09	-5.946938e+00	-1.901650e+02
7.100000e-07	-8.077954e-07	-2.827712e-09	-5.690817e+00	-1.862323e+02
7.200000e-07	-7.713010e-07	-2.762931e-09	-5.433719e+00	-1.821907e+02
7.300000e-07	-7.346705e-07	-2.707464e-09	-5.175662e+00	-1.780389e+02
7.400000e-07	-6.978281e-07	-2.644789e-09	-4.916112e+00	-1.738026e+02
7.500000e-07	-6.607111e-07	-2.572545e-09	-4.654627e+00	-1.695187e+02
7.600000e-07	-6.233821e-07	-2.502422e-09	-4.391649e+00	-1.652161e+02
7.700000e-07	-5.859053e-07	-2.439834e-09	-4.127630e+00	-1.609023e+02
7.800000e-07	-5.482773e-07	-2.377181e-09	-3.862545e+00	-1.565612e+02
7.900000e-07	-5.104763e-07	-2.304457e-09	-3.596242e+00	-1.521617e+02
8.000000e-07	-4.725605e-07	-2.228287e-09	-3.329130e+00	-1.476717e+02
8.100000e-07	-4.345253e-07	-2.157276e-09	-3.061177e+00	-1.430721e+02
8.200000e-07	-3.963669e-07	-2.092162e-09	-2.792356e+00	-1.383632e+02
8.300000e-07	-3.580921e-07	-2.022024e-09	-2.522714e+00	-1.335643e+02
8.400000e-07	-3.197394e-07	-1.944515e-09	-2.252524e+00	-1.287056e+02
8.500000e-07	-2.813639e-07	-1.866587e-09	-1.982174e+00	-1.238162e+02
8.600000e-07	-2.429740e-07	-1.793969e-09	-1.711721e+00	-1.189131e+02
8.700000e-07	-2.045418e-07	-1.720874e-09	-1.440971e+00	-1.139944e+02
8.800000e-07	-1.660131e-07	-1.638144e-09	-1.169542e+00	-1.090397e+02
8.900000e-07	-1.274504e-07	-1.554906e-09	-8.978722e-01	-1.040184e+02
9.000000e-07	-8.885775e-08	-1.479615e-09	-6.259918e-01	-9.890286e+01
9.100000e-07	-5.024495e-08	-1.406209e-09	-3.539694e-01	-9.368034e+01
9.200000e-07	-1.160537e-08	-1.324078e-09	-8.175838e-02	-8.835974e+01
9.300000e-07	2.706728e-08	-1.236248e-09	1.906856e-01	-8.296782e+01
9.400000e-07	6.570625e-08	-1.152082e-09	4.628923e-01	-7.753691e+01
9.500000e-07	1.042727e-07	-1.073024e-09	7.345880e-01	-7.208927e+01
9.600000e-07	1.428106e-07	-9.907299e-10	1.006083e+00	-6.662588e+01
9.700000e-07	1.813706e-07	-9.016889e-10	1.277733e+00	-6.112559e+01
9.800000e-07	2.198594e-07	-8.139040e-10	1.548882e+00	-5.555566e+01
9.900000e-07	2.582923e-07	-7.315856e-10	1.819637e+00	-4.988835e+01
1.000000e-06	2.966919e-07	-6.481805e-10	2.090157e+00	-4.411504e+01
1.010000e-06	3.350461e-07	-5.559789e-10	2.360358e+00	-3.825025e+01
1.020000e-06	3.733382e-07	-4.627542e-10	2.630121e+00	-3.232370e+01
1.030000e-06	4.115260e-07	-3.739389e-10	2.899149e+00	-2.636455e+01
1.040000e-06	4.496224e-07	-2.853570e-10	3.167534e+00	-2.038680e+01
1.050000e-06	4.876243e-07	-1.906793e-10	3.435252e+00	-1.438366e+01
1.060000e-06	5.255078e-07	-9.099090e-11	3.702137e+00	-8.333588e+00
1.070000e-06	5.632537e-07	3.734242e-12	3.968052e+00	-2.214104e+00
1.080000e-06	6.008260e-07	9.344123e-11	4.232744e+00	3.984658e+00
1.090000e-06	6.381725e-07	1.861686e-10	4.495845e+00	1.025432e+01
1.100000e-06	6.752466e-07	2.852536e-10	4.757028e+00	1.657308e+01
1.110000e-06	7.120953e-07	3.837456e-10	5.016623e+00	2.291761e+01
1.120000e-06	7.487404e-07	4.777435e-10	5.274783e+00	2.927456e+01
1.130000e-06	7.852017e-07	5.726978e-10	5.531648e+00	3.564538e+01
1.140000e-06	8.215322e-07	6.751774e-10	5.787592e+00	4.204216e+01
1.150000e-06	8.577454e-07	7.785699e-10	6.042709e+00	4.847793e+01
1.160000e-06	8.938890e-07	8.769561e-10	6.297337e+00	5.495736e+01
1.170000e-06	9.299265e-07	9.749557e-10	6.551216e+00	6.147312e+01
1.180000e-06	9.657484e-07	1.077281e-09	6.803577e+00	6.800904e+01
1.190000e-06	1.001185e-06	1.181728e-09	7.053220e+00	7.454714e+01
1.200000e-06	1.036151e-06	1.281109e-09	7.299556e+00	8.107373e+01
1.210000e-06	1.070623e-06	1.375323e-09	7.542408e+00	8.758158e+01
1.220000e-06	1.104566e-06	1.470852e-09	7.781529e+00	9.406785e+01
1.230000e-06	1.137975e-06	1.571850e-09	8.016893e+00	1.005308e+02
1.240000e-06	1.170940e-06	1.674210e-09	8.249125e+00	1.069680e+02
1.250000e-06	1.203599e-06	1.773226e-09	8.479206e+00	1.133770e+02
1.260000e-06	1.236008e-06	1.870004e-09	8.707525e+00	1.197569e+02
1.270000e-06	1.268223e-06	1.967108e-09	8.934476e+00	1.261076e+02
1.280000e-06	1.300242e-06	2.062968e-09	9.160045e+00	1.324271e+02
1.290000e-06	1.331963e-06	2.154331e-09	9.383514e+00	1.387067e+02
1.300000e-06	1.363293e-06	2.243112e-09	9.604228e+00	1.449299e+02
1.310000e-06	1.394167e-06	2.335939e-09	9.821734e+00	1.510764e+02
1.320000e-06	1.424643e-06	2.431579e-09	1.003643e+01	1.571301e+02
1.330000e-06	1.454798e-06	2.524447e-09	1.024887e+01	1.630881e+02
1.340000e-06	1.484602e-06	2.612528e-09	1.045884e+01	1.689627e+02
1.350000e-06	1.514024e-06	2.698887e-09	1.066611e+01	1.747747e+02
1.360000e-06	1.543053e-06	2.786735e-09	1.087061e+01	1.805392e+02
1.370000e-06	1.571691e-06	2.872909e-09	1.107237e+01	1.862530e+02
1.380000e-06	1.600019e-06	2.954972e-09	1.127193e+01	1.918901e+02
1.390000e-06	1.628074e-06	3.035446e-09	1.146958e+01	1.974114e+02
1.400000e-06	1.655736e-06	3.116434e-09	1.166445e+01	2.027842e+02
1.410000e-06	1.682848e-06	3.197360e-09	1.185546e+01	2.080005e+02
1.420000e-06	1.709217e-06	3.274949e-09	1.204122e+01	2.130840e+02
1.430000e-06	1.734750e-06	3.349070e-09	1.222109e+01	2.180802e+02
1.440000e-06	1.759593e-06	3.423228e-09	1.239611e+01	2.230329e+02
1.450000e-06	1.783937e-06	3.497795e-09	1.256761e+01	2.279596e+02
1.460000e-06	1.807907e-06	3.569883e-09	1.273648e+01	2.328394e+02
1.470000e-06	1.831465e-06	3.638009e-09	1.290244e+01	2.376206e+02
1.480000e-06	1.854456e-06	3.705163e-09	1.306441e+01	2.422454e+02
1.490000e-06	1.876907e-06	3.773239e-09	1.322257e+01	2.466772e+02
1.500000e-06	1.898854e-06	3.839634e-09	1.337719e+01	2.509184e+02
1.510000e-06	1.920278e-06	3.901772e-09	1.352812e+01	2.550079e+02
1.520000e-06	1.941190e-06	3.961345e-09	1.367544e+01	2.589998e+02
1.530000e-06	1.961682e-06	4.019337e-09	1.381981e+01	2.629364e+02
1.540000e-06	1.981820e-06	4.075744e-09	1.396168e+01	2.668276e+02
1.550000e-06	2.001508e-06	4.130538e-09	1.410038e+01	2.706485e+02
1.560000e-06	2.020644e-06	4.183464e-09	1.423519e+01	2.743531e+02
1.570000e-06	2.039059e-06	4.235176e-09	1.436491e+01	2.778970e+02
1.580000e-06	2.056819e-06	4.285313e-09	1.449004e+01	2.812560e+02
1.590000e-06	2.074033e-06	4.334121e-09	1.461130e+01	2.844316e+02
1.600000e-06	2.090710e-06	4.378096e-09	1.472879e+01	2.874450e+02
1.610000e-06	2.106814e-06	4.417310e-09	1.484224e+01	2.903231e+02
1.620000e-06	2.122175e-06	4.455478e-09	1.495045e+01	2.930864e+02
1.630000e-06	2.136857e-06	4.492120e-09	1.505389e+01	2.957448e+02
1.640000e-06	2.150930e-06	4.527498e-09	1.515303e+01	2.982991e+02
1.650000e-06	2.164369e-06	4.561689e-09	1.524771e+01	3.007461e+02
1.660000e-06	2.177242e-06	4.595448e-09	1.533840e+01	3.030820e+02
1.670000e-06	2.189572e-06	4.629122e-09	1.542526e+01	3.053023e+02
1.680000e-06	2.201246e-06	4.660635e-09	1.550750e+01	3.074006e+02
1.690000e-06	2.212008e-06	4.688480e-09	1.558332e+01	3.093699e+02
1.700000e-06	2.221786e-06	4.712044e-09	1.565221e+01	3.112070e+02
1.710000e-06	2.230792e-06	4.733293e-09	1.571565e+01	3.129177e+02
1.720000e-06	2.239230e-06	4.754514e-09	1.577510e+01	3.145182e+02
1.730000e-06	2.247172e-06	4.775644e-09	1.583105e+01	3.160300e+02
1.740000e-06	2.254567e-06	4.796526e-09	1.588314e+01	3.174685e+02
1.750000e-06	2.261367e-06	4.817446e-09	1.593105e+01	3.188337e+02
1.760000e-06	2.267535e-06	4.837931e-09	1.597450e+01	3.201074e+02
1.770000e-06	2.273045e-06	4.855938e-09	1.601332e+01	3.212626e+02
1.780000e-06	2.277941e-06	4.870325e-09	1.604781e+01	3.222798e+02
1.790000e-06	2.282348e-06	4.882777e-09	1.607886e+01	3.231612e+02
1.800000e-06	2.286286e-06	4.895296e-09	1.610660e+01	3.239340e+02
1.810000e-06	2.289530e-06	4.907251e-09	1.612945e+01	3.246387e+02
1.820000e-06	2.291868e-06	4.916209e-09	1.614593e+01	3.253077e+02
1.830000e-06	2.293309e-06	4.923727e-09	1.615608e+01	3.259477e+02
1.840000e-06	2.294017e-06	4.932067e-09	1.616107e+01	3.265348e+02
1.850000e-06	2.294178e-06	4.942222e-09	1.616220e+01	3.270282e+02
1.860000e-06	2.293833e-06	4.950637e-09	1.615977e+01	3.273954e+02
1.870000e-06	2.292910e-06	4.955414e-09	1.615327e+01	3.276324e+02
1.880000e-06	2.291367e-06	4.959842e-09	1.614239e+01	3.277691e+02
1.890000e-06	2.289232e-06	4.965677e-09	1.612735e+01	3.278528e+02
1.900000e-06	2.286530e-06	4.973603e-09	1.610832e+01	3.279203e+02
1.910000e-06	2.283308e-06	4.961320e-09	1.608562e+01	3.279736e+02
1.920000e-06	2.279562e-06	4.926424e-09	1.605923e+01	3.279747e+02
1.930000e-06	2.275030e-06	4.964941e-09	1.602731e+01	3.278638e+02
1.940000e-06	2.269374e-06	5.024045e-09	1.598745e+01	3.275918e+02
1.950000e-06	2.262843e-06	4.957728e-09	1.594144e+01	3.271496e+02
1.960000e-06	2.255914e-06	4.897464e-09	1.589263e+01	3.265766e+02
1.970000e-06	2.248523e-06	4.942428e-09	1.584056e+01	3.259445e+02
1.980000e-06	2.240458e-06	5.005085e-09	1.578375e+01	3.253224e+02
1.990000e-06	2.231871e-06	4.909963e-09	1.572325e+01	3.247432e+02
2.000000e-06	2.222971e-06	4.844566e-09	1.566056e+01	3.241886e+02
2.010000e-06	2.213429e-06	4.928077e-09	1.559333e+01	3.235994e+02
2.020000e-06	2.202997e-06	4.941631e-09	1.551984e+01	3.229063e+02
2.030000e-06	2.191990e-06	4.838276e-09	1.544229e+01	3.220626e+02
2.040000e-06	2.180496e-06	4.845858e-09	1.536132e+01	3.210646e+02
2.050000e-06	2.168184e-06	4.903256e-09	1.527458e+01	3.199478e+02
2.060000e-06	2.154927e-06	4.800150e-09	1.518119e+01	3.187655e+02
2.070000e-06	2.140878e-06	4.750696e-09	1.508222e+01	3.175614e+02
2.080000e-06	2.126120e-06	4.848295e-09	1.497825e+01	3.163500e+02
2.090000e-06	2.110790e-06	4.817082e-09	1.487025e+01	3.151147e+02
2.100000e-06	2.094992e-06	4.668678e-09	1.475895e+01	3.138203e+02
2.110000e-06	2.078653e-06	4.713310e-09	1.464385e+01	3.124317e+02
2.120000e-06	2.061671e-06	4.789043e-09	1.452421e+01	3.109295e+02
2.130000e-06	2.044109e-06	4.665127e-09	1.440049e+01	3.093152e+02
2.140000e-06	2.026065e-06	4.587524e-09	1.427337e+01	3.076074e+02
2.150000e-06	2.007428e-06	4.668042e-09	1.414208e+01	3.058336e+02
2.160000e-06	1.988218e-06	4.637250e-09	1.400675e+01	3.040213e+02
2.170000e-06	1.968640e-06	4.544268e-09	1.386882e+01	3.021915e+02
2.180000e-06	1.948704e-06	4.546126e-09	1.372837e+01	3.003546e+02
2.190000e-06	1.928147e-06	4.541415e-09	1.358356e+01	2.985074e+02
2.200000e-06	1.906730e-06	4.471221e-09	1.343268e+01	2.966311e+02
2.210000e-06	1.884402e-06	4.459079e-09	1.327538e+01	2.946955e+02
2.220000e-06	1.861334e-06	4.452257e-09	1.311287e+01	2.926673e+02
2.230000e-06	1.837848e-06	4.387118e-09	1.294741e+01	2.905249e+02
2.240000e-06	1.814037e-06	4.353265e-09	1.277967e+01	2.882706e+02
2.250000e-06	1.789823e-06	4.342507e-09	1.260908e+01	2.859334e+02
2.260000e-06	1.765118e-06	4.305222e-09	1.243504e+01	2.835595e+02
2.270000e-06	1.739935e-06	4.253598e-09	1.225762e+01	2.811900e+02
2.280000e-06	1.714338e-06	4.214912e-09	1.207730e+01	2.788393e+02
2.290000e-06	1.688273e-06	4.194992e-09	1.189367e+01	2.764836e+02
2.300000e-06	1.661679e-06	4.168857e-09	1.170632e+01	2.740700e+02
2.310000e-06	1.634588e-06	4.108787e-09	1.151547e+01	2.715419e+02
2.320000e-06	1.607183e-06	4.061214e-09	1.132240e+01	2.688695e+02
2.330000e-06	1.579541e-06	4.043401e-09	1.112767e+01	2.660678e+02
2.340000e-06	1.551555e-06	4.001991e-09	1.093051e+01	2.631917e+02
2.350000e-06	1.523118e-06	3.950432e-09	1.073018e+01	2.603082e+02
2.360000e-06	1.494070e-06	3.910131e-09	1.052554e+01	2.574611e+02
2.370000e-06	1.464285e-06	3.865135e-09	1.031571e+01	2.546453e+02
2.380000e-06	1.433812e-06	3.828453e-09	1.010103e+01	2.518071e+02
2.390000e-06	1.402769e-06	3.794366e-09	9.882331e+00	2.488703e+02
2.400000e-06	1.371384e-06	3.738689e-09	9.661228e+00	2.457754e+02
2.410000e-06	1.339794e-06	3.685714e-09	9.438678e+00	2.425105e+02
2.420000e-06	1.307978e-06	3.649442e-09	9.214544e+00	2.391180e+02
2.430000e-06	1.275878e-06	3.600007e-09	8.988403e+00	2.356731e+02
2.440000e-06	1.243367e-06	3.540693e-09	8.759367e+00	2.322455e+02
2.450000e-06	1.210448e-06	3.485527e-09	8.527453e+00	2.288652e+02
2.460000e-06	1.177215e-06	3.439969e-09	8.293332e+00	2.255094e+02
2.470000e-06	1.143706e-06	3.396131e-09	8.057264e+00	2.221175e+02
2.480000e-06	1.109928e-06	3.341326e-09	7.819308e+00	2.186243e+02
2.490000e-06	1.075846e-06	3.281191e-09	7.579197e+00	2.149936e+02
2.500000e-06	1.041406e-06	3.226345e-09	7.336572e+00	2.112349e+02
2.510000e-06	1.006628e-06	3.173290e-09	7.091566e+00	2.073956e+02
2.520000e-06	9.715591e-07	3.116140e-09	6.844513e+00	2.035342e+02
2.530000e-06	9.362293e-07	3.054805e-09	6.595619e+00	1.996899e+02
2.540000e-06	9.007188e-07	2.991587e-09	6.345452e+00	1.958647e+02
2.550000e-06	8.651516e-07	2.938745e-09	6.094885e+00	1.920258e+02
2.560000e-06	8.294857e-07	2.886901e-09	5.843623e+00	1.881244e+02
2.570000e-06	7.936214e-07	2.824853e-09	5.590963e+00	1.841216e+02
2.580000e-06	7.575795e-07	2.759231e-09	5.337053e+00	1.800056e+02
2.590000e-06	7.213236e-07	2.698950e-09	5.081634e+00	1.757943e+02
2.600000e-06	6.847704e-07	2.639916e-09	4.824122e+00	1.715231e+02
2.610000e-06	6.479674e-07	2.572681e-09	4.564850e+00	1.672254e+02
2.620000e-06	6.108693e-07	2.501293e-09	4.303498e+00	1.629169e+02
2.630000e-06	5.734088e-07	2.435800e-09	4.039593e+00	1.585887e+02
2.640000e-06	5.356969e-07	2.376385e-09	3.773918e+00	1.542132e+02
2.650000e-06	4.977313e-07	2.313054e-09	3.506455e+00	1.497572e+02
2.660000e-06	4.594024e-07	2.244751e-09	3.236432e+00	1.451959e+02
2.670000e-06	4.207689e-07	2.173580e-09	2.964264e+00	1.405229e+02
2.680000e-06	3.820066e-07	2.101506e-09	2.691189e+00	1.357517e+02
2.690000e-06	3.431841e-07	2.028348e-09	2.417689e+00	1.309102e+02
2.700000e-06	3.042380e-07	1.950265e-09	2.143319e+00	1.260291e+02
2.710000e-06	2.651574e-07	1.871692e-09	1.868001e+00	1.211306e+02
2.720000e-06	2.259738e-07	1.799234e-09	1.591957e+00	1.162194e+02
2.730000e-06	1.867293e-07	1.730984e-09	1.315485e+00	1.112806e+02
2.740000e-06	1.474429e-07	1.658914e-09	1.038717e+00	1.062858e+02
2.750000e-06	1.081295e-07	1.580653e-09	7.617589e-01	1.012048e+02
2.760000e-06	6.883731e-08	1.499979e-09	4.849502e-01	9.601879e+01
2.770000e-06	2.949134e-08	1.420225e-09	2.077628e-01	9.072939e+01
2.780000e-06	-9.896623e-09	1.336994e-09	-6.972048e-02	8.535839e+01
2.790000e-06	-4.924174e-08	1.251049e-09	-3.469019e-01	7.993798e+01
2.800000e-06	-8.854434e-08	1.169324e-09	-6.237838e-01	7.449541e+01
2.810000e-06	-1.278478e-07	1.090085e-09	-9.006720e-01	6.903943e+01
2.820000e-06	-1.671530e-07	1.009007e-09	-1.177572e+00	6.355560e+01
2.830000e-06	-2.064454e-07	9.237868e-10	-1.454382e+00	5.801335e+01
2.840000e-06	-2.457130e-07	8.365934e-10	-1.731018e+00	5.238140e+01
2.850000e-06	-2.849022e-07	7.485368e-10	-2.007100e+00	4.664368e+01
2.860000e-06	-3.239788e-07	6.594022e-10	-2.282390e+00	4.080733e+01
2.870000e-06	-3.629188e-07	5.690897e-10	-2.556717e+00	3.489854e+01
2.880000e-06	-4.017245e-07	4.787058e-10	-2.830099e+00	2.894850e+01
2.890000e-06	-4.403940e-07	3.887885e-10	-3.102521e+00	2.297748e+01
2.900000e-06	-4.789261e-07	2.988107e-10	-3.373975e+00	1.698549e+01
2.910000e-06	-5.172093e-07	2.076277e-10	-3.643675e+00	1.095462e+01
2.920000e-06	-5.551716e-07	1.136268e-10	-3.911115e+00	4.860991e+00
2.930000e-06	-5.928549e-07	1.979077e-11	-4.176589e+00	-1.310594e+00
2.940000e-06	-6.301538e-07	-7.433053e-11	-4.439355e+00	-7.557798e+00
2.950000e-06	-6.670517e-07	-1.696174e-10	-4.699296e+00	-1.386220e+01
