# Temperatura_=_20.0
# Concentracion g/m^3_=_10000.0
# C_Vs_to_Am_M_A/Vsm_=_65563218390.804596
# pendiente_HvsI_1/m_=_3716.3
# ordenada_HvsI_A/m_=_1297.0
# frecuencia_Hz_=_269806.9871328281

Tiempo_(s)	Campo_(V.s)	Magnetizacion_(V.s)	Campo_(kA/m)	Magnetizacion_(A/m)
0.000000e+00	-2.291443e-06	-4.996368e-09	-1.612748e+01	-3.250520e+02
1.000000e-08	-2.291143e-06	-5.003195e-09	-1.612538e+01	-3.254164e+02
2.000000e-08	-2.290379e-06	-5.009195e-09	-1.612000e+01	-3.256546e+02
3.000000e-08	-2.289000e-06	-5.011031e-09	-1.611029e+01	-3.257866e+02
4.000000e-08	-2.286771e-06	-5.007526e-09	-1.609460e+01	-3.258499e+02
5.000000e-08	-2.283585e-06	-5.001289e-09	-1.607218e+01	-3.258717e+02
6.000000e-08	-2.279654e-06	-5.007995e-09	-1.604451e+01	-3.258494e+02
7.000000e-08	-2.275183e-06	-5.016206e-09	-1.601305e+01	-3.257502e+02
8.000000e-08	-2.270076e-06	-5.010243e-09	-1.597710e+01	-3.255324e+02
9.000000e-08	-2.264262e-06	-5.009165e-09	-1.593618e+01	-3.251736e+02
1.000000e-07	-2.257920e-06	-4.949431e-09	-1.589154e+01	-3.246888e+02
1.100000e-07	-2.251118e-06	-4.982066e-09	-1.584367e+01	-3.241259e+02
1.200000e-07	-2.243660e-06	-4.986884e-09	-1.579118e+01	-3.235409e+02
1.300000e-07	-2.235597e-06	-4.979850e-09	-1.573443e+01	-3.229672e+02
1.400000e-07	-2.227116e-06	-4.926051e-09	-1.567474e+01	-3.223962e+02
1.500000e-07	-2.218083e-06	-4.928836e-09	-1.561116e+01	-3.217828e+02
1.600000e-07	-2.208051e-06	-4.970934e-09	-1.554056e+01	-3.210698e+02
1.700000e-07	-2.197016e-06	-4.914408e-09	-1.546290e+01	-3.202198e+02
1.800000e-07	-2.185309e-06	-4.882562e-09	-1.538050e+01	-3.192340e+02
1.900000e-07	-2.172992e-06	-4.868354e-09	-1.529381e+01	-3.181499e+02
2.000000e-07	-2.159944e-06	-4.888456e-09	-1.520198e+01	-3.170185e+02
2.100000e-07	-2.146246e-06	-4.834880e-09	-1.510557e+01	-3.158765e+02
2.200000e-07	-2.132012e-06	-4.836778e-09	-1.500539e+01	-3.147280e+02
2.300000e-07	-2.117008e-06	-4.822280e-09	-1.489979e+01	-3.135455e+02
2.400000e-07	-2.101143e-06	-4.782976e-09	-1.478812e+01	-3.122882e+02
2.500000e-07	-2.084506e-06	-4.757285e-09	-1.467103e+01	-3.109252e+02
2.600000e-07	-2.067172e-06	-4.770564e-09	-1.454904e+01	-3.094504e+02
2.700000e-07	-2.049330e-06	-4.724054e-09	-1.442346e+01	-3.078821e+02
2.800000e-07	-2.030972e-06	-4.670849e-09	-1.429425e+01	-3.062499e+02
2.900000e-07	-2.012002e-06	-4.676342e-09	-1.416074e+01	-3.045784e+02
3.000000e-07	-1.992437e-06	-4.663390e-09	-1.402304e+01	-3.028766e+02
3.100000e-07	-1.972374e-06	-4.608378e-09	-1.388183e+01	-3.011392e+02
3.200000e-07	-1.951967e-06	-4.573119e-09	-1.373820e+01	-2.993543e+02
3.300000e-07	-1.931169e-06	-4.574047e-09	-1.359183e+01	-2.975130e+02
3.400000e-07	-1.909871e-06	-4.522604e-09	-1.344193e+01	-2.956121e+02
3.500000e-07	-1.888063e-06	-4.501127e-09	-1.328844e+01	-2.936524e+02
3.600000e-07	-1.865708e-06	-4.471515e-09	-1.313111e+01	-2.916332e+02
3.700000e-07	-1.842753e-06	-4.425277e-09	-1.296955e+01	-2.895510e+02
3.800000e-07	-1.819292e-06	-4.390388e-09	-1.280442e+01	-2.874029e+02
3.900000e-07	-1.795418e-06	-4.383226e-09	-1.263639e+01	-2.851924e+02
4.000000e-07	-1.771195e-06	-4.339860e-09	-1.246591e+01	-2.829320e+02
4.100000e-07	-1.746643e-06	-4.282494e-09	-1.229311e+01	-2.806388e+02
4.200000e-07	-1.721596e-06	-4.267839e-09	-1.211683e+01	-2.783236e+02
4.300000e-07	-1.695841e-06	-4.229697e-09	-1.193556e+01	-2.759808e+02
4.400000e-07	-1.669239e-06	-4.188402e-09	-1.174833e+01	-2.735861e+02
4.500000e-07	-1.641890e-06	-4.146201e-09	-1.155584e+01	-2.711061e+02
4.600000e-07	-1.614007e-06	-4.106352e-09	-1.135960e+01	-2.685156e+02
4.700000e-07	-1.585768e-06	-4.061476e-09	-1.116085e+01	-2.658128e+02
4.800000e-07	-1.557308e-06	-4.030843e-09	-1.096054e+01	-2.630236e+02
4.900000e-07	-1.528603e-06	-3.982050e-09	-1.075851e+01	-2.601903e+02
5.000000e-07	-1.499470e-06	-3.925917e-09	-1.055347e+01	-2.573499e+02
5.100000e-07	-1.469834e-06	-3.891686e-09	-1.034489e+01	-2.545138e+02
5.200000e-07	-1.439802e-06	-3.850040e-09	-1.013352e+01	-2.516601e+02
5.300000e-07	-1.409414e-06	-3.800342e-09	-9.919645e+00	-2.487435e+02
5.400000e-07	-1.378671e-06	-3.746685e-09	-9.703270e+00	-2.457185e+02
5.500000e-07	-1.347523e-06	-3.702590e-09	-9.484046e+00	-2.425625e+02
5.600000e-07	-1.315954e-06	-3.653055e-09	-9.261859e+00	-2.392873e+02
5.700000e-07	-1.284073e-06	-3.606132e-09	-9.037476e+00	-2.359327e+02
5.800000e-07	-1.251951e-06	-3.550796e-09	-8.811401e+00	-2.325460e+02
5.900000e-07	-1.219621e-06	-3.495700e-09	-8.583857e+00	-2.291588e+02
6.000000e-07	-1.187080e-06	-3.446943e-09	-8.354830e+00	-2.257734e+02
6.100000e-07	-1.154209e-06	-3.393655e-09	-8.123478e+00	-2.223651e+02
6.200000e-07	-1.120899e-06	-3.339006e-09	-7.889037e+00	-2.188978e+02
6.300000e-07	-1.087081e-06	-3.280688e-09	-7.651019e+00	-2.153436e+02
6.400000e-07	-1.052800e-06	-3.224949e-09	-7.409745e+00	-2.116962e+02
6.500000e-07	-1.018013e-06	-3.167192e-09	-7.164912e+00	-2.079713e+02
6.600000e-07	-9.826088e-07	-3.113149e-09	-6.915732e+00	-2.041958e+02
6.700000e-07	-9.468037e-07	-3.053148e-09	-6.663732e+00	-2.003926e+02
6.800000e-07	-9.108086e-07	-2.992966e-09	-6.410394e+00	-1.965689e+02
6.900000e-07	-8.746419e-07	-2.935870e-09	-6.155847e+00	-1.927148e+02
7.000000e-07	-8.383444e-07	-2.876596e-09	-5.900381e+00	-1.888095e+02
7.100000e-07	-8.019498e-07	-2.813279e-09	-5.644230e+00	-1.848333e+02
7.200000e-07	-7.654347e-07	-2.745833e-09	-5.387232e+00	-1.807764e+02
7.300000e-07	-7.287680e-07	-2.683271e-09	-5.129167e+00	-1.766424e+02
7.400000e-07	-6.919218e-07	-2.619775e-09	-4.869839e+00	-1.724454e+02
7.500000e-07	-6.548489e-07	-2.556215e-09	-4.608914e+00	-1.682016e+02
7.600000e-07	-6.175134e-07	-2.488244e-09	-4.346142e+00	-1.639213e+02
7.700000e-07	-5.799827e-07	-2.419747e-09	-4.081996e+00	-1.596033e+02
7.800000e-07	-5.422989e-07	-2.351871e-09	-3.816772e+00	-1.552352e+02
7.900000e-07	-5.044120e-07	-2.280835e-09	-3.550119e+00	-1.507976e+02
8.000000e-07	-4.663616e-07	-2.208710e-09	-3.282316e+00	-1.462728e+02
8.100000e-07	-4.282433e-07	-2.135930e-09	-3.014034e+00	-1.416536e+02
8.200000e-07	-3.900757e-07	-2.066310e-09	-2.745405e+00	-1.369480e+02
8.300000e-07	-3.518371e-07	-1.996013e-09	-2.476277e+00	-1.321786e+02
8.400000e-07	-3.135180e-07	-1.923553e-09	-2.206582e+00	-1.273739e+02
8.500000e-07	-2.751134e-07	-1.846026e-09	-1.936285e+00	-1.225559e+02
8.600000e-07	-2.365942e-07	-1.769905e-09	-1.665182e+00	-1.177278e+02
8.700000e-07	-1.980108e-07	-1.694368e-09	-1.393626e+00	-1.128701e+02
8.800000e-07	-1.594101e-07	-1.615182e-09	-1.121949e+00	-1.079474e+02
8.900000e-07	-1.208093e-07	-1.534640e-09	-8.502721e-01	-1.029243e+02
9.000000e-07	-8.221360e-08	-1.454766e-09	-5.786303e-01	-9.778448e+01
9.100000e-07	-4.361091e-08	-1.377508e-09	-3.069395e-01	-9.254025e+01
9.200000e-07	-5.014296e-09	-1.298715e-09	-3.529129e-02	-8.722936e+01
9.300000e-07	3.365010e-08	-1.218114e-09	2.368340e-01	-8.189661e+01
9.400000e-07	7.237477e-08	-1.133672e-09	5.093833e-01	-7.657036e+01
9.500000e-07	1.110595e-07	-1.050409e-09	7.816518e-01	-7.124582e+01
9.600000e-07	1.497088e-07	-9.683034e-10	1.053671e+00	-6.588523e+01
9.700000e-07	1.882924e-07	-8.842513e-10	1.325227e+00	-6.043607e+01
9.800000e-07	2.268084e-07	-7.983015e-10	1.596308e+00	-5.485836e+01
9.900000e-07	2.652736e-07	-7.117219e-10	1.867032e+00	-4.914672e+01
1.000000e-06	3.036933e-07	-6.251150e-10	2.137434e+00	-4.333456e+01
1.010000e-06	3.421066e-07	-5.357378e-10	2.407792e+00	-3.747766e+01
1.020000e-06	3.804283e-07	-4.470011e-10	2.677505e+00	-3.162547e+01
1.030000e-06	4.186257e-07	-3.576536e-10	2.946344e+00	-2.579548e+01
1.040000e-06	4.567388e-07	-2.682470e-10	3.214589e+00	-1.996475e+01
1.050000e-06	4.947635e-07	-1.783113e-10	3.482212e+00	-1.408287e+01
1.060000e-06	5.326481e-07	-8.635155e-11	3.748849e+00	-8.099421e+00
1.070000e-06	5.703764e-07	7.637655e-12	4.014386e+00	-1.990529e+00
1.080000e-06	6.079340e-07	1.018495e-10	4.278722e+00	4.229298e+00
1.090000e-06	6.452667e-07	1.953297e-10	4.541474e+00	1.051580e+01
1.100000e-06	6.822962e-07	2.914691e-10	4.802093e+00	1.681819e+01
1.110000e-06	7.190675e-07	3.888698e-10	5.060894e+00	2.310370e+01
1.120000e-06	7.557081e-07	4.846956e-10	5.318775e+00	2.937069e+01
1.130000e-06	7.922072e-07	5.778673e-10	5.575661e+00	3.564466e+01
1.140000e-06	8.285879e-07	6.740519e-10	5.831713e+00	4.196157e+01
1.150000e-06	8.648784e-07	7.721934e-10	6.087130e+00	4.834877e+01
1.160000e-06	9.010344e-07	8.709394e-10	6.341601e+00	5.481335e+01
1.170000e-06	9.370867e-07	9.693357e-10	6.595342e+00	6.134195e+01
1.180000e-06	9.729659e-07	1.068362e-09	6.847865e+00	6.790865e+01
1.190000e-06	1.008456e-06	1.169080e-09	7.097652e+00	7.448435e+01
1.200000e-06	1.043423e-06	1.269186e-09	7.343748e+00	8.104237e+01
1.210000e-06	1.077843e-06	1.368855e-09	7.586004e+00	8.755983e+01
1.220000e-06	1.111690e-06	1.466239e-09	7.824225e+00	9.401851e+01
1.230000e-06	1.144953e-06	1.561599e-09	8.058335e+00	1.004085e+02
1.240000e-06	1.177782e-06	1.656990e-09	8.289385e+00	1.067345e+02
1.250000e-06	1.210350e-06	1.753885e-09	8.518608e+00	1.130190e+02
1.260000e-06	1.242739e-06	1.849636e-09	8.746565e+00	1.192971e+02
1.270000e-06	1.274975e-06	1.944346e-09	8.973448e+00	1.256015e+02
1.280000e-06	1.307012e-06	2.040242e-09	9.198929e+00	1.319419e+02
1.290000e-06	1.338692e-06	2.136961e-09	9.421895e+00	1.382921e+02
1.300000e-06	1.369973e-06	2.232286e-09	9.642057e+00	1.445933e+02
1.310000e-06	1.400914e-06	2.325186e-09	9.859823e+00	1.507765e+02
1.320000e-06	1.431484e-06	2.415358e-09	1.007498e+01	1.567939e+02
1.330000e-06	1.461661e-06	2.503569e-09	1.028737e+01	1.626438e+02
1.340000e-06	1.491451e-06	2.589918e-09	1.049703e+01	1.683739e+02
1.350000e-06	1.520797e-06	2.675959e-09	1.070358e+01	1.740572e+02
1.360000e-06	1.549698e-06	2.763380e-09	1.090698e+01	1.797542e+02
1.370000e-06	1.578253e-06	2.850042e-09	1.110796e+01	1.854788e+02
1.380000e-06	1.606575e-06	2.935471e-09	1.130729e+01	1.911876e+02
1.390000e-06	1.634644e-06	3.020294e-09	1.150484e+01	1.967999e+02
1.400000e-06	1.662264e-06	3.102725e-09	1.169924e+01	2.022376e+02
1.410000e-06	1.689229e-06	3.182216e-09	1.188902e+01	2.074640e+02
1.420000e-06	1.715360e-06	3.258294e-09	1.207294e+01	2.125009e+02
1.430000e-06	1.740658e-06	3.331932e-09	1.225099e+01	2.174146e+02
1.440000e-06	1.765344e-06	3.406165e-09	1.242473e+01	2.222792e+02
1.450000e-06	1.789623e-06	3.480200e-09	1.259561e+01	2.271373e+02
1.460000e-06	1.813526e-06	3.551523e-09	1.276384e+01	2.319798e+02
1.470000e-06	1.836966e-06	3.621099e-09	1.292882e+01	2.367537e+02
1.480000e-06	1.859842e-06	3.691107e-09	1.308982e+01	2.413916e+02
1.490000e-06	1.882207e-06	3.760320e-09	1.324723e+01	2.458461e+02
1.500000e-06	1.904124e-06	3.827438e-09	1.340148e+01	2.501097e+02
1.510000e-06	1.925462e-06	3.890764e-09	1.355166e+01	2.542113e+02
1.520000e-06	1.946257e-06	3.950416e-09	1.369802e+01	2.581947e+02
1.530000e-06	1.966715e-06	4.007370e-09	1.384200e+01	2.620925e+02
1.540000e-06	1.986872e-06	4.061999e-09	1.398387e+01	2.659123e+02
1.550000e-06	2.006593e-06	4.116216e-09	1.412267e+01	2.696380e+02
1.560000e-06	2.025711e-06	4.168851e-09	1.425723e+01	2.732447e+02
1.570000e-06	2.044093e-06	4.219524e-09	1.438660e+01	2.767135e+02
1.580000e-06	2.061804e-06	4.268974e-09	1.451125e+01	2.800379e+02
1.590000e-06	2.079032e-06	4.317158e-09	1.463251e+01	2.832189e+02
1.600000e-06	2.095733e-06	4.361280e-09	1.475005e+01	2.862570e+02
1.610000e-06	2.111739e-06	4.402302e-09	1.486270e+01	2.891472e+02
1.620000e-06	2.126952e-06	4.440877e-09	1.496977e+01	2.918840e+02
1.630000e-06	2.141500e-06	4.477254e-09	1.507217e+01	2.944720e+02
1.640000e-06	2.155498e-06	4.512271e-09	1.517069e+01	2.969320e+02
1.650000e-06	2.168845e-06	4.545564e-09	1.526462e+01	2.992967e+02
1.660000e-06	2.181558e-06	4.579108e-09	1.535410e+01	3.015946e+02
1.670000e-06	2.193714e-06	4.612558e-09	1.543966e+01	3.038312e+02
1.680000e-06	2.205264e-06	4.644494e-09	1.552094e+01	3.059812e+02
1.690000e-06	2.215970e-06	4.672728e-09	1.559629e+01	3.079983e+02
1.700000e-06	2.225659e-06	4.696246e-09	1.566449e+01	3.098396e+02
1.710000e-06	2.234503e-06	4.717321e-09	1.572673e+01	3.114930e+02
1.720000e-06	2.242795e-06	4.738180e-09	1.578509e+01	3.129886e+02
1.730000e-06	2.250621e-06	4.758192e-09	1.584017e+01	3.143879e+02
1.740000e-06	2.257894e-06	4.777402e-09	1.589136e+01	3.157527e+02
1.750000e-06	2.264570e-06	4.797847e-09	1.593835e+01	3.171131e+02
1.760000e-06	2.270631e-06	4.818862e-09	1.598101e+01	3.184503e+02
1.770000e-06	2.276005e-06	4.837431e-09	1.601883e+01	3.197071e+02
1.780000e-06	2.280763e-06	4.853147e-09	1.605232e+01	3.208195e+02
1.790000e-06	2.285107e-06	4.866984e-09	1.608289e+01	3.217520e+02
1.800000e-06	2.289022e-06	4.879320e-09	1.611044e+01	3.225168e+02
1.810000e-06	2.292197e-06	4.890317e-09	1.613279e+01	3.231656e+02
1.820000e-06	2.294392e-06	4.899015e-09	1.614824e+01	3.237608e+02
1.830000e-06	2.295659e-06	4.906965e-09	1.615716e+01	3.243409e+02
1.840000e-06	2.296248e-06	4.914997e-09	1.616130e+01	3.249032e+02
1.850000e-06	2.296376e-06	4.922475e-09	1.616220e+01	3.254101e+02
1.860000e-06	2.296043e-06	4.928273e-09	1.615986e+01	3.258161e+02
1.870000e-06	2.295077e-06	4.933174e-09	1.615306e+01	3.260965e+02
1.880000e-06	2.293428e-06	4.936781e-09	1.614146e+01	3.262609e+02
1.890000e-06	2.291218e-06	4.941599e-09	1.612590e+01	3.263439e+02
1.900000e-06	2.288441e-06	4.946851e-09	1.610636e+01	3.263790e+02
1.910000e-06	2.285129e-06	4.935075e-09	1.608304e+01	3.263747e+02
1.920000e-06	2.281320e-06	4.930311e-09	1.605624e+01	3.263067e+02
1.930000e-06	2.276743e-06	4.926333e-09	1.602402e+01	3.261333e+02
1.940000e-06	2.270976e-06	4.932447e-09	1.598344e+01	3.258226e+02
1.950000e-06	2.264197e-06	4.955487e-09	1.593572e+01	3.253766e+02
1.960000e-06	2.257085e-06	4.912204e-09	1.588567e+01	3.248341e+02
1.970000e-06	2.249686e-06	4.894749e-09	1.583359e+01	3.242519e+02
1.980000e-06	2.241615e-06	4.898755e-09	1.577679e+01	3.236740e+02
1.990000e-06	2.232868e-06	4.915584e-09	1.571523e+01	3.231065e+02
2.000000e-06	2.223765e-06	4.877921e-09	1.565116e+01	3.225145e+02
2.010000e-06	2.214208e-06	4.839727e-09	1.558389e+01	3.218413e+02
2.020000e-06	2.203761e-06	4.874743e-09	1.551037e+01	3.210398e+02
2.030000e-06	2.192611e-06	4.875851e-09	1.543189e+01	3.200974e+02
2.040000e-06	2.180971e-06	4.836098e-09	1.534996e+01	3.190412e+02
2.050000e-06	2.168552e-06	4.797463e-09	1.526256e+01	3.179211e+02
2.060000e-06	2.155086e-06	4.813220e-09	1.516779e+01	3.167813e+02
2.070000e-06	2.140754e-06	4.783647e-09	1.506691e+01	3.156376e+02
2.080000e-06	2.125826e-06	4.756769e-09	1.496185e+01	3.144715e+02
2.090000e-06	2.110351e-06	4.757658e-09	1.485294e+01	3.132444e+02
2.100000e-06	2.094408e-06	4.737245e-09	1.474073e+01	3.119195e+02
2.110000e-06	2.077967e-06	4.687200e-09	1.462501e+01	3.104819e+02
2.120000e-06	2.060891e-06	4.690219e-09	1.450483e+01	3.089425e+02
2.130000e-06	2.043202e-06	4.681324e-09	1.438033e+01	3.073292e+02
2.140000e-06	2.025020e-06	4.622415e-09	1.425236e+01	3.056697e+02
2.150000e-06	2.006228e-06	4.599957e-09	1.412010e+01	3.039788e+02
2.160000e-06	1.986886e-06	4.603322e-09	1.398397e+01	3.022553e+02
2.170000e-06	1.967233e-06	4.568634e-09	1.384565e+01	3.004884e+02
2.180000e-06	1.947179e-06	4.517956e-09	1.370451e+01	2.986674e+02
2.190000e-06	1.926368e-06	4.514344e-09	1.355804e+01	2.967872e+02
2.200000e-06	1.904650e-06	4.473473e-09	1.340518e+01	2.948478e+02
2.210000e-06	1.882150e-06	4.437262e-09	1.324682e+01	2.928496e+02
2.220000e-06	1.858980e-06	4.433738e-09	1.308375e+01	2.907897e+02
2.230000e-06	1.835361e-06	4.393422e-09	1.291752e+01	2.886645e+02
2.240000e-06	1.811484e-06	4.334401e-09	1.274947e+01	2.864746e+02
2.250000e-06	1.787235e-06	4.319882e-09	1.257880e+01	2.842299e+02
2.260000e-06	1.762449e-06	4.294115e-09	1.240435e+01	2.819467e+02
2.270000e-06	1.737108e-06	4.232958e-09	1.222600e+01	2.796394e+02
2.280000e-06	1.711305e-06	4.209945e-09	1.204440e+01	2.773084e+02
2.290000e-06	1.685085e-06	4.185705e-09	1.185985e+01	2.749354e+02
2.300000e-06	1.658374e-06	4.141088e-09	1.167186e+01	2.724883e+02
2.310000e-06	1.631224e-06	4.109851e-09	1.148077e+01	2.699371e+02
2.320000e-06	1.603787e-06	4.065433e-09	1.128767e+01	2.672710e+02
2.330000e-06	1.576073e-06	4.012007e-09	1.109262e+01	2.645071e+02
2.340000e-06	1.547939e-06	3.981388e-09	1.089460e+01	2.616845e+02
2.350000e-06	1.519325e-06	3.945386e-09	1.069321e+01	2.588445e+02
2.360000e-06	1.490079e-06	3.890586e-09	1.048738e+01	2.560086e+02
2.370000e-06	1.460050e-06	3.855580e-09	1.027603e+01	2.531659e+02
2.380000e-06	1.429415e-06	3.815256e-09	1.006042e+01	2.502766e+02
2.390000e-06	1.398327e-06	3.764849e-09	9.841613e+00	2.472926e+02
2.400000e-06	1.366898e-06	3.720393e-09	9.620409e+00	2.441816e+02
2.410000e-06	1.335247e-06	3.669928e-09	9.397646e+00	2.409436e+02
2.420000e-06	1.303382e-06	3.619459e-09	9.173378e+00	2.376109e+02
2.430000e-06	1.271216e-06	3.572417e-09	8.946992e+00	2.342311e+02
2.440000e-06	1.238591e-06	3.519657e-09	8.717373e+00	2.308430e+02
2.450000e-06	1.205582e-06	3.463520e-09	8.485045e+00	2.274595e+02
2.460000e-06	1.172309e-06	3.415232e-09	8.250868e+00	2.240636e+02
2.470000e-06	1.138782e-06	3.362419e-09	8.014904e+00	2.206206e+02
2.480000e-06	1.104928e-06	3.313252e-09	7.776630e+00	2.170982e+02
2.490000e-06	1.070657e-06	3.262118e-09	7.535426e+00	2.134819e+02
2.500000e-06	1.036049e-06	3.201833e-09	7.291849e+00	2.097809e+02
2.510000e-06	1.001159e-06	3.144117e-09	7.046292e+00	2.060201e+02
2.520000e-06	9.660145e-07	3.090526e-09	6.798940e+00	2.022252e+02
2.530000e-06	9.306709e-07	3.032458e-09	6.550187e+00	1.984095e+02
2.540000e-06	8.951838e-07	2.968236e-09	6.300424e+00	1.945684e+02
2.550000e-06	8.596260e-07	2.910245e-09	6.050163e+00	1.906835e+02
2.560000e-06	8.239690e-07	2.855010e-09	5.799204e+00	1.867335e+02
2.570000e-06	7.881530e-07	2.797468e-09	5.547127e+00	1.827045e+02
2.580000e-06	7.521272e-07	2.733720e-09	5.293573e+00	1.785959e+02
2.590000e-06	7.158594e-07	2.669253e-09	5.038315e+00	1.744189e+02
2.600000e-06	6.792579e-07	2.607042e-09	4.780708e+00	1.701900e+02
2.610000e-06	6.422427e-07	2.543636e-09	4.520191e+00	1.659222e+02
2.620000e-06	6.049121e-07	2.477775e-09	4.257452e+00	1.616185e+02
2.630000e-06	5.673127e-07	2.412067e-09	3.992823e+00	1.572698e+02
2.640000e-06	5.294010e-07	2.350112e-09	3.725995e+00	1.528584e+02
2.650000e-06	4.911957e-07	2.285164e-09	3.457101e+00	1.483651e+02
2.660000e-06	4.527508e-07	2.217264e-09	3.186521e+00	1.437781e+02
2.670000e-06	4.141230e-07	2.144732e-09	2.914654e+00	1.391002e+02
2.680000e-06	3.753420e-07	2.069043e-09	2.641707e+00	1.343498e+02
2.690000e-06	3.364092e-07	1.995659e-09	2.367693e+00	1.295547e+02
2.700000e-06	2.973479e-07	1.924631e-09	2.092774e+00	1.247405e+02
2.710000e-06	2.581926e-07	1.853068e-09	1.817194e+00	1.199177e+02
2.720000e-06	2.189720e-07	1.781593e-09	1.541154e+00	1.150741e+02
2.730000e-06	1.797359e-07	1.711754e-09	1.265005e+00	1.101782e+02
2.740000e-06	1.404979e-07	1.639494e-09	9.888432e-01	1.051925e+02
2.750000e-06	1.012142e-07	1.562797e-09	7.123594e-01	1.000926e+02
2.760000e-06	6.190676e-08	1.480267e-09	4.357081e-01	9.488079e+01
2.770000e-06	2.255950e-08	1.397930e-09	1.587768e-01	8.958784e+01
2.780000e-06	-1.681967e-08	1.317456e-09	-1.183791e-01	8.425880e+01
2.790000e-06	-5.617534e-08	1.237549e-09	-3.953696e-01	7.892994e+01
2.800000e-06	-9.550126e-08	1.157868e-09	-6.721507e-01	7.360845e+01
2.810000e-06	-1.348270e-07	1.076923e-09	-9.489306e-01	6.826636e+01
2.820000e-06	-1.741337e-07	9.966630e-10	-1.225576e+00	6.285319e+01
2.830000e-06	-2.133820e-07	9.140299e-10	-1.501811e+00	5.732178e+01
2.840000e-06	-2.525628e-07	8.266058e-10	-1.777571e+00	5.165367e+01
2.850000e-06	-2.917264e-07	7.351840e-10	-2.053209e+00	4.587023e+01
2.860000e-06	-3.308499e-07	6.444204e-10	-2.328566e+00	4.002265e+01
2.870000e-06	-3.698633e-07	5.556770e-10	-2.603147e+00	3.416582e+01
2.880000e-06	-4.087596e-07	4.678496e-10	-2.876905e+00	2.832990e+01
2.890000e-06	-4.474793e-07	3.799992e-10	-3.149419e+00	2.250498e+01
2.900000e-06	-4.860174e-07	2.913383e-10	-3.420656e+00	1.664722e+01
2.910000e-06	-5.243427e-07	2.014698e-10	-3.690394e+00	1.070287e+01
2.920000e-06	-5.623853e-07	1.080694e-10	-3.958143e+00	4.636929e+00
2.930000e-06	-6.001157e-07	1.231511e-11	-4.223695e+00	-1.548913e+00
2.940000e-06	-6.374774e-07	-8.420545e-11	-4.486651e+00	-7.818227e+00
2.950000e-06	-6.744499e-07	-1.798976e-10	-4.746869e+00	-1.411943e+01
