# Temperatura_=_20.0
# Concentracion g/m^3_=_10000.0
# C_Vs_to_Am_M_A/Vsm_=_65563218390.804596
# pendiente_HvsI_1/m_=_3716.3
# ordenada_HvsI_A/m_=_1297.0
# frecuencia_Hz_=_269805.9378729129

Tiempo_(s)	Campo_(V.s)	Magnetizacion_(V.s)	Campo_(kA/m)	Magnetizacion_(A/m)
0.000000e+00	-2.287836e-06	-5.012578e-09	-1.612692e+01	-3.258572e+02
1.000000e-08	-2.287396e-06	-5.020682e-09	-1.612382e+01	-3.262339e+02
2.000000e-08	-2.286437e-06	-5.027298e-09	-1.611706e+01	-3.265127e+02
3.000000e-08	-2.284622e-06	-5.031406e-09	-1.610427e+01	-3.266715e+02
4.000000e-08	-2.281845e-06	-5.027360e-09	-1.608469e+01	-3.267117e+02
5.000000e-08	-2.278264e-06	-5.012792e-09	-1.605945e+01	-3.266530e+02
6.000000e-08	-2.274084e-06	-5.023091e-09	-1.602999e+01	-3.265201e+02
7.000000e-08	-2.269344e-06	-5.086993e-09	-1.599657e+01	-3.263295e+02
8.000000e-08	-2.263872e-06	-5.053315e-09	-1.595800e+01	-3.260843e+02
9.000000e-08	-2.257778e-06	-4.914071e-09	-1.591505e+01	-3.257775e+02
1.000000e-07	-2.251296e-06	-4.951645e-09	-1.586936e+01	-3.254001e+02
1.100000e-07	-2.244241e-06	-5.077609e-09	-1.581963e+01	-3.249479e+02
1.200000e-07	-2.236439e-06	-5.043467e-09	-1.576463e+01	-3.244240e+02
1.300000e-07	-2.228203e-06	-4.883226e-09	-1.570657e+01	-3.238347e+02
1.400000e-07	-2.219619e-06	-4.939568e-09	-1.564606e+01	-3.231849e+02
1.500000e-07	-2.210183e-06	-5.065537e-09	-1.557955e+01	-3.224740e+02
1.600000e-07	-2.199667e-06	-4.945585e-09	-1.550542e+01	-3.216965e+02
1.700000e-07	-2.188332e-06	-4.850034e-09	-1.542552e+01	-3.208445e+02
1.800000e-07	-2.176353e-06	-4.931092e-09	-1.534108e+01	-3.199116e+02
1.900000e-07	-2.163695e-06	-4.937786e-09	-1.525185e+01	-3.188943e+02
2.000000e-07	-2.150359e-06	-4.816129e-09	-1.515785e+01	-3.177921e+02
2.100000e-07	-2.136460e-06	-4.869229e-09	-1.505987e+01	-3.166072e+02
2.200000e-07	-2.121913e-06	-4.922821e-09	-1.495734e+01	-3.153449e+02
2.300000e-07	-2.106521e-06	-4.781593e-09	-1.484884e+01	-3.140147e+02
2.400000e-07	-2.090265e-06	-4.728959e-09	-1.473425e+01	-3.126300e+02
2.500000e-07	-2.073317e-06	-4.842046e-09	-1.461478e+01	-3.112052e+02
2.600000e-07	-2.055803e-06	-4.792441e-09	-1.449133e+01	-3.097495e+02
2.700000e-07	-2.037812e-06	-4.654241e-09	-1.436451e+01	-3.082605e+02
2.800000e-07	-2.019311e-06	-4.696696e-09	-1.423410e+01	-3.067222e+02
2.900000e-07	-2.000121e-06	-4.742518e-09	-1.409883e+01	-3.051091e+02
3.000000e-07	-1.980337e-06	-4.652301e-09	-1.395937e+01	-3.033974e+02
3.100000e-07	-1.960204e-06	-4.596900e-09	-1.381745e+01	-3.015773e+02
3.200000e-07	-1.939741e-06	-4.603936e-09	-1.367321e+01	-2.996604e+02
3.300000e-07	-1.918797e-06	-4.553231e-09	-1.352557e+01	-2.976768e+02
3.400000e-07	-1.897311e-06	-4.536043e-09	-1.337412e+01	-2.956628e+02
3.500000e-07	-1.875300e-06	-4.525063e-09	-1.321896e+01	-2.936447e+02
3.600000e-07	-1.852723e-06	-4.452795e-09	-1.305982e+01	-2.916267e+02
3.700000e-07	-1.829594e-06	-4.415500e-09	-1.289678e+01	-2.895893e+02
3.800000e-07	-1.805931e-06	-4.433069e-09	-1.272998e+01	-2.875001e+02
3.900000e-07	-1.781866e-06	-4.396092e-09	-1.256035e+01	-2.853295e+02
4.000000e-07	-1.757565e-06	-4.317978e-09	-1.238905e+01	-2.830652e+02
4.100000e-07	-1.732900e-06	-4.289151e-09	-1.221519e+01	-2.807162e+02
4.200000e-07	-1.707513e-06	-4.264560e-09	-1.203623e+01	-2.783056e+02
4.300000e-07	-1.681268e-06	-4.234519e-09	-1.185124e+01	-2.758568e+02
4.400000e-07	-1.654278e-06	-4.188401e-09	-1.166099e+01	-2.733801e+02
4.500000e-07	-1.626707e-06	-4.132620e-09	-1.146663e+01	-2.708681e+02
4.600000e-07	-1.598753e-06	-4.099423e-09	-1.126959e+01	-2.683010e+02
4.700000e-07	-1.570518e-06	-4.082641e-09	-1.107056e+01	-2.656579e+02
4.800000e-07	-1.542017e-06	-4.034683e-09	-1.086966e+01	-2.629285e+02
4.900000e-07	-1.513122e-06	-3.968373e-09	-1.066598e+01	-2.601177e+02
5.000000e-07	-1.483719e-06	-3.923959e-09	-1.045871e+01	-2.572413e+02
5.100000e-07	-1.453903e-06	-3.884578e-09	-1.024854e+01	-2.543165e+02
5.200000e-07	-1.423768e-06	-3.848421e-09	-1.003612e+01	-2.513521e+02
5.300000e-07	-1.393316e-06	-3.794026e-09	-9.821463e+00	-2.483441e+02
5.400000e-07	-1.362448e-06	-3.729741e-09	-9.603875e+00	-2.452787e+02
5.500000e-07	-1.331110e-06	-3.686646e-09	-9.382978e+00	-2.421394e+02
5.600000e-07	-1.299422e-06	-3.660930e-09	-9.159606e+00	-2.389159e+02
5.700000e-07	-1.267484e-06	-3.605198e-09	-8.934478e+00	-2.356074e+02
5.800000e-07	-1.235347e-06	-3.529681e-09	-8.707941e+00	-2.322223e+02
5.900000e-07	-1.203023e-06	-3.480303e-09	-8.480093e+00	-2.287735e+02
6.000000e-07	-1.170426e-06	-3.442170e-09	-8.250315e+00	-2.252731e+02
6.100000e-07	-1.137395e-06	-3.387833e-09	-8.017481e+00	-2.217300e+02
6.200000e-07	-1.103893e-06	-3.317122e-09	-7.781325e+00	-2.181485e+02
6.300000e-07	-1.069913e-06	-3.258275e-09	-7.541800e+00	-2.145302e+02
6.400000e-07	-1.035397e-06	-3.213796e-09	-7.298498e+00	-2.108748e+02
6.500000e-07	-1.000280e-06	-3.167627e-09	-7.050959e+00	-2.071800e+02
6.600000e-07	-9.646799e-07	-3.104214e-09	-6.800015e+00	-2.034409e+02
6.700000e-07	-9.288521e-07	-3.034598e-09	-6.547465e+00	-1.996504e+02
6.800000e-07	-8.928880e-07	-2.976608e-09	-6.293955e+00	-1.957999e+02
6.900000e-07	-8.567749e-07	-2.924175e-09	-6.039394e+00	-1.918828e+02
7.000000e-07	-8.205317e-07	-2.863081e-09	-5.783916e+00	-1.878976e+02
7.100000e-07	-7.841611e-07	-2.787764e-09	-5.527541e+00	-1.838489e+02
7.200000e-07	-7.476184e-07	-2.720045e-09	-5.269952e+00	-1.797467e+02
7.300000e-07	-7.108702e-07	-2.667295e-09	-5.010914e+00	-1.756020e+02
7.400000e-07	-6.739231e-07	-2.612146e-09	-4.750474e+00	-1.714226e+02
7.500000e-07	-6.367874e-07	-2.539332e-09	-4.488705e+00	-1.672082e+02
7.600000e-07	-5.994455e-07	-2.463795e-09	-4.225483e+00	-1.629496e+02
7.700000e-07	-5.618785e-07	-2.402752e-09	-3.960674e+00	-1.586298e+02
7.800000e-07	-5.241192e-07	-2.341618e-09	-3.694509e+00	-1.542293e+02
7.900000e-07	-4.862456e-07	-2.265159e-09	-3.427539e+00	-1.497320e+02
8.000000e-07	-4.482933e-07	-2.182637e-09	-3.160013e+00	-1.451321e+02
8.100000e-07	-4.102443e-07	-2.112941e-09	-2.891806e+00	-1.404379e+02
8.200000e-07	-3.721197e-07	-2.050937e-09	-2.623066e+00	-1.356712e+02
8.300000e-07	-3.338867e-07	-1.980454e-09	-2.353563e+00	-1.308616e+02
8.400000e-07	-2.955298e-07	-1.898618e-09	-2.083185e+00	-1.260361e+02
8.500000e-07	-2.570898e-07	-1.821267e-09	-1.812222e+00	-1.212078e+02
8.600000e-07	-2.186209e-07	-1.752765e-09	-1.541056e+00	-1.163690e+02
8.700000e-07	-1.801636e-07	-1.679742e-09	-1.269971e+00	-1.114913e+02
8.800000e-07	-1.416536e-07	-1.595213e-09	-9.985144e-01	-1.065359e+02
8.900000e-07	-1.030783e-07	-1.509132e-09	-7.265975e-01	-1.014697e+02
9.000000e-07	-6.447983e-08	-1.433025e-09	-4.545174e-01	-9.628083e+01
9.100000e-07	-2.589029e-08	-1.359405e-09	-1.825003e-01	-9.098561e+01
9.200000e-07	1.272164e-08	-1.278077e-09	8.967467e-02	-8.562293e+01
9.300000e-07	5.131875e-08	-1.189275e-09	3.617452e-01	-8.023693e+01
9.400000e-07	8.991003e-08	-1.105512e-09	6.337745e-01	-7.485595e+01
9.500000e-07	1.284679e-07	-1.029415e-09	9.055682e-01	-6.947778e+01
9.600000e-07	1.669757e-07	-9.494475e-10	1.177009e+00	-6.406923e+01
9.700000e-07	2.054771e-07	-8.606397e-10	1.448405e+00	-5.858113e+01
9.800000e-07	2.439371e-07	-7.716194e-10	1.719509e+00	-5.297190e+01
9.900000e-07	2.823331e-07	-6.877149e-10	1.990162e+00	-4.722827e+01
1.000000e-06	3.206352e-07	-6.007926e-10	2.260153e+00	-4.137252e+01
1.010000e-06	3.588996e-07	-5.075855e-10	2.529878e+00	-3.545247e+01
1.020000e-06	3.971181e-07	-4.137596e-10	2.799280e+00	-2.951884e+01
1.030000e-06	4.352680e-07	-3.260039e-10	3.068198e+00	-2.360132e+01
1.040000e-06	4.733532e-07	-2.397225e-10	3.336660e+00	-1.769519e+01
1.050000e-06	5.113215e-07	-1.460039e-10	3.604298e+00	-1.176483e+01
1.060000e-06	5.490927e-07	-4.840019e-11	3.870547e+00	-5.762018e+00
1.070000e-06	5.866370e-07	4.456251e-11	4.135196e+00	3.504913e-01
1.080000e-06	6.240022e-07	1.348121e-10	4.398583e+00	6.581656e+00
1.090000e-06	6.611412e-07	2.314786e-10	4.660375e+00	1.290900e+01
1.100000e-06	6.980285e-07	3.327183e-10	4.920393e+00	1.929006e+01
1.110000e-06	7.347196e-07	4.310227e-10	5.179028e+00	2.568187e+01
1.120000e-06	7.712254e-07	5.254564e-10	5.436357e+00	3.205862e+01
1.130000e-06	8.075630e-07	6.214579e-10	5.692500e+00	3.841973e+01
1.140000e-06	8.437887e-07	7.209810e-10	5.947855e+00	4.478568e+01
1.150000e-06	8.799559e-07	8.216502e-10	6.202797e+00	5.118510e+01
1.160000e-06	9.160536e-07	9.200793e-10	6.457249e+00	5.763991e+01
1.170000e-06	9.519623e-07	1.017704e-09	6.710369e+00	6.415499e+01
1.180000e-06	9.875273e-07	1.119742e-09	6.961066e+00	7.071594e+01
1.190000e-06	1.022690e-06	1.223652e-09	7.208930e+00	7.729446e+01
1.200000e-06	1.057390e-06	1.323143e-09	7.453530e+00	8.385811e+01
1.210000e-06	1.091467e-06	1.417688e-09	7.693734e+00	9.038039e+01
1.220000e-06	1.124947e-06	1.514376e-09	7.929733e+00	9.684772e+01
1.230000e-06	1.158002e-06	1.614767e-09	8.162743e+00	1.032615e+02
1.240000e-06	1.190700e-06	1.713374e-09	8.393230e+00	1.096348e+02
1.250000e-06	1.223138e-06	1.807989e-09	8.621881e+00	1.159852e+02
1.260000e-06	1.255414e-06	1.902246e-09	8.849395e+00	1.223256e+02
1.270000e-06	1.287533e-06	1.999802e-09	9.075802e+00	1.286566e+02
1.280000e-06	1.319375e-06	2.096611e-09	9.300254e+00	1.349637e+02
1.290000e-06	1.350821e-06	2.188582e-09	9.521921e+00	1.412210e+02
1.300000e-06	1.381845e-06	2.279116e-09	9.740607e+00	1.474011e+02
1.310000e-06	1.412492e-06	2.371809e-09	9.956635e+00	1.534857e+02
1.320000e-06	1.442788e-06	2.464723e-09	1.017019e+01	1.594737e+02
1.330000e-06	1.472678e-06	2.554590e-09	1.038089e+01	1.653800e+02
1.340000e-06	1.502191e-06	2.641063e-09	1.058892e+01	1.712264e+02
1.350000e-06	1.531368e-06	2.727492e-09	1.079459e+01	1.770277e+02
1.360000e-06	1.560108e-06	2.816351e-09	1.099718e+01	1.827812e+02
1.370000e-06	1.588462e-06	2.904253e-09	1.119704e+01	1.884652e+02
1.380000e-06	1.616615e-06	2.988645e-09	1.139550e+01	1.940478e+02
1.390000e-06	1.644526e-06	3.069730e-09	1.159224e+01	1.995028e+02
1.400000e-06	1.671914e-06	3.149866e-09	1.178530e+01	2.048223e+02
1.410000e-06	1.698551e-06	3.229175e-09	1.197306e+01	2.100200e+02
1.420000e-06	1.724321e-06	3.305967e-09	1.215472e+01	2.151217e+02
1.430000e-06	1.749306e-06	3.380675e-09	1.233084e+01	2.201494e+02
1.440000e-06	1.773786e-06	3.455540e-09	1.250339e+01	2.251073e+02
1.450000e-06	1.797915e-06	3.530488e-09	1.267347e+01	2.299785e+02
1.460000e-06	1.821605e-06	3.602414e-09	1.284047e+01	2.347347e+02
1.470000e-06	1.844726e-06	3.670809e-09	1.300344e+01	2.393526e+02
1.480000e-06	1.867328e-06	3.738222e-09	1.316277e+01	2.438277e+02
1.490000e-06	1.889463e-06	3.804568e-09	1.331879e+01	2.481757e+02
1.500000e-06	1.911084e-06	3.868435e-09	1.347120e+01	2.524214e+02
1.510000e-06	1.932130e-06	3.929456e-09	1.361956e+01	2.565804e+02
1.520000e-06	1.952688e-06	3.988898e-09	1.376447e+01	2.606462e+02
1.530000e-06	1.972896e-06	4.048046e-09	1.390691e+01	2.645916e+02
1.540000e-06	1.992726e-06	4.105072e-09	1.404670e+01	2.683831e+02
1.550000e-06	2.012004e-06	4.158268e-09	1.418259e+01	2.720019e+02
1.560000e-06	2.030579e-06	4.208091e-09	1.431352e+01	2.754569e+02
1.570000e-06	2.048513e-06	4.256397e-09	1.443994e+01	2.787809e+02
1.580000e-06	2.065986e-06	4.304132e-09	1.456311e+01	2.820113e+02
1.590000e-06	2.083040e-06	4.350163e-09	1.468332e+01	2.851653e+02
1.600000e-06	2.099516e-06	4.393208e-09	1.479946e+01	2.882259e+02
1.610000e-06	2.115229e-06	4.433590e-09	1.491022e+01	2.911473e+02
1.620000e-06	2.130125e-06	4.472087e-09	1.501522e+01	2.938797e+02
1.630000e-06	2.144349e-06	4.507738e-09	1.511548e+01	2.963995e+02
1.640000e-06	2.157995e-06	4.540731e-09	1.521168e+01	2.987284e+02
1.650000e-06	2.171035e-06	4.573467e-09	1.530360e+01	3.009281e+02
1.660000e-06	2.183528e-06	4.605755e-09	1.539166e+01	3.030721e+02
1.670000e-06	2.195473e-06	4.635919e-09	1.547586e+01	3.052093e+02
1.680000e-06	2.206698e-06	4.664513e-09	1.555498e+01	3.073384e+02
1.690000e-06	2.216924e-06	4.691904e-09	1.562707e+01	3.094079e+02
1.700000e-06	2.226156e-06	4.716302e-09	1.569214e+01	3.113426e+02
1.710000e-06	2.234736e-06	4.738017e-09	1.575262e+01	3.130826e+02
1.720000e-06	2.242849e-06	4.759315e-09	1.580981e+01	3.146141e+02
1.730000e-06	2.250419e-06	4.780362e-09	1.586317e+01	3.159758e+02
1.740000e-06	2.257384e-06	4.801076e-09	1.591227e+01	3.172378e+02
1.750000e-06	2.263758e-06	4.820246e-09	1.595720e+01	3.184653e+02
1.760000e-06	2.269494e-06	4.837433e-09	1.599763e+01	3.196860e+02
1.770000e-06	2.274579e-06	4.854794e-09	1.603347e+01	3.208791e+02
1.780000e-06	2.279118e-06	4.870906e-09	1.606547e+01	3.219904e+02
1.790000e-06	2.283258e-06	4.884704e-09	1.609465e+01	3.229631e+02
1.800000e-06	2.286904e-06	4.896448e-09	1.612035e+01	3.237692e+02
1.810000e-06	2.289706e-06	4.905319e-09	1.614010e+01	3.244219e+02
1.820000e-06	2.291514e-06	4.913611e-09	1.615285e+01	3.249671e+02
1.830000e-06	2.292475e-06	4.922810e-09	1.615963e+01	3.254577e+02
1.840000e-06	2.292841e-06	4.930706e-09	1.616220e+01	3.259272e+02
1.850000e-06	2.292757e-06	4.937277e-09	1.616161e+01	3.263759e+02
1.860000e-06	2.292119e-06	4.943284e-09	1.615711e+01	3.267754e+02
1.870000e-06	2.290835e-06	4.947317e-09	1.614806e+01	3.270870e+02
1.880000e-06	2.288947e-06	4.950640e-09	1.613475e+01	3.272827e+02
1.890000e-06	2.286466e-06	4.958294e-09	1.611727e+01	3.273570e+02
1.900000e-06	2.283430e-06	4.970509e-09	1.609586e+01	3.273255e+02
1.910000e-06	2.279935e-06	4.941136e-09	1.607123e+01	3.272129e+02
1.920000e-06	2.275926e-06	4.874132e-09	1.604297e+01	3.270392e+02
1.930000e-06	2.270827e-06	4.947063e-09	1.600703e+01	3.268113e+02
1.940000e-06	2.264543e-06	5.032227e-09	1.596273e+01	3.265245e+02
1.950000e-06	2.257771e-06	4.950421e-09	1.591500e+01	3.261694e+02
1.960000e-06	2.250710e-06	4.846149e-09	1.586522e+01	3.257400e+02
1.970000e-06	2.242976e-06	4.929392e-09	1.581071e+01	3.252374e+02
1.980000e-06	2.234460e-06	5.018931e-09	1.575068e+01	3.246674e+02
1.990000e-06	2.225615e-06	4.881470e-09	1.568833e+01	3.240360e+02
2.000000e-06	2.216428e-06	4.792665e-09	1.562357e+01	3.233443e+02
2.010000e-06	2.206383e-06	4.917714e-09	1.555276e+01	3.225880e+02
2.020000e-06	2.195510e-06	4.941274e-09	1.547612e+01	3.217595e+02
2.030000e-06	2.184211e-06	4.806409e-09	1.539647e+01	3.208517e+02
2.040000e-06	2.172350e-06	4.827697e-09	1.531286e+01	3.198601e+02
2.050000e-06	2.159455e-06	4.900611e-09	1.522197e+01	3.187835e+02
2.060000e-06	2.145649e-06	4.776637e-09	1.512465e+01	3.176234e+02
2.070000e-06	2.131123e-06	4.713122e-09	1.502225e+01	3.163839e+02
2.080000e-06	2.115886e-06	4.841567e-09	1.491485e+01	3.150732e+02
2.090000e-06	2.100162e-06	4.800817e-09	1.480401e+01	3.137038e+02
2.100000e-06	2.084024e-06	4.642412e-09	1.469025e+01	3.122904e+02
2.110000e-06	2.067278e-06	4.701899e-09	1.457221e+01	3.108443e+02
2.120000e-06	2.049886e-06	4.780133e-09	1.444962e+01	3.093671e+02
2.130000e-06	2.031997e-06	4.643430e-09	1.432352e+01	3.078465e+02
2.140000e-06	2.013563e-06	4.575733e-09	1.419357e+01	3.062590e+02
2.150000e-06	1.994497e-06	4.642995e-09	1.405918e+01	3.045788e+02
2.160000e-06	1.974988e-06	4.620036e-09	1.392166e+01	3.027912e+02
2.170000e-06	1.955169e-06	4.549933e-09	1.378196e+01	3.009010e+02
2.180000e-06	1.934834e-06	4.544219e-09	1.363862e+01	2.989341e+02
2.190000e-06	1.913743e-06	4.497087e-09	1.348995e+01	2.969264e+02
2.200000e-06	1.891788e-06	4.455743e-09	1.333518e+01	2.949090e+02
2.210000e-06	1.868999e-06	4.470750e-09	1.317455e+01	2.928930e+02
2.220000e-06	1.845631e-06	4.419019e-09	1.300983e+01	2.908653e+02
2.230000e-06	1.821961e-06	4.354328e-09	1.284297e+01	2.887957e+02
2.240000e-06	1.797952e-06	4.357211e-09	1.267374e+01	2.866520e+02
2.250000e-06	1.773440e-06	4.334898e-09	1.250096e+01	2.844160e+02
2.260000e-06	1.748437e-06	4.274742e-09	1.232471e+01	2.820907e+02
2.270000e-06	1.722987e-06	4.244762e-09	1.214531e+01	2.796963e+02
2.280000e-06	1.697043e-06	4.205148e-09	1.196243e+01	2.772578e+02
2.290000e-06	1.670593e-06	4.170788e-09	1.177599e+01	2.747902e+02
2.300000e-06	1.643647e-06	4.154204e-09	1.158604e+01	2.722912e+02
2.310000e-06	1.616281e-06	4.093763e-09	1.139314e+01	2.697435e+02
2.320000e-06	1.588651e-06	4.036585e-09	1.119838e+01	2.671252e+02
2.330000e-06	1.560769e-06	4.018568e-09	1.100184e+01	2.644221e+02
2.340000e-06	1.532556e-06	3.982833e-09	1.080297e+01	2.616347e+02
2.350000e-06	1.503855e-06	3.933075e-09	1.060065e+01	2.587765e+02
2.360000e-06	1.474415e-06	3.893004e-09	1.039313e+01	2.558654e+02
2.370000e-06	1.444169e-06	3.840692e-09	1.017993e+01	2.529134e+02
2.380000e-06	1.413293e-06	3.803781e-09	9.962282e+00	2.499202e+02
2.390000e-06	1.382028e-06	3.773758e-09	9.741896e+00	2.468742e+02
2.400000e-06	1.350514e-06	3.706485e-09	9.519751e+00	2.437589e+02
2.410000e-06	1.318798e-06	3.646672e-09	9.296191e+00	2.405615e+02
2.420000e-06	1.286838e-06	3.618525e-09	9.070903e+00	2.372783e+02
2.430000e-06	1.254521e-06	3.577395e-09	8.843100e+00	2.339153e+02
2.440000e-06	1.221767e-06	3.511135e-09	8.612218e+00	2.304846e+02
2.450000e-06	1.188634e-06	3.450812e-09	8.378664e+00	2.269992e+02
2.460000e-06	1.155233e-06	3.405273e-09	8.143224e+00	2.234689e+02
2.470000e-06	1.121597e-06	3.362270e-09	7.906119e+00	2.198993e+02
2.480000e-06	1.087657e-06	3.303370e-09	7.666876e+00	2.162927e+02
2.490000e-06	1.053296e-06	3.238142e-09	7.424666e+00	2.126492e+02
2.500000e-06	1.018554e-06	3.184453e-09	7.179775e+00	2.089672e+02
2.510000e-06	9.835116e-07	3.134087e-09	6.932759e+00	2.052427e+02
2.520000e-06	9.482117e-07	3.077670e-09	6.683931e+00	2.014690e+02
2.530000e-06	9.127548e-07	3.013457e-09	6.433995e+00	1.976378e+02
2.540000e-06	8.772180e-07	2.950931e-09	6.183497e+00	1.937416e+02
2.550000e-06	8.415965e-07	2.896862e-09	5.932402e+00	1.897770e+02
2.560000e-06	8.058590e-07	2.846597e-09	5.680489e+00	1.857469e+02
2.570000e-06	7.699850e-07	2.785636e-09	5.427614e+00	1.816601e+02
2.580000e-06	7.339250e-07	2.714882e-09	5.173427e+00	1.775278e+02
2.590000e-06	6.976418e-07	2.650499e-09	4.917667e+00	1.733591e+02
2.600000e-06	6.611310e-07	2.593252e-09	4.660303e+00	1.691565e+02
2.610000e-06	6.242699e-07	2.527927e-09	4.400469e+00	1.649132e+02
2.620000e-06	5.870467e-07	2.454611e-09	4.138084e+00	1.606143e+02
2.630000e-06	5.495629e-07	2.390952e-09	3.873861e+00	1.562402e+02
2.640000e-06	5.117984e-07	2.334595e-09	3.607660e+00	1.517732e+02
2.650000e-06	4.737211e-07	2.270762e-09	3.339253e+00	1.472040e+02
2.660000e-06	4.353580e-07	2.194923e-09	3.068832e+00	1.425366e+02
2.670000e-06	3.967227e-07	2.117866e-09	2.796493e+00	1.377892e+02
2.680000e-06	3.578881e-07	2.047653e-09	2.522748e+00	1.329900e+02
2.690000e-06	3.189349e-07	1.976554e-09	2.248168e+00	1.281679e+02
2.700000e-06	2.798828e-07	1.899533e-09	1.972890e+00	1.233412e+02
2.710000e-06	2.407223e-07	1.823758e-09	1.696848e+00	1.185086e+02
2.720000e-06	2.014944e-07	1.755160e-09	1.420331e+00	1.136470e+02
2.730000e-06	1.622722e-07	1.687917e-09	1.143854e+00	1.087192e+02
2.740000e-06	1.230240e-07	1.615070e-09	8.671943e-01	1.036887e+02
2.750000e-06	8.372506e-08	1.533806e-09	5.901767e-01	9.853620e+01
2.760000e-06	4.439651e-08	1.450400e-09	3.129504e-01	9.326971e+01
2.770000e-06	5.055319e-09	1.369054e-09	3.563487e-02	8.792294e+01
2.780000e-06	-3.427665e-08	1.286495e-09	-2.416156e-01	8.254072e+01
2.790000e-06	-7.357348e-08	1.202170e-09	-5.186184e-01	7.715797e+01
2.800000e-06	-1.128682e-07	1.118491e-09	-7.956066e-01	7.178217e+01
2.810000e-06	-1.521922e-07	1.039607e-09	-1.072800e+00	6.638824e+01
2.820000e-06	-1.914958e-07	9.624444e-10	-1.349851e+00	6.092942e+01
2.830000e-06	-2.307289e-07	8.783865e-10	-1.626405e+00	5.535941e+01
2.840000e-06	-2.699247e-07	7.873482e-10	-1.902696e+00	4.965519e+01
2.850000e-06	-3.090761e-07	6.969277e-10	-2.178673e+00	4.382896e+01
2.860000e-06	-3.481196e-07	6.097188e-10	-2.453890e+00	3.792303e+01
2.870000e-06	-3.869918e-07	5.208520e-10	-2.727900e+00	3.198995e+01
2.880000e-06	-4.257230e-07	4.275679e-10	-3.000915e+00	2.606758e+01
2.890000e-06	-4.643240e-07	3.360587e-10	-3.273014e+00	2.016166e+01
2.900000e-06	-5.026711e-07	2.495679e-10	-3.543321e+00	1.424421e+01
2.910000e-06	-5.406855e-07	1.607827e-10	-3.811284e+00	8.268271e+00
2.920000e-06	-5.783772e-07	6.592958e-11	-4.076973e+00	2.191117e+00
2.930000e-06	-6.157564e-07	-3.052487e-11	-4.340458e+00	-4.005493e+00
2.940000e-06	-6.527728e-07	-1.259145e-10	-4.601386e+00	-1.030764e+01
2.950000e-06	-6.894335e-07	-2.220425e-10	-4.859807e+00	-1.667687e+01
