# Temperatura_=_20.0
# Concentracion g/m^3_=_10000.0
# C_Vs_to_Am_M_A/Vsm_=_65563218390.804596
# pendiente_HvsI_1/m_=_3716.3
# ordenada_HvsI_A/m_=_1297.0
# frecuencia_Hz_=_269814.9246801453

Tiempo_(s)	Campo_(V.s)	Magnetizacion_(V.s)	Campo_(kA/m)	Magnetizacion_(A/m)
0.000000e+00	-2.287028e-06	-4.970106e-12	-1.612927e+01	4.684606e-05
1.000000e-08	-2.286928e-06	-5.213991e-12	-1.612857e+01	-2.288381e-05
2.000000e-08	-2.286425e-06	-6.379904e-12	-1.612503e+01	-3.198278e-04
3.000000e-08	-2.285315e-06	-7.041031e-12	-1.611719e+01	-5.537736e-04
4.000000e-08	-2.283328e-06	-3.759082e-12	-1.610318e+01	-5.005372e-04
5.000000e-08	-2.280392e-06	5.615416e-12	-1.608247e+01	-1.181776e-04
6.000000e-08	-2.276639e-06	1.747524e-11	-1.605601e+01	4.450017e-04
7.000000e-08	-2.272335e-06	-1.529095e-11	-1.602566e+01	9.408499e-04
8.000000e-08	-2.267446e-06	-7.324386e-11	-1.599117e+01	1.150154e-03
9.000000e-08	-2.261814e-06	-9.502163e-12	-1.595146e+01	9.796778e-04
1.000000e-07	-2.255611e-06	9.110679e-11	-1.590771e+01	4.866613e-04
1.100000e-07	-2.249009e-06	2.742041e-11	-1.586114e+01	-1.645409e-04
1.200000e-07	-2.241807e-06	-1.006508e-10	-1.581036e+01	-7.765054e-04
1.300000e-07	-2.233936e-06	-2.264180e-11	-1.575485e+01	-1.182900e-03
1.400000e-07	-2.225678e-06	1.032601e-10	-1.569661e+01	-1.282970e-03
1.500000e-07	-2.216984e-06	1.424760e-12	-1.563529e+01	-1.051653e-03
1.600000e-07	-2.207321e-06	-9.876268e-11	-1.556714e+01	-5.408749e-04
1.700000e-07	-2.196518e-06	2.652230e-12	-1.549095e+01	1.217162e-04
1.800000e-07	-2.185060e-06	6.659482e-11	-1.541015e+01	7.472702e-04
1.900000e-07	-2.173060e-06	-2.724932e-11	-1.532552e+01	1.130141e-03
2.000000e-07	-2.160242e-06	-1.700643e-11	-1.523511e+01	1.123667e-03
2.100000e-07	-2.146731e-06	4.388142e-11	-1.513983e+01	7.202820e-04
2.200000e-07	-2.132775e-06	-3.183138e-11	-1.504141e+01	8.850942e-05
2.300000e-07	-2.118200e-06	-5.559263e-11	-1.493861e+01	-4.724624e-04
2.400000e-07	-2.102717e-06	5.207306e-11	-1.482942e+01	-6.599932e-04
2.500000e-07	-2.086374e-06	2.946072e-11	-1.471417e+01	-3.243809e-04
2.600000e-07	-2.069341e-06	-7.903390e-11	-1.459404e+01	4.294221e-04
2.700000e-07	-2.051735e-06	-1.068869e-11	-1.446987e+01	1.263774e-03
2.800000e-07	-2.033607e-06	6.945449e-11	-1.434203e+01	1.762527e-03
2.900000e-07	-2.014898e-06	-1.939908e-11	-1.421008e+01	1.649811e-03
3.000000e-07	-1.995597e-06	-6.154011e-11	-1.407396e+01	9.583431e-04
3.100000e-07	-1.975800e-06	1.166062e-11	-1.393434e+01	4.608600e-05
3.200000e-07	-1.955635e-06	1.497875e-11	-1.379212e+01	-5.653201e-04
3.300000e-07	-1.935086e-06	-1.050646e-11	-1.364720e+01	-4.588109e-04
3.400000e-07	-1.914041e-06	6.030939e-13	-1.349878e+01	4.414843e-04
3.500000e-07	-1.892487e-06	-1.145445e-11	-1.334677e+01	1.797734e-03
3.600000e-07	-1.870375e-06	-2.492590e-11	-1.319083e+01	3.001662e-03
3.700000e-07	-1.847712e-06	1.151798e-11	-1.303100e+01	3.470172e-03
3.800000e-07	-1.824495e-06	8.528025e-12	-1.286726e+01	2.943475e-03
3.900000e-07	-1.800805e-06	-3.889826e-11	-1.270018e+01	1.627798e-03
4.000000e-07	-1.776760e-06	-2.492739e-11	-1.253061e+01	1.028598e-04
4.100000e-07	-1.752352e-06	8.675163e-12	-1.235847e+01	-9.618455e-04
4.200000e-07	-1.727533e-06	4.726031e-12	-1.218344e+01	-1.135441e-03
4.300000e-07	-1.702138e-06	-2.278571e-11	-1.200434e+01	-4.277879e-04
4.400000e-07	-1.675914e-06	-2.834802e-11	-1.181939e+01	7.379368e-04
4.500000e-07	-1.648804e-06	-9.258561e-12	-1.162820e+01	1.762470e-03
4.600000e-07	-1.621105e-06	8.119307e-12	-1.143285e+01	2.186872e-03
4.700000e-07	-1.593086e-06	-1.339307e-11	-1.123525e+01	1.918972e-03
4.800000e-07	-1.564830e-06	-3.334436e-11	-1.103597e+01	1.254281e-03
4.900000e-07	-1.536287e-06	-1.148911e-11	-1.083467e+01	6.901143e-04
5.000000e-07	-1.507341e-06	1.948349e-12	-1.063053e+01	6.425134e-04
5.100000e-07	-1.477908e-06	-7.195730e-12	-1.042296e+01	1.222647e-03
5.200000e-07	-1.448055e-06	-1.644758e-11	-1.021241e+01	2.189398e-03
5.300000e-07	-1.417887e-06	-1.320112e-11	-9.999652e+00	3.093490e-03
5.400000e-07	-1.387347e-06	-4.664529e-12	-9.784271e+00	3.524266e-03
5.500000e-07	-1.356342e-06	6.532442e-12	-9.565609e+00	3.320293e-03
5.600000e-07	-1.324952e-06	-4.169362e-12	-9.344233e+00	2.633712e-03
5.700000e-07	-1.293257e-06	-1.928968e-11	-9.120700e+00	1.825003e-03
5.800000e-07	-1.261294e-06	-7.237997e-12	-8.895280e+00	1.258035e-03
5.900000e-07	-1.229137e-06	8.108863e-12	-8.668498e+00	1.113313e-03
6.000000e-07	-1.196801e-06	2.896460e-12	-8.440444e+00	1.317171e-03
6.100000e-07	-1.164201e-06	-9.014795e-12	-8.210537e+00	1.613095e-03
6.200000e-07	-1.131196e-06	-3.947084e-12	-7.977763e+00	1.722302e-03
6.300000e-07	-1.097672e-06	6.195614e-12	-7.741340e+00	1.498520e-03
6.400000e-07	-1.063650e-06	7.802913e-12	-7.501394e+00	9.959160e-04
6.500000e-07	-1.029108e-06	-3.881053e-12	-7.257791e+00	4.254528e-04
6.600000e-07	-9.940412e-07	-9.454849e-12	-7.010481e+00	3.713541e-05
6.700000e-07	-9.585196e-07	-1.202990e-12	-6.759965e+00	-1.410778e-06
6.800000e-07	-9.226544e-07	5.130131e-12	-6.507025e+00	3.300620e-04
6.900000e-07	-8.866172e-07	-1.610706e-13	-6.252872e+00	9.152306e-04
7.000000e-07	-8.504866e-07	-7.136039e-12	-5.998061e+00	1.564666e-03
7.100000e-07	-8.142652e-07	3.546674e-13	-5.742610e+00	2.089353e-03
7.200000e-07	-7.778976e-07	1.204388e-11	-5.486127e+00	2.351564e-03
7.300000e-07	-7.414353e-07	1.303919e-11	-5.228976e+00	2.286015e-03
7.400000e-07	-7.047605e-07	3.590275e-12	-4.970327e+00	1.904046e-03
7.500000e-07	-6.677096e-07	1.106573e-12	-4.709026e+00	1.294008e-03
7.600000e-07	-6.304425e-07	6.898009e-12	-4.446199e+00	6.158643e-04
7.700000e-07	-5.930941e-07	7.689116e-12	-4.182799e+00	7.414861e-05
7.800000e-07	-5.555586e-07	1.071962e-12	-3.918080e+00	-1.427534e-04
7.900000e-07	-5.178045e-07	-1.908637e-12	-3.651819e+00	5.446504e-05
8.000000e-07	-4.799218e-07	5.727472e-12	-3.384651e+00	5.901103e-04
8.100000e-07	-4.419401e-07	1.188173e-11	-3.116785e+00	1.222463e-03
8.200000e-07	-4.038621e-07	8.169549e-12	-2.848239e+00	1.631282e-03
8.300000e-07	-3.656817e-07	1.493276e-13	-2.578972e+00	1.568181e-03
8.400000e-07	-3.273919e-07	5.012097e-13	-2.308933e+00	9.978866e-04
8.500000e-07	-2.890719e-07	6.360843e-12	-2.038681e+00	1.471158e-04
8.600000e-07	-2.507658e-07	6.101724e-12	-1.768527e+00	-5.837530e-04
8.700000e-07	-2.123581e-07	9.240485e-13	-1.497657e+00	-8.179698e-04
8.800000e-07	-1.738642e-07	8.856421e-14	-1.226179e+00	-4.124026e-04
8.900000e-07	-1.353475e-07	5.426074e-12	-9.545391e-01	4.368031e-04
9.000000e-07	-9.680333e-08	8.281914e-12	-6.827060e-01	1.264753e-03
9.100000e-07	-5.824448e-08	4.732244e-12	-4.107695e-01	1.564268e-03
9.200000e-07	-1.964313e-08	5.911016e-13	-1.385333e-01	1.057988e-03
9.300000e-07	1.901821e-08	2.975034e-12	1.341261e-01	-1.297186e-04
9.400000e-07	5.760691e-08	6.398940e-12	4.062731e-01	-1.502954e-03
9.500000e-07	9.607719e-08	3.617040e-12	6.775849e-01	-2.424314e-03
9.600000e-07	1.345610e-07	-1.596499e-12	9.489924e-01	-2.433048e-03
9.700000e-07	1.730542e-07	-1.732448e-12	1.220466e+00	-1.486224e-03
9.800000e-07	2.114935e-07	1.962074e-12	1.491559e+00	7.288839e-06
9.900000e-07	2.498892e-07	1.204442e-12	1.762345e+00	1.382967e-03
1.000000e-06	2.882612e-07	-2.356933e-12	2.032964e+00	2.047521e-03
1.010000e-06	3.266090e-07	-1.467017e-12	2.303411e+00	1.766593e-03
1.020000e-06	3.648820e-07	3.242528e-12	2.573332e+00	7.640678e-04
1.030000e-06	4.030730e-07	4.767115e-12	2.842674e+00	-4.150947e-04
1.040000e-06	4.411665e-07	1.812195e-12	3.111329e+00	-1.200412e-03
1.050000e-06	4.791537e-07	1.208403e-13	3.379234e+00	-1.289498e-03
1.060000e-06	5.170305e-07	2.134230e-12	3.646361e+00	-7.853150e-04
1.070000e-06	5.547698e-07	3.391550e-12	3.912517e+00	-1.116128e-04
1.080000e-06	5.923256e-07	3.575224e-13	4.177379e+00	2.375369e-04
1.090000e-06	6.296642e-07	-3.006311e-12	4.440710e+00	-2.831035e-05
1.100000e-06	6.667371e-07	-2.385559e-12	4.702167e+00	-8.466403e-04
1.110000e-06	7.035371e-07	1.562534e-12	4.961699e+00	-1.850457e-03
1.120000e-06	7.401461e-07	3.491848e-12	5.219884e+00	-2.576942e-03
1.130000e-06	7.765877e-07	2.338712e-12	5.476889e+00	-2.714448e-03
1.140000e-06	8.128972e-07	2.621371e-12	5.732962e+00	-2.253081e-03
1.150000e-06	8.491286e-07	4.228559e-12	5.988484e+00	-1.465402e-03
1.160000e-06	8.852902e-07	2.785462e-12	6.243514e+00	-7.407806e-04
1.170000e-06	9.213085e-07	-8.496421e-13	6.497533e+00	-3.740283e-04
1.180000e-06	9.571396e-07	-9.468296e-13	6.750232e+00	-4.249883e-04
1.190000e-06	9.927117e-07	2.970565e-12	7.001104e+00	-7.170402e-04
1.200000e-06	1.027898e-06	7.845177e-12	7.249254e+00	-9.611265e-04
1.210000e-06	1.062510e-06	1.056177e-11	7.493359e+00	-9.258843e-04
1.220000e-06	1.096495e-06	1.065542e-11	7.733037e+00	-5.585619e-04
1.230000e-06	1.129981e-06	1.115322e-11	7.969199e+00	9.600613e-07
1.240000e-06	1.162983e-06	1.375213e-11	8.201943e+00	5.065906e-04
1.250000e-06	1.195576e-06	1.443700e-11	8.431805e+00	7.346466e-04
1.260000e-06	1.227913e-06	1.146578e-11	8.659863e+00	5.839572e-04
1.270000e-06	1.260094e-06	9.713403e-12	8.886821e+00	1.044550e-04
1.280000e-06	1.292152e-06	1.154190e-11	9.112909e+00	-5.433723e-04
1.290000e-06	1.323979e-06	1.499149e-11	9.337369e+00	-1.162023e-03
1.300000e-06	1.355434e-06	1.631510e-11	9.559206e+00	-1.582394e-03
1.310000e-06	1.386434e-06	1.550682e-11	9.777832e+00	-1.699883e-03
1.320000e-06	1.417011e-06	1.605385e-11	9.993479e+00	-1.485389e-03
1.330000e-06	1.447225e-06	1.849622e-11	1.020656e+01	-9.867763e-04
1.340000e-06	1.477063e-06	1.919582e-11	1.041699e+01	-3.278764e-04
1.350000e-06	1.506506e-06	1.574051e-11	1.062464e+01	3.048866e-04
1.360000e-06	1.535564e-06	1.226754e-11	1.082957e+01	7.050735e-04
1.370000e-06	1.564226e-06	1.188399e-11	1.103171e+01	7.207731e-04
1.380000e-06	1.592565e-06	1.391278e-11	1.123157e+01	3.355868e-04
1.390000e-06	1.620709e-06	1.548821e-11	1.143006e+01	-2.909069e-04
1.400000e-06	1.648568e-06	1.487298e-11	1.162654e+01	-8.638025e-04
1.410000e-06	1.675878e-06	1.548433e-11	1.181914e+01	-1.076662e-03
1.420000e-06	1.702345e-06	1.765146e-11	1.200580e+01	-7.683532e-04
1.430000e-06	1.727918e-06	1.783466e-11	1.218615e+01	-2.972147e-05
1.440000e-06	1.752781e-06	1.592770e-11	1.236150e+01	8.109887e-04
1.450000e-06	1.777171e-06	1.512971e-11	1.253351e+01	1.336419e-03
1.460000e-06	1.801247e-06	1.527006e-11	1.270330e+01	1.258165e-03
1.470000e-06	1.824883e-06	1.511931e-11	1.287000e+01	5.906766e-04
1.480000e-06	1.847967e-06	1.446821e-11	1.303280e+01	-3.225939e-04
1.490000e-06	1.870542e-06	1.450739e-11	1.319201e+01	-9.623414e-04
1.500000e-06	1.892635e-06	1.681312e-11	1.334782e+01	-8.991749e-04
1.510000e-06	1.914179e-06	1.949871e-11	1.349976e+01	-3.561040e-05
1.520000e-06	1.935125e-06	1.970949e-11	1.364748e+01	1.310541e-03
1.530000e-06	1.955622e-06	1.827384e-11	1.379204e+01	2.538659e-03
1.540000e-06	1.975833e-06	1.614154e-11	1.393457e+01	3.056171e-03
1.550000e-06	1.995685e-06	1.370958e-11	1.407458e+01	2.580816e-03
1.560000e-06	2.014930e-06	1.195498e-11	1.421031e+01	1.294506e-03
1.570000e-06	2.033384e-06	1.077568e-11	1.434045e+01	-2.368001e-04
1.580000e-06	2.051154e-06	1.116719e-11	1.446577e+01	-1.339768e-03
1.590000e-06	2.068453e-06	1.319820e-11	1.458777e+01	-1.564192e-03
1.600000e-06	2.085314e-06	1.465681e-11	1.470669e+01	-8.952616e-04
1.610000e-06	2.101526e-06	1.444253e-11	1.482103e+01	2.611113e-04
1.620000e-06	2.116984e-06	1.340938e-11	1.493004e+01	1.307001e-03
1.630000e-06	2.131796e-06	1.160721e-11	1.503450e+01	1.768994e-03
1.640000e-06	2.146027e-06	9.152048e-12	1.513487e+01	1.533064e-03
1.650000e-06	2.159649e-06	7.258204e-12	1.523093e+01	8.774546e-04
1.660000e-06	2.172574e-06	7.013819e-12	1.532209e+01	2.957272e-04
1.670000e-06	2.184943e-06	9.048186e-12	1.540932e+01	2.149330e-04
1.680000e-06	2.196790e-06	1.086962e-11	1.549287e+01	7.652804e-04
1.690000e-06	2.207802e-06	1.043103e-11	1.557053e+01	1.722049e-03
1.700000e-06	2.217749e-06	7.645945e-12	1.564068e+01	2.641094e-03
1.710000e-06	2.226759e-06	4.337502e-12	1.570423e+01	3.103575e-03
1.720000e-06	2.235160e-06	3.382889e-12	1.576348e+01	2.931778e-03
1.730000e-06	2.243149e-06	3.840126e-12	1.581982e+01	2.262639e-03
1.740000e-06	2.250637e-06	3.917456e-12	1.587263e+01	1.450385e-03
1.750000e-06	2.257532e-06	3.941165e-12	1.592126e+01	8.640299e-04
1.760000e-06	2.263845e-06	4.152822e-12	1.596578e+01	6.967722e-04
1.770000e-06	2.269470e-06	3.612542e-12	1.600545e+01	8.876840e-04
1.780000e-06	2.274379e-06	1.895670e-12	1.604007e+01	1.186272e-03
1.790000e-06	2.278835e-06	-1.699891e-14	1.607150e+01	1.310600e-03
1.800000e-06	2.282947e-06	3.934597e-13	1.610049e+01	1.104744e-03
1.810000e-06	2.286433e-06	3.172882e-12	1.612508e+01	6.124990e-04
1.820000e-06	2.289005e-06	4.167132e-12	1.614322e+01	3.914216e-05
1.830000e-06	2.290592e-06	3.374520e-12	1.615441e+01	-3.640718e-04
1.840000e-06	2.291384e-06	3.313946e-12	1.616000e+01	-4.229007e-04
1.850000e-06	2.291696e-06	3.065197e-12	1.616220e+01	-1.089839e-04
1.860000e-06	2.291573e-06	2.158547e-12	1.616133e+01	4.672474e-04
1.870000e-06	2.290788e-06	9.056234e-13	1.615579e+01	1.118289e-03
1.880000e-06	2.289375e-06	3.854767e-13	1.614583e+01	1.653560e-03
1.890000e-06	2.287498e-06	2.440237e-12	1.613259e+01	1.931879e-03
1.900000e-06	2.285008e-06	1.244086e-11	1.611503e+01	1.883970e-03
1.910000e-06	2.281847e-06	2.272157e-11	1.609274e+01	1.517123e-03
1.920000e-06	2.278280e-06	-2.172136e-11	1.606758e+01	9.156670e-04
1.930000e-06	2.274123e-06	-5.909912e-11	1.603827e+01	2.362001e-04
1.940000e-06	2.268775e-06	3.103065e-11	1.600055e+01	-3.178731e-04
1.950000e-06	2.262301e-06	9.417076e-11	1.595489e+01	-5.553178e-04
1.960000e-06	2.255424e-06	-1.502879e-11	1.590639e+01	-3.796050e-04
1.970000e-06	2.248279e-06	-7.865911e-11	1.585600e+01	1.430214e-04
1.980000e-06	2.240438e-06	3.137064e-11	1.580070e+01	7.781600e-04
1.990000e-06	2.231894e-06	9.692860e-11	1.574044e+01	1.206259e-03
2.000000e-06	2.223017e-06	-4.066885e-11	1.567784e+01	1.171171e-03
2.010000e-06	2.213705e-06	-8.148074e-11	1.561217e+01	6.240805e-04
2.020000e-06	2.203473e-06	4.978723e-11	1.554000e+01	-2.211036e-04
2.030000e-06	2.192514e-06	6.051704e-11	1.546271e+01	-9.688592e-04
2.040000e-06	2.181190e-06	-3.671095e-11	1.538285e+01	-1.235550e-03
2.050000e-06	2.169166e-06	2.295188e-12	1.529805e+01	-8.617632e-04
2.060000e-06	2.156181e-06	5.392779e-11	1.520648e+01	-2.590858e-05
2.070000e-06	2.142360e-06	-4.251545e-11	1.510901e+01	8.166401e-04
2.080000e-06	2.127719e-06	-3.163128e-11	1.500575e+01	1.153919e-03
2.090000e-06	2.112380e-06	7.454346e-11	1.489757e+01	6.907306e-04
2.100000e-06	2.096585e-06	1.935007e-11	1.478618e+01	-4.709158e-04
2.110000e-06	2.080339e-06	-6.758715e-11	1.467160e+01	-1.850377e-03
2.120000e-06	2.063491e-06	3.272221e-11	1.455278e+01	-2.809856e-03
2.130000e-06	2.046039e-06	7.508705e-11	1.442970e+01	-2.871924e-03
2.140000e-06	2.028101e-06	-3.328147e-11	1.430319e+01	-1.968674e-03
2.150000e-06	2.009598e-06	-3.615050e-11	1.417270e+01	-4.883052e-04
2.160000e-06	1.990464e-06	4.342365e-11	1.403776e+01	9.104365e-04
2.170000e-06	1.970918e-06	1.709687e-11	1.389991e+01	1.622243e-03
2.180000e-06	1.951069e-06	-5.842498e-12	1.375992e+01	1.389311e-03
2.190000e-06	1.930667e-06	1.626519e-11	1.361604e+01	4.128836e-04
2.200000e-06	1.909462e-06	-7.380342e-12	1.346649e+01	-7.723882e-04
2.210000e-06	1.887324e-06	-7.391954e-12	1.331036e+01	-1.589277e-03
2.220000e-06	1.864378e-06	3.103187e-11	1.314854e+01	-1.716010e-03
2.230000e-06	1.840932e-06	9.200091e-12	1.298319e+01	-1.234414e-03
2.240000e-06	1.817193e-06	-2.232103e-11	1.281576e+01	-5.566637e-04
2.250000e-06	1.793137e-06	1.149530e-11	1.264611e+01	-1.804535e-04
2.260000e-06	1.768585e-06	2.221964e-11	1.247295e+01	-4.122547e-04
2.270000e-06	1.743474e-06	-1.256373e-13	1.229586e+01	-1.208685e-03
2.280000e-06	1.717897e-06	-1.009956e-11	1.211548e+01	-2.214551e-03
2.290000e-06	1.691887e-06	-7.884955e-12	1.193205e+01	-2.965631e-03
2.300000e-06	1.665357e-06	1.302605e-11	1.174494e+01	-3.137254e-03
2.310000e-06	1.638319e-06	1.925246e-11	1.155425e+01	-2.702567e-03
2.320000e-06	1.610930e-06	-1.089662e-11	1.136109e+01	-1.922448e-03
2.330000e-06	1.583290e-06	-1.327234e-11	1.116616e+01	-1.185523e-03
2.340000e-06	1.555376e-06	1.443328e-11	1.096930e+01	-7.961184e-04
2.350000e-06	1.527071e-06	3.311208e-12	1.076968e+01	-8.277880e-04
2.360000e-06	1.498194e-06	-1.143519e-11	1.056602e+01	-1.114105e-03
2.370000e-06	1.468605e-06	-4.249152e-12	1.035734e+01	-1.367661e-03
2.380000e-06	1.438272e-06	-1.705433e-12	1.014342e+01	-1.350264e-03
2.390000e-06	1.407367e-06	5.643866e-12	9.925465e+00	-9.983879e-04
2.400000e-06	1.376095e-06	1.126712e-11	9.704920e+00	-4.432370e-04
2.410000e-06	1.344552e-06	-3.283090e-12	9.482461e+00	7.153182e-05
2.420000e-06	1.312760e-06	-6.920307e-12	9.258243e+00	3.180528e-04
2.430000e-06	1.280663e-06	8.631872e-12	9.031885e+00	1.872994e-04
2.440000e-06	1.248185e-06	6.629267e-12	8.802832e+00	-2.782256e-04
2.450000e-06	1.215311e-06	-5.393576e-12	8.570990e+00	-9.221152e-04
2.460000e-06	1.182081e-06	-9.354087e-12	8.336636e+00	-1.546975e-03
2.470000e-06	1.148582e-06	-2.144694e-12	8.100377e+00	-1.981032e-03
2.480000e-06	1.114861e-06	5.462080e-12	7.862561e+00	-2.115859e-03
2.490000e-06	1.080845e-06	-8.352285e-14	7.622663e+00	-1.918320e-03
2.500000e-06	1.046484e-06	-9.570003e-12	7.380335e+00	-1.432218e-03
2.510000e-06	1.011767e-06	-5.244176e-12	7.135493e+00	-7.775357e-04
2.520000e-06	9.767044e-07	4.141704e-12	6.888213e+00	-1.381534e-04
2.530000e-06	9.413862e-07	6.995220e-13	6.639131e+00	2.789084e-04
2.540000e-06	9.059074e-07	-8.838899e-12	6.388917e+00	3.167253e-04
2.550000e-06	8.703179e-07	-1.173055e-11	6.137922e+00	-4.981097e-05
2.560000e-06	8.346261e-07	-3.175320e-12	5.886205e+00	-6.701786e-04
2.570000e-06	7.988615e-07	3.352736e-12	5.633975e+00	-1.254110e-03
2.580000e-06	7.630139e-07	-1.840208e-12	5.381160e+00	-1.491824e-03
2.590000e-06	7.269766e-07	-7.139047e-12	5.127006e+00	-1.211074e-03
2.600000e-06	6.906438e-07	-1.880800e-12	4.870769e+00	-4.885594e-04
2.610000e-06	6.539974e-07	2.988332e-12	4.612320e+00	3.572990e-04
2.620000e-06	6.170428e-07	-4.261001e-12	4.351698e+00	9.085651e-04
2.630000e-06	5.797540e-07	-1.035221e-11	4.088718e+00	8.648056e-04
2.640000e-06	5.421111e-07	-5.853666e-12	3.823241e+00	2.222851e-04
2.650000e-06	5.041386e-07	1.973316e-12	3.555440e+00	-6.904948e-04
2.660000e-06	4.659653e-07	3.005031e-12	3.286223e+00	-1.357334e-03
2.670000e-06	4.277401e-07	-1.886610e-12	3.016639e+00	-1.337219e-03
2.680000e-06	3.892758e-07	-4.556577e-12	2.745369e+00	-5.112978e-04
2.690000e-06	3.504607e-07	-2.929488e-12	2.471626e+00	8.230205e-04
2.700000e-06	3.115937e-07	-2.433737e-12	2.197516e+00	2.073611e-03
2.710000e-06	2.727300e-07	-5.598501e-12	1.923430e+00	2.639304e-03
2.720000e-06	2.337459e-07	-4.607049e-12	1.648495e+00	2.215815e-03
2.730000e-06	1.946122e-07	1.780313e-12	1.372503e+00	9.605091e-04
2.740000e-06	1.554200e-07	7.514430e-12	1.096100e+00	-5.752181e-04
2.750000e-06	1.162481e-07	7.514783e-12	8.198402e-01	-1.715150e-03
2.760000e-06	7.704153e-08	3.806138e-12	5.433358e-01	-1.990363e-03
2.770000e-06	3.776611e-08	1.889918e-12	2.663457e-01	-1.361338e-03
2.780000e-06	-1.588585e-09	2.068648e-12	-1.120350e-02	-2.160516e-04
2.790000e-06	-4.090621e-08	6.240285e-13	-2.884913e-01	8.498260e-04
2.800000e-06	-8.013833e-08	-1.672312e-12	-5.651760e-01	1.349084e-03
2.810000e-06	-1.193441e-07	-4.708085e-13	-8.416750e-01	1.145940e-03
2.820000e-06	-1.585341e-07	2.643436e-12	-1.118063e+00	5.008500e-04
2.830000e-06	-1.977221e-07	5.068738e-12	-1.394436e+00	-9.719809e-05
2.840000e-06	-2.368755e-07	4.122795e-12	-1.670566e+00	-2.108108e-04
2.850000e-06	-2.759769e-07	1.250865e-12	-1.946329e+00	3.090933e-04
2.860000e-06	-3.149987e-07	7.484783e-13	-2.221530e+00	1.254588e-03
2.870000e-06	-3.539425e-07	1.903508e-12	-2.496181e+00	2.187373e-03
2.880000e-06	-3.927515e-07	1.299889e-12	-2.769882e+00	2.681049e-03
2.890000e-06	-4.313434e-07	-3.192307e-13	-3.042052e+00	2.541832e-03
2.900000e-06	-4.698154e-07	8.207119e-13	-3.313375e+00	1.891167e-03
2.910000e-06	-5.081737e-07	3.512621e-12	-3.583898e+00	1.076436e-03
2.920000e-06	-5.462157e-07	3.856763e-12	-3.852189e+00	4.712493e-04
2.930000e-06	-5.838823e-07	1.829872e-12	-4.117833e+00	2.812707e-04
2.940000e-06	-6.211961e-07	2.011901e-13	-4.380989e+00	4.585022e-04
2.950000e-06	-6.581649e-07	-8.374448e-13	-4.641712e+00	7.589345e-04
