# Temperatura_=_20.0
# Concentracion g/m^3_=_10000.0
# C_Vs_to_Am_M_A/Vsm_=_65563218390.804596
# pendiente_HvsI_1/m_=_3716.3
# ordenada_HvsI_A/m_=_1297.0
# frecuencia_Hz_=_269813.66338582034

Tiempo_(s)	Campo_(V.s)	Magnetizacion_(V.s)	Campo_(kA/m)	Magnetizacion_(A/m)
0.000000e+00	-2.285902e-06	-4.953609e-09	-1.612750e+01	-3.222358e+02
1.000000e-08	-2.285808e-06	-4.960211e-09	-1.612683e+01	-3.226018e+02
2.000000e-08	-2.285309e-06	-4.964125e-09	-1.612332e+01	-3.228329e+02
3.000000e-08	-2.284244e-06	-4.966099e-09	-1.611580e+01	-3.229490e+02
4.000000e-08	-2.282318e-06	-4.964176e-09	-1.610222e+01	-3.229945e+02
5.000000e-08	-2.279448e-06	-4.956397e-09	-1.608197e+01	-3.230121e+02
6.000000e-08	-2.275777e-06	-4.951473e-09	-1.605607e+01	-3.230168e+02
7.000000e-08	-2.271505e-06	-4.966232e-09	-1.602592e+01	-3.229858e+02
8.000000e-08	-2.266652e-06	-4.981823e-09	-1.599169e+01	-3.228707e+02
9.000000e-08	-2.261075e-06	-4.992283e-09	-1.595234e+01	-3.226258e+02
1.000000e-07	-2.254868e-06	-4.910445e-09	-1.590855e+01	-3.222354e+02
1.100000e-07	-2.248222e-06	-4.900016e-09	-1.586166e+01	-3.217244e+02
1.200000e-07	-2.241061e-06	-4.949611e-09	-1.581114e+01	-3.211458e+02
1.300000e-07	-2.233275e-06	-4.977523e-09	-1.575620e+01	-3.205528e+02
1.400000e-07	-2.224986e-06	-4.880085e-09	-1.569773e+01	-3.199707e+02
1.500000e-07	-2.216230e-06	-4.857526e-09	-1.563595e+01	-3.193850e+02
1.600000e-07	-2.206570e-06	-4.938952e-09	-1.556780e+01	-3.187508e+02
1.700000e-07	-2.195839e-06	-4.930796e-09	-1.549209e+01	-3.180177e+02
1.800000e-07	-2.184374e-06	-4.837721e-09	-1.541120e+01	-3.171553e+02
1.900000e-07	-2.172310e-06	-4.815838e-09	-1.532609e+01	-3.161650e+02
2.000000e-07	-2.159554e-06	-4.876573e-09	-1.523609e+01	-3.150742e+02
2.100000e-07	-2.146096e-06	-4.811284e-09	-1.514114e+01	-3.139177e+02
2.200000e-07	-2.132104e-06	-4.786937e-09	-1.504242e+01	-3.127190e+02
2.300000e-07	-2.117537e-06	-4.799790e-09	-1.493965e+01	-3.114818e+02
2.400000e-07	-2.102121e-06	-4.776598e-09	-1.483088e+01	-3.101947e+02
2.500000e-07	-2.085778e-06	-4.693378e-09	-1.471558e+01	-3.088439e+02
2.600000e-07	-2.068690e-06	-4.724968e-09	-1.459503e+01	-3.074241e+02
2.700000e-07	-2.051089e-06	-4.733247e-09	-1.447084e+01	-3.059408e+02
2.800000e-07	-2.033048e-06	-4.652568e-09	-1.434356e+01	-3.044037e+02
2.900000e-07	-2.014478e-06	-4.609092e-09	-1.421255e+01	-3.028175e+02
3.000000e-07	-1.995264e-06	-4.649900e-09	-1.407699e+01	-3.011778e+02
3.100000e-07	-1.975417e-06	-4.612490e-09	-1.393696e+01	-2.994741e+02
3.200000e-07	-1.955157e-06	-4.544455e-09	-1.379403e+01	-2.976989e+02
3.300000e-07	-1.934542e-06	-4.522680e-09	-1.364859e+01	-2.958546e+02
3.400000e-07	-1.913463e-06	-4.507067e-09	-1.349987e+01	-2.939537e+02
3.500000e-07	-1.891873e-06	-4.489617e-09	-1.334755e+01	-2.920110e+02
3.600000e-07	-1.869741e-06	-4.447629e-09	-1.319140e+01	-2.900337e+02
3.700000e-07	-1.847035e-06	-4.411823e-09	-1.303120e+01	-2.880154e+02
3.800000e-07	-1.823803e-06	-4.362590e-09	-1.286730e+01	-2.859404e+02
3.900000e-07	-1.800109e-06	-4.366409e-09	-1.270013e+01	-2.837940e+02
4.000000e-07	-1.776050e-06	-4.318618e-09	-1.253039e+01	-2.815726e+02
4.100000e-07	-1.751705e-06	-4.274517e-09	-1.235864e+01	-2.792870e+02
4.200000e-07	-1.726933e-06	-4.238461e-09	-1.218386e+01	-2.769546e+02
4.300000e-07	-1.701532e-06	-4.202362e-09	-1.200465e+01	-2.745877e+02
4.400000e-07	-1.675319e-06	-4.173294e-09	-1.181972e+01	-2.721836e+02
4.500000e-07	-1.648313e-06	-4.140565e-09	-1.162918e+01	-2.697260e+02
4.600000e-07	-1.620717e-06	-4.086322e-09	-1.143449e+01	-2.671957e+02
4.700000e-07	-1.592744e-06	-4.032673e-09	-1.123713e+01	-2.645857e+02
4.800000e-07	-1.564510e-06	-4.030660e-09	-1.103793e+01	-2.619081e+02
4.900000e-07	-1.535968e-06	-3.978686e-09	-1.083657e+01	-2.591889e+02
5.000000e-07	-1.507032e-06	-3.917653e-09	-1.063241e+01	-2.564512e+02
5.100000e-07	-1.477598e-06	-3.877665e-09	-1.042475e+01	-2.536971e+02
5.200000e-07	-1.447703e-06	-3.846045e-09	-1.021384e+01	-2.509005e+02
5.300000e-07	-1.417527e-06	-3.794576e-09	-1.000094e+01	-2.480169e+02
5.400000e-07	-1.387045e-06	-3.748295e-09	-9.785881e+00	-2.450062e+02
5.500000e-07	-1.356141e-06	-3.695380e-09	-9.567852e+00	-2.418564e+02
5.600000e-07	-1.324794e-06	-3.639298e-09	-9.346686e+00	-2.385938e+02
5.700000e-07	-1.293072e-06	-3.608193e-09	-9.122882e+00	-2.352729e+02
5.800000e-07	-1.261117e-06	-3.554532e-09	-8.897437e+00	-2.319494e+02
5.900000e-07	-1.229000e-06	-3.491614e-09	-8.670845e+00	-2.286527e+02
6.000000e-07	-1.196695e-06	-3.434887e-09	-8.442922e+00	-2.253697e+02
6.100000e-07	-1.164055e-06	-3.395442e-09	-8.212641e+00	-2.220532e+02
6.200000e-07	-1.130964e-06	-3.344585e-09	-7.979178e+00	-2.186461e+02
6.300000e-07	-1.097380e-06	-3.285963e-09	-7.742238e+00	-2.151122e+02
6.400000e-07	-1.063372e-06	-3.223837e-09	-7.502305e+00	-2.114544e+02
6.500000e-07	-1.028928e-06	-3.170009e-09	-7.259291e+00	-2.077123e+02
6.600000e-07	-9.938377e-07	-3.122017e-09	-7.011726e+00	-2.039402e+02
6.700000e-07	-9.582111e-07	-3.056449e-09	-6.760372e+00	-2.001794e+02
6.800000e-07	-9.223110e-07	-2.992378e-09	-6.507091e+00	-1.964380e+02
6.900000e-07	-8.862546e-07	-2.934540e-09	-6.252705e+00	-1.926886e+02
7.000000e-07	-8.501147e-07	-2.884657e-09	-5.997731e+00	-1.888840e+02
7.100000e-07	-8.138605e-07	-2.823512e-09	-5.741950e+00	-1.849811e+02
7.200000e-07	-7.774624e-07	-2.754588e-09	-5.485154e+00	-1.809604e+02
7.300000e-07	-7.409230e-07	-2.686899e-09	-5.227361e+00	-1.768326e+02
7.400000e-07	-7.042381e-07	-2.627148e-09	-4.968542e+00	-1.726306e+02
7.500000e-07	-6.673268e-07	-2.567853e-09	-4.708125e+00	-1.683928e+02
7.600000e-07	-6.301128e-07	-2.494947e-09	-4.445573e+00	-1.641461e+02
7.700000e-07	-5.926930e-07	-2.424156e-09	-4.181569e+00	-1.598963e+02
7.800000e-07	-5.550739e-07	-2.359911e-09	-3.916159e+00	-1.556285e+02
7.900000e-07	-5.172752e-07	-2.298010e-09	-3.649481e+00	-1.513144e+02
8.000000e-07	-4.793872e-07	-2.225545e-09	-3.382173e+00	-1.469237e+02
8.100000e-07	-4.413885e-07	-2.149873e-09	-3.114085e+00	-1.424347e+02
8.200000e-07	-4.032578e-07	-2.078998e-09	-2.845065e+00	-1.378415e+02
8.300000e-07	-3.650750e-07	-2.012020e-09	-2.575678e+00	-1.331559e+02
8.400000e-07	-3.268870e-07	-1.942409e-09	-2.306254e+00	-1.284037e+02
8.500000e-07	-2.886070e-07	-1.863335e-09	-2.036181e+00	-1.236155e+02
8.600000e-07	-2.501846e-07	-1.787444e-09	-1.765103e+00	-1.188148e+02
8.700000e-07	-2.117431e-07	-1.713540e-09	-1.493890e+00	-1.140059e+02
8.800000e-07	-1.733124e-07	-1.640008e-09	-1.222754e+00	-1.091700e+02
8.900000e-07	-1.348371e-07	-1.560458e-09	-9.513028e-01	-1.042706e+02
9.000000e-07	-9.633011e-08	-1.479057e-09	-6.796284e-01	-9.926868e+01
9.100000e-07	-5.776714e-08	-1.401640e-09	-4.075588e-01	-9.414189e+01
9.200000e-07	-1.919918e-08	-1.326298e-09	-1.354541e-01	-8.889697e+01
9.300000e-07	1.933812e-08	-1.247514e-09	1.364343e-01	-8.356904e+01
9.400000e-07	5.786421e-08	-1.162253e-09	4.082437e-01	-7.820575e+01
9.500000e-07	9.641269e-08	-1.079529e-09	6.802110e-01	-7.284356e+01
9.600000e-07	1.349507e-07	-9.985727e-10	9.521042e-01	-6.748840e+01
9.700000e-07	1.734479e-07	-9.173051e-10	1.223710e+00	-6.211167e+01
9.800000e-07	2.119262e-07	-8.308701e-10	1.495182e+00	-5.666469e+01
9.900000e-07	2.503662e-07	-7.447304e-10	1.766384e+00	-5.110450e+01
1.000000e-06	2.887284e-07	-6.592163e-10	2.037037e+00	-4.541734e+01
1.010000e-06	3.270175e-07	-5.724114e-10	2.307174e+00	-3.962647e+01
1.020000e-06	3.652591e-07	-4.832781e-10	2.576977e+00	-3.377976e+01
1.030000e-06	4.034467e-07	-3.919780e-10	2.846398e+00	-2.792371e+01
1.040000e-06	4.415806e-07	-3.026688e-10	3.115440e+00	-2.207836e+01
1.050000e-06	4.795649e-07	-2.123366e-10	3.383427e+00	-1.622731e+01
1.060000e-06	5.174047e-07	-1.210130e-10	3.650395e+00	-1.032823e+01
1.070000e-06	5.551389e-07	-2.788180e-11	3.916617e+00	-4.337967e+00
1.080000e-06	5.926756e-07	6.470049e-11	4.181446e+00	1.762410e+00
1.090000e-06	6.299927e-07	1.567159e-10	4.444725e+00	7.956672e+00
1.100000e-06	6.670676e-07	2.492028e-10	4.706297e+00	1.420254e+01
1.110000e-06	7.038488e-07	3.435135e-10	4.965796e+00	2.045508e+01
1.120000e-06	7.403985e-07	4.378524e-10	5.223661e+00	2.669077e+01
1.130000e-06	7.768272e-07	5.322347e-10	5.480673e+00	3.291848e+01
1.140000e-06	8.131427e-07	6.297652e-10	5.736886e+00	3.917192e+01
1.150000e-06	8.493694e-07	7.266673e-10	5.992473e+00	4.548845e+01
1.160000e-06	8.855110e-07	8.247750e-10	6.247459e+00	5.188695e+01
1.170000e-06	9.215204e-07	9.233067e-10	6.501513e+00	5.835669e+01
1.180000e-06	9.573434e-07	1.022971e-09	6.754251e+00	6.486262e+01
1.190000e-06	9.928422e-07	1.121616e-09	7.004702e+00	7.136249e+01
1.200000e-06	1.027838e-06	1.220162e-09	7.251607e+00	7.782539e+01
1.210000e-06	1.062315e-06	1.317583e-09	7.494846e+00	8.424177e+01
1.220000e-06	1.096293e-06	1.413698e-09	7.734567e+00	9.062093e+01
1.230000e-06	1.129753e-06	1.511379e-09	7.970637e+00	9.697952e+01
1.240000e-06	1.162712e-06	1.609389e-09	8.203170e+00	1.033292e+02
1.250000e-06	1.195307e-06	1.707274e-09	8.433129e+00	1.096701e+02
1.260000e-06	1.227689e-06	1.803144e-09	8.661592e+00	1.159923e+02
1.270000e-06	1.259888e-06	1.898211e-09	8.888766e+00	1.222821e+02
1.280000e-06	1.291922e-06	1.991762e-09	9.114769e+00	1.285276e+02
1.290000e-06	1.323706e-06	2.084418e-09	9.339016e+00	1.347203e+02
1.300000e-06	1.355121e-06	2.175931e-09	9.560654e+00	1.408534e+02
1.310000e-06	1.386095e-06	2.268112e-09	9.779177e+00	1.469201e+02
1.320000e-06	1.416699e-06	2.360332e-09	9.995100e+00	1.529144e+02
1.330000e-06	1.446929e-06	2.451035e-09	1.020838e+01	1.588349e+02
1.340000e-06	1.476755e-06	2.539906e-09	1.041880e+01	1.646866e+02
1.350000e-06	1.506158e-06	2.626432e-09	1.062625e+01	1.704798e+02
1.360000e-06	1.535090e-06	2.711668e-09	1.083037e+01	1.762215e+02
1.370000e-06	1.563654e-06	2.796063e-09	1.103190e+01	1.819075e+02
1.380000e-06	1.591978e-06	2.880880e-09	1.123173e+01	1.875179e+02
1.390000e-06	1.620062e-06	2.964953e-09	1.142986e+01	1.930223e+02
1.400000e-06	1.647798e-06	3.046358e-09	1.162555e+01	1.983936e+02
1.410000e-06	1.674983e-06	3.125290e-09	1.181734e+01	2.036218e+02
1.420000e-06	1.701410e-06	3.203030e-09	1.200379e+01	2.087215e+02
1.430000e-06	1.726991e-06	3.280313e-09	1.218427e+01	2.137249e+02
1.440000e-06	1.751835e-06	3.355992e-09	1.235955e+01	2.186645e+02
1.450000e-06	1.776202e-06	3.429353e-09	1.253146e+01	2.235542e+02
1.460000e-06	1.800196e-06	3.501335e-09	1.270075e+01	2.283795e+02
1.470000e-06	1.823772e-06	3.572582e-09	1.286708e+01	2.331040e+02
1.480000e-06	1.846897e-06	3.641376e-09	1.303023e+01	2.376880e+02
1.490000e-06	1.869494e-06	3.707445e-09	1.318966e+01	2.421100e+02
1.500000e-06	1.891556e-06	3.772961e-09	1.334531e+01	2.463774e+02
1.510000e-06	1.913156e-06	3.838550e-09	1.349770e+01	2.505205e+02
1.520000e-06	1.934205e-06	3.901262e-09	1.364621e+01	2.545734e+02
1.530000e-06	1.954732e-06	3.959840e-09	1.379103e+01	2.585537e+02
1.540000e-06	1.974937e-06	4.016665e-09	1.393358e+01	2.624514e+02
1.550000e-06	1.994801e-06	4.072827e-09	1.407372e+01	2.662350e+02
1.560000e-06	2.014043e-06	4.126511e-09	1.420948e+01	2.698699e+02
1.570000e-06	2.032517e-06	4.176179e-09	1.433982e+01	2.733372e+02
1.580000e-06	2.050328e-06	4.223721e-09	1.446548e+01	2.766419e+02
1.590000e-06	2.067624e-06	4.271359e-09	1.458750e+01	2.798065e+02
1.600000e-06	2.084434e-06	4.316789e-09	1.470610e+01	2.828536e+02
1.610000e-06	2.100634e-06	4.358041e-09	1.482040e+01	2.857916e+02
1.620000e-06	2.116073e-06	4.397336e-09	1.492932e+01	2.886102e+02
1.630000e-06	2.130798e-06	4.436379e-09	1.503321e+01	2.912905e+02
1.640000e-06	2.144971e-06	4.473093e-09	1.513321e+01	2.938208e+02
1.650000e-06	2.158574e-06	4.506480e-09	1.522917e+01	2.962080e+02
1.660000e-06	2.171554e-06	4.537625e-09	1.532076e+01	2.984765e+02
1.670000e-06	2.183922e-06	4.569182e-09	1.540801e+01	3.006533e+02
1.680000e-06	2.195712e-06	4.600033e-09	1.549119e+01	3.027516e+02
1.690000e-06	2.206757e-06	4.626971e-09	1.556912e+01	3.047615e+02
1.700000e-06	2.216824e-06	4.651050e-09	1.564014e+01	3.066560e+02
1.710000e-06	2.225962e-06	4.674108e-09	1.570461e+01	3.084089e+02
1.720000e-06	2.234447e-06	4.697217e-09	1.576447e+01	3.100132e+02
1.730000e-06	2.242506e-06	4.718884e-09	1.582133e+01	3.114878e+02
1.740000e-06	2.250031e-06	4.737924e-09	1.587442e+01	3.128681e+02
1.750000e-06	2.256894e-06	4.756032e-09	1.592284e+01	3.141851e+02
1.760000e-06	2.263133e-06	4.775219e-09	1.596686e+01	3.154476e+02
1.770000e-06	2.268751e-06	4.793192e-09	1.600650e+01	3.166365e+02
1.780000e-06	2.273721e-06	4.807962e-09	1.604156e+01	3.177186e+02
1.790000e-06	2.278160e-06	4.820580e-09	1.607288e+01	3.186686e+02
1.800000e-06	2.282171e-06	4.832981e-09	1.610117e+01	3.194874e+02
1.810000e-06	2.285584e-06	4.846112e-09	1.612525e+01	3.202039e+02
1.820000e-06	2.288129e-06	4.856688e-09	1.614321e+01	3.208589e+02
1.830000e-06	2.289729e-06	4.864522e-09	1.615450e+01	3.214806e+02
1.840000e-06	2.290548e-06	4.872137e-09	1.616028e+01	3.220666e+02
1.850000e-06	2.290820e-06	4.880313e-09	1.616220e+01	3.225855e+02
1.860000e-06	2.290622e-06	4.887575e-09	1.616080e+01	3.229956e+02
1.870000e-06	2.289840e-06	4.892052e-09	1.615529e+01	3.232720e+02
1.880000e-06	2.288440e-06	4.894169e-09	1.614541e+01	3.234231e+02
1.890000e-06	2.286468e-06	4.897301e-09	1.613150e+01	3.234876e+02
1.900000e-06	2.283881e-06	4.907530e-09	1.611324e+01	3.235119e+02
1.910000e-06	2.280717e-06	4.908214e-09	1.609092e+01	3.235224e+02
1.920000e-06	2.277117e-06	4.890953e-09	1.606552e+01	3.235088e+02
1.930000e-06	2.272898e-06	4.878869e-09	1.603576e+01	3.234284e+02
1.940000e-06	2.267645e-06	4.853271e-09	1.599870e+01	3.232313e+02
1.950000e-06	2.261231e-06	4.956076e-09	1.595344e+01	3.228895e+02
1.960000e-06	2.254251e-06	4.893968e-09	1.590420e+01	3.224145e+02
1.970000e-06	2.247084e-06	4.849175e-09	1.585363e+01	3.218527e+02
1.980000e-06	2.239289e-06	4.835212e-09	1.579864e+01	3.212608e+02
1.990000e-06	2.230706e-06	4.911905e-09	1.573808e+01	3.206756e+02
2.000000e-06	2.221745e-06	4.874715e-09	1.567486e+01	3.200958e+02
2.010000e-06	2.212454e-06	4.771673e-09	1.560931e+01	3.194845e+02
2.020000e-06	2.202340e-06	4.813122e-09	1.553795e+01	3.187900e+02
2.030000e-06	2.191370e-06	4.858672e-09	1.546055e+01	3.179730e+02
2.040000e-06	2.179960e-06	4.824751e-09	1.538006e+01	3.170242e+02
2.050000e-06	2.168055e-06	4.733191e-09	1.529606e+01	3.159638e+02
2.060000e-06	2.155152e-06	4.802572e-09	1.520503e+01	3.148266e+02
2.070000e-06	2.141241e-06	4.766131e-09	1.510689e+01	3.136414e+02
2.080000e-06	2.126647e-06	4.705473e-09	1.500392e+01	3.124186e+02
2.090000e-06	2.111405e-06	4.707911e-09	1.489639e+01	3.111507e+02
2.100000e-06	2.095592e-06	4.750236e-09	1.478482e+01	3.098231e+02
2.110000e-06	2.079372e-06	4.652017e-09	1.467039e+01	3.084271e+02
2.120000e-06	2.062566e-06	4.620062e-09	1.455182e+01	3.069648e+02
2.130000e-06	2.045051e-06	4.663325e-09	1.442825e+01	3.054455e+02
2.140000e-06	2.027034e-06	4.636232e-09	1.430113e+01	3.038765e+02
2.150000e-06	2.008535e-06	4.538193e-09	1.417062e+01	3.022565e+02
2.160000e-06	1.989416e-06	4.552287e-09	1.403573e+01	3.005762e+02
2.170000e-06	1.969837e-06	4.569740e-09	1.389760e+01	2.988260e+02
2.180000e-06	1.949947e-06	4.509297e-09	1.375727e+01	2.970046e+02
2.190000e-06	1.929536e-06	4.471604e-09	1.361327e+01	2.951216e+02
2.200000e-06	1.908367e-06	4.438682e-09	1.346391e+01	2.931924e+02
2.210000e-06	1.886328e-06	4.419227e-09	1.330842e+01	2.912275e+02
2.220000e-06	1.863461e-06	4.400580e-09	1.314709e+01	2.892251e+02
2.230000e-06	1.840030e-06	4.368900e-09	1.298178e+01	2.871718e+02
2.240000e-06	1.816301e-06	4.307492e-09	1.281437e+01	2.850512e+02
2.250000e-06	1.792274e-06	4.300516e-09	1.264485e+01	2.828551e+02
2.260000e-06	1.767752e-06	4.274083e-09	1.247184e+01	2.805899e+02
2.270000e-06	1.742642e-06	4.212562e-09	1.229469e+01	2.782721e+02
2.280000e-06	1.717012e-06	4.190977e-09	1.211386e+01	2.759170e+02
2.290000e-06	1.690941e-06	4.158589e-09	1.192993e+01	2.735275e+02
2.300000e-06	1.664405e-06	4.109855e-09	1.174271e+01	2.710908e+02
2.310000e-06	1.637363e-06	4.093830e-09	1.155193e+01	2.685873e+02
2.320000e-06	1.609941e-06	4.053811e-09	1.135846e+01	2.660043e+02
2.330000e-06	1.582278e-06	3.974896e-09	1.116329e+01	2.633476e+02
2.340000e-06	1.554390e-06	3.954843e-09	1.096654e+01	2.606401e+02
2.350000e-06	1.526182e-06	3.932836e-09	1.076752e+01	2.579078e+02
2.360000e-06	1.497429e-06	3.870176e-09	1.056466e+01	2.551616e+02
2.370000e-06	1.467961e-06	3.836871e-09	1.035676e+01	2.523844e+02
2.380000e-06	1.437757e-06	3.800173e-09	1.014366e+01	2.495359e+02
2.390000e-06	1.406918e-06	3.748212e-09	9.926092e+00	2.465715e+02
2.400000e-06	1.375636e-06	3.709164e-09	9.705388e+00	2.434679e+02
2.410000e-06	1.344087e-06	3.656533e-09	9.482803e+00	2.402387e+02
2.420000e-06	1.312342e-06	3.590194e-09	9.258840e+00	2.369312e+02
2.430000e-06	1.280321e-06	3.556431e-09	9.032920e+00	2.336044e+02
2.440000e-06	1.247897e-06	3.513889e-09	8.804164e+00	2.302989e+02
2.450000e-06	1.215039e-06	3.454556e-09	8.572343e+00	2.270162e+02
2.460000e-06	1.181887e-06	3.405501e-09	8.338451e+00	2.237182e+02
2.470000e-06	1.148474e-06	3.352763e-09	8.102719e+00	2.203477e+02
2.480000e-06	1.114792e-06	3.304629e-09	7.865080e+00	2.168587e+02
2.490000e-06	1.080813e-06	3.253230e-09	7.625351e+00	2.132403e+02
2.500000e-06	1.046434e-06	3.188884e-09	7.382804e+00	2.095212e+02
2.510000e-06	1.011753e-06	3.129081e-09	7.138124e+00	2.057541e+02
2.520000e-06	9.768058e-07	3.084087e-09	6.891562e+00	2.019877e+02
2.530000e-06	9.415663e-07	3.026025e-09	6.642941e+00	1.982421e+02
2.540000e-06	9.061133e-07	2.964246e-09	6.392812e+00	1.945010e+02
2.550000e-06	8.705196e-07	2.907071e-09	6.141692e+00	1.907211e+02
2.560000e-06	8.348467e-07	2.851103e-09	5.890012e+00	1.868555e+02
2.570000e-06	7.991062e-07	2.797319e-09	5.637855e+00	1.828751e+02
2.580000e-06	7.632568e-07	2.733692e-09	5.384931e+00	1.787810e+02
2.590000e-06	7.272238e-07	2.665378e-09	5.130711e+00	1.746003e+02
2.600000e-06	6.909587e-07	2.603290e-09	4.874853e+00	1.703714e+02
2.610000e-06	6.543638e-07	2.546083e-09	4.616669e+00	1.661267e+02
2.620000e-06	6.173989e-07	2.480463e-09	4.355874e+00	1.618796e+02
2.630000e-06	5.801424e-07	2.413047e-09	4.093022e+00	1.576213e+02
2.640000e-06	5.425942e-07	2.350746e-09	3.828111e+00	1.533270e+02
2.650000e-06	5.047299e-07	2.290358e-09	3.560971e+00	1.489657e+02
2.660000e-06	4.665574e-07	2.226311e-09	3.291657e+00	1.445119e+02
2.670000e-06	4.281537e-07	2.155409e-09	3.020711e+00	1.399538e+02
2.680000e-06	3.895961e-07	2.083547e-09	2.748679e+00	1.352976e+02
2.690000e-06	3.508844e-07	2.011541e-09	2.475560e+00	1.305650e+02
2.700000e-06	3.120485e-07	1.940495e-09	2.201565e+00	1.257864e+02
2.710000e-06	2.730968e-07	1.867066e-09	1.926753e+00	1.209891e+02
2.720000e-06	2.340120e-07	1.794971e-09	1.651002e+00	1.161847e+02
2.730000e-06	1.948462e-07	1.725337e-09	1.374679e+00	1.113622e+02
2.740000e-06	1.556060e-07	1.656355e-09	1.097832e+00	1.064894e+02
2.750000e-06	1.163153e-07	1.583726e-09	8.206280e-01	1.015261e+02
2.760000e-06	7.701626e-08	1.503569e-09	5.433653e-01	9.644267e+01
2.770000e-06	3.767994e-08	1.421231e-09	2.658396e-01	9.123528e+01
2.780000e-06	-1.643681e-09	1.340175e-09	-1.159650e-02	8.593075e+01
2.790000e-06	-4.096086e-08	1.261027e-09	-2.889872e-01	8.057500e+01
2.800000e-06	-8.032254e-08	1.177988e-09	-5.666918e-01	7.521086e+01
2.810000e-06	-1.196778e-07	1.094757e-09	-8.443509e-01	6.985581e+01
2.820000e-06	-1.589594e-07	1.015092e-09	-1.121491e+00	6.449203e+01
2.830000e-06	-1.981723e-07	9.365208e-10	-1.398145e+00	5.907494e+01
2.840000e-06	-2.373728e-07	8.527703e-10	-1.674713e+00	5.355666e+01
2.850000e-06	-2.765134e-07	7.623209e-10	-1.950858e+00	4.791186e+01
2.860000e-06	-3.155869e-07	6.732276e-10	-2.226529e+00	4.215186e+01
2.870000e-06	-3.545742e-07	5.871883e-10	-2.501592e+00	3.631879e+01
2.880000e-06	-3.934107e-07	5.009696e-10	-2.775592e+00	3.046277e+01
2.890000e-06	-4.320545e-07	4.106777e-10	-3.048232e+00	2.461476e+01
2.900000e-06	-4.704759e-07	3.205597e-10	-3.319303e+00	1.877031e+01
2.910000e-06	-5.087033e-07	2.331273e-10	-3.589005e+00	1.289343e+01
2.920000e-06	-5.466422e-07	1.441327e-10	-3.856671e+00	6.938129e+00
2.930000e-06	-5.842477e-07	5.120054e-11	-4.121986e+00	8.752475e-01
2.940000e-06	-6.215815e-07	-4.525855e-11	-4.385383e+00	-5.290670e+00
2.950000e-06	-6.585727e-07	-1.418495e-10	-4.646363e+00	-1.152390e+01
