# Temperatura_=_20.0
# Concentracion g/m^3_=_10000.0
# C_Vs_to_Am_M_A/Vsm_=_65563218390.804596
# pendiente_HvsI_1/m_=_3716.3
# ordenada_HvsI_A/m_=_1297.0
# frecuencia_Hz_=_269721.67719486036

Tiempo_(s)	Campo_(V.s)	Magnetizacion_(V.s)	Campo_(kA/m)	Magnetizacion_(A/m)
0.000000e+00	-9.127887e-07	-1.400548e-09	-6.860281e+00	-9.076804e+01
1.000000e-08	-9.125749e-07	-1.403426e-09	-6.858674e+00	-9.079286e+01
2.000000e-08	-9.120905e-07	-1.401805e-09	-6.855034e+00	-9.079631e+01
3.000000e-08	-9.114026e-07	-1.404256e-09	-6.849864e+00	-9.079388e+01
4.000000e-08	-9.104765e-07	-1.422666e-09	-6.842903e+00	-9.079384e+01
5.000000e-08	-9.093364e-07	-1.417418e-09	-6.834335e+00	-9.079068e+01
6.000000e-08	-9.080955e-07	-1.371609e-09	-6.825008e+00	-9.076514e+01
7.000000e-08	-9.065683e-07	-1.391882e-09	-6.813530e+00	-9.069177e+01
8.000000e-08	-9.046014e-07	-1.391997e-09	-6.798747e+00	-9.055085e+01
9.000000e-08	-9.022954e-07	-1.384717e-09	-6.781416e+00	-9.033868e+01
1.000000e-07	-8.996287e-07	-1.411447e-09	-6.761374e+00	-9.007054e+01
1.100000e-07	-8.966482e-07	-1.370556e-09	-6.738973e+00	-8.977447e+01
1.200000e-07	-8.935441e-07	-1.363294e-09	-6.715643e+00	-8.947877e+01
1.300000e-07	-8.903504e-07	-1.375548e-09	-6.691641e+00	-8.919956e+01
1.400000e-07	-8.869424e-07	-1.380483e-09	-6.666027e+00	-8.893455e+01
1.500000e-07	-8.832200e-07	-1.369909e-09	-6.638051e+00	-8.866595e+01
1.600000e-07	-8.792228e-07	-1.331802e-09	-6.608009e+00	-8.837032e+01
1.700000e-07	-8.750155e-07	-1.339553e-09	-6.576388e+00	-8.802982e+01
1.800000e-07	-8.705430e-07	-1.356230e-09	-6.542773e+00	-8.763913e+01
1.900000e-07	-8.657907e-07	-1.355688e-09	-6.507056e+00	-8.720513e+01
2.000000e-07	-8.608093e-07	-1.316364e-09	-6.469617e+00	-8.674057e+01
2.100000e-07	-8.555850e-07	-1.299137e-09	-6.430353e+00	-8.625634e+01
2.200000e-07	-8.500578e-07	-1.311809e-09	-6.388812e+00	-8.575647e+01
2.300000e-07	-8.442222e-07	-1.318913e-09	-6.344953e+00	-8.523818e+01
2.400000e-07	-8.381486e-07	-1.303067e-09	-6.299306e+00	-8.469558e+01
2.500000e-07	-8.318937e-07	-1.274353e-09	-6.252295e+00	-8.412398e+01
2.600000e-07	-8.253974e-07	-1.271749e-09	-6.203471e+00	-8.352185e+01
2.700000e-07	-8.186130e-07	-1.269558e-09	-6.152481e+00	-8.288976e+01
2.800000e-07	-8.116023e-07	-1.257020e-09	-6.099790e+00	-8.222809e+01
2.900000e-07	-8.044044e-07	-1.233947e-09	-6.045693e+00	-8.153590e+01
3.000000e-07	-7.969522e-07	-1.228329e-09	-5.989684e+00	-8.081219e+01
3.100000e-07	-7.891934e-07	-1.223282e-09	-5.931371e+00	-8.005879e+01
3.200000e-07	-7.811728e-07	-1.215216e-09	-5.871090e+00	-7.928223e+01
3.300000e-07	-7.729457e-07	-1.196049e-09	-5.809258e+00	-7.849244e+01
3.400000e-07	-7.645194e-07	-1.178245e-09	-5.745928e+00	-7.769811e+01
3.500000e-07	-7.558622e-07	-1.160978e-09	-5.680863e+00	-7.690117e+01
3.600000e-07	-7.470141e-07	-1.154447e-09	-5.614362e+00	-7.609394e+01
3.700000e-07	-7.380021e-07	-1.150719e-09	-5.546630e+00	-7.526146e+01
3.800000e-07	-7.287577e-07	-1.134216e-09	-5.477152e+00	-7.438838e+01
3.900000e-07	-7.192552e-07	-1.108053e-09	-5.405734e+00	-7.346714e+01
4.000000e-07	-7.095667e-07	-1.091347e-09	-5.332918e+00	-7.250279e+01
4.100000e-07	-6.997213e-07	-1.089118e-09	-5.258922e+00	-7.151143e+01
4.200000e-07	-6.896638e-07	-1.073924e-09	-5.183333e+00	-7.051277e+01
4.300000e-07	-6.793617e-07	-1.046202e-09	-5.105905e+00	-6.952049e+01
4.400000e-07	-6.688681e-07	-1.027616e-09	-5.027037e+00	-6.853536e+01
4.500000e-07	-6.582208e-07	-1.027268e-09	-4.947015e+00	-6.754471e+01
4.600000e-07	-6.473933e-07	-1.013153e-09	-4.865638e+00	-6.652845e+01
4.700000e-07	-6.363709e-07	-9.813392e-10	-4.782797e+00	-6.546849e+01
4.800000e-07	-6.251611e-07	-9.568600e-10	-4.698547e+00	-6.435689e+01
4.900000e-07	-6.137660e-07	-9.483773e-10	-4.612905e+00	-6.319908e+01
5.000000e-07	-6.021715e-07	-9.354522e-10	-4.525764e+00	-6.201115e+01
5.100000e-07	-5.903920e-07	-9.103402e-10	-4.437232e+00	-6.081298e+01
5.200000e-07	-5.784522e-07	-8.878290e-10	-4.347495e+00	-5.962078e+01
5.300000e-07	-5.663641e-07	-8.694816e-10	-4.256644e+00	-5.844196e+01
5.400000e-07	-5.541086e-07	-8.516758e-10	-4.164536e+00	-5.727394e+01
5.500000e-07	-5.416809e-07	-8.327918e-10	-4.071132e+00	-5.610654e+01
5.600000e-07	-5.291036e-07	-8.134190e-10	-3.976604e+00	-5.492647e+01
5.700000e-07	-5.163781e-07	-7.926500e-10	-3.880963e+00	-5.372230e+01
5.800000e-07	-5.035227e-07	-7.748193e-10	-3.784345e+00	-5.248838e+01
5.900000e-07	-4.905413e-07	-7.595796e-10	-3.686780e+00	-5.122689e+01
6.000000e-07	-4.773965e-07	-7.399297e-10	-3.587987e+00	-4.994739e+01
6.100000e-07	-4.640892e-07	-7.145457e-10	-3.487973e+00	-4.866360e+01
6.200000e-07	-4.506581e-07	-6.928968e-10	-3.387028e+00	-4.738813e+01
6.300000e-07	-4.371209e-07	-6.789507e-10	-3.285286e+00	-4.612698e+01
6.400000e-07	-4.234639e-07	-6.623132e-10	-3.182644e+00	-4.487613e+01
6.500000e-07	-4.096730e-07	-6.383194e-10	-3.078995e+00	-4.362231e+01
6.600000e-07	-3.957350e-07	-6.147409e-10	-2.974240e+00	-4.234832e+01
6.700000e-07	-3.816654e-07	-5.976186e-10	-2.868497e+00	-4.104078e+01
6.800000e-07	-3.674887e-07	-5.805402e-10	-2.761949e+00	-3.969673e+01
6.900000e-07	-3.531864e-07	-5.567283e-10	-2.654457e+00	-3.832532e+01
7.000000e-07	-3.387377e-07	-5.312826e-10	-2.545864e+00	-3.694347e+01
7.100000e-07	-3.241757e-07	-5.116157e-10	-2.436420e+00	-3.556741e+01
7.200000e-07	-3.095524e-07	-4.943253e-10	-2.326515e+00	-3.420455e+01
7.300000e-07	-2.948539e-07	-4.723916e-10	-2.216045e+00	-3.285008e+01
7.400000e-07	-2.800608e-07	-4.475408e-10	-2.104863e+00	-3.149032e+01
7.500000e-07	-2.651903e-07	-4.261878e-10	-1.993101e+00	-3.011052e+01
7.600000e-07	-2.502651e-07	-4.080914e-10	-1.880927e+00	-2.870275e+01
7.700000e-07	-2.352856e-07	-3.863019e-10	-1.768345e+00	-2.726900e+01
7.800000e-07	-2.202462e-07	-3.595916e-10	-1.655313e+00	-2.581806e+01
7.900000e-07	-2.051536e-07	-3.351970e-10	-1.541881e+00	-2.435855e+01
8.000000e-07	-1.900012e-07	-3.158557e-10	-1.427999e+00	-2.289285e+01
8.100000e-07	-1.747946e-07	-2.947120e-10	-1.313710e+00	-2.141646e+01
8.200000e-07	-1.595417e-07	-2.691919e-10	-1.199073e+00	-1.992317e+01
8.300000e-07	-1.442533e-07	-2.443346e-10	-1.084170e+00	-1.841249e+01
8.400000e-07	-1.289412e-07	-2.232790e-10	-9.690882e-01	-1.689398e+01
8.500000e-07	-1.136013e-07	-2.032796e-10	-8.537977e-01	-1.538429e+01
8.600000e-07	-9.821542e-08	-1.808289e-10	-7.381614e-01	-1.389796e+01
8.700000e-07	-8.277981e-08	-1.574635e-10	-6.221514e-01	-1.243717e+01
8.800000e-07	-6.730890e-08	-1.356247e-10	-5.058761e-01	-1.098739e+01
8.900000e-07	-5.182323e-08	-1.148877e-10	-3.894898e-01	-9.522827e+00
9.000000e-07	-3.633650e-08	-9.342159e-11	-2.730956e-01	-8.019871e+00
9.100000e-07	-2.083419e-08	-6.925488e-11	-1.565843e-01	-6.471174e+00
9.200000e-07	-5.309789e-09	-4.532415e-11	-3.990698e-02	-4.891901e+00
9.300000e-07	1.021775e-08	-2.431446e-11	7.679395e-02	-3.313486e+00
9.400000e-07	2.573668e-08	-3.171946e-12	1.934302e-01	-1.767433e+00
9.500000e-07	4.124604e-08	2.080354e-11	3.099944e-01	-2.678397e-01
9.600000e-07	5.673591e-08	4.557763e-11	4.264123e-01	1.197237e+00
9.700000e-07	7.220035e-08	6.669869e-11	5.426389e-01	2.660096e+00
9.800000e-07	8.762835e-08	8.733456e-11	6.585918e-01	4.155940e+00
9.900000e-07	1.030170e-07	1.110183e-10	7.742485e-01	5.703176e+00
1.000000e-06	1.183760e-07	1.355541e-10	8.896832e-01	7.292595e+00
1.010000e-06	1.337068e-07	1.584041e-10	1.004905e+00	8.891735e+00
1.020000e-06	1.490067e-07	1.795130e-10	1.119895e+00	1.046216e+01
1.030000e-06	1.642664e-07	2.001916e-10	1.234583e+00	1.198003e+01
1.040000e-06	1.794765e-07	2.222621e-10	1.348898e+00	1.344850e+01
1.050000e-06	1.946335e-07	2.440663e-10	1.462814e+00	1.489517e+01
1.060000e-06	2.097377e-07	2.641682e-10	1.576333e+00	1.635651e+01
1.070000e-06	2.247888e-07	2.860111e-10	1.689454e+00	1.785814e+01
1.080000e-06	2.397834e-07	3.100045e-10	1.802150e+00	1.940222e+01
1.090000e-06	2.547229e-07	3.353177e-10	1.914431e+00	2.096814e+01
1.100000e-06	2.696060e-07	3.590108e-10	2.026288e+00	2.252519e+01
1.110000e-06	2.844137e-07	3.787476e-10	2.137579e+00	2.404911e+01
1.120000e-06	2.991322e-07	3.994714e-10	2.248200e+00	2.553281e+01
1.130000e-06	3.137571e-07	4.219536e-10	2.358116e+00	2.698602e+01
1.140000e-06	3.282857e-07	4.435501e-10	2.467309e+00	2.842563e+01
1.150000e-06	3.427081e-07	4.644120e-10	2.575705e+00	2.986388e+01
1.160000e-06	3.570212e-07	4.861598e-10	2.683278e+00	3.130195e+01
1.170000e-06	3.712341e-07	5.073433e-10	2.790098e+00	3.273243e+01
1.180000e-06	3.853480e-07	5.263276e-10	2.896175e+00	3.414768e+01
1.190000e-06	3.993439e-07	5.437295e-10	3.001364e+00	3.554733e+01
1.200000e-06	4.131886e-07	5.629239e-10	3.105418e+00	3.693934e+01
1.210000e-06	4.268944e-07	5.844144e-10	3.208427e+00	3.833353e+01
1.220000e-06	4.404826e-07	6.059629e-10	3.310552e+00	3.973253e+01
1.230000e-06	4.539499e-07	6.257221e-10	3.411768e+00	4.112681e+01
1.240000e-06	4.673008e-07	6.446295e-10	3.512111e+00	4.249847e+01
1.250000e-06	4.805307e-07	6.647471e-10	3.611543e+00	4.383211e+01
1.260000e-06	4.936087e-07	6.838222e-10	3.709834e+00	4.512615e+01
1.270000e-06	5.065340e-07	7.011772e-10	3.806977e+00	4.639669e+01
1.280000e-06	5.193204e-07	7.172668e-10	3.903076e+00	4.767041e+01
1.290000e-06	5.319683e-07	7.346828e-10	3.998135e+00	4.896953e+01
1.300000e-06	5.444885e-07	7.538021e-10	4.092233e+00	5.029760e+01
1.310000e-06	5.568508e-07	7.735605e-10	4.185145e+00	5.163500e+01
1.320000e-06	5.690303e-07	7.923761e-10	4.276683e+00	5.294753e+01
1.330000e-06	5.810545e-07	8.103334e-10	4.367053e+00	5.420423e+01
1.340000e-06	5.929250e-07	8.278838e-10	4.456269e+00	5.539412e+01
1.350000e-06	6.046163e-07	8.441660e-10	4.544138e+00	5.653245e+01
1.360000e-06	6.161013e-07	8.600474e-10	4.630456e+00	5.765243e+01
1.370000e-06	6.273941e-07	8.756904e-10	4.715330e+00	5.878697e+01
1.380000e-06	6.385300e-07	8.927343e-10	4.799024e+00	5.995065e+01
1.390000e-06	6.495063e-07	9.111404e-10	4.881519e+00	6.113218e+01
1.400000e-06	6.603007e-07	9.289819e-10	4.962647e+00	6.230121e+01
1.410000e-06	6.708911e-07	9.459983e-10	5.042242e+00	6.342551e+01
1.420000e-06	6.812827e-07	9.616020e-10	5.120342e+00	6.448833e+01
1.430000e-06	6.914950e-07	9.757545e-10	5.197095e+00	6.549645e+01
1.440000e-06	7.015120e-07	9.882364e-10	5.272381e+00	6.647475e+01
1.450000e-06	7.113065e-07	9.999112e-10	5.345994e+00	6.745138e+01
1.460000e-06	7.208930e-07	1.012887e-09	5.418043e+00	6.844239e+01
1.470000e-06	7.302947e-07	1.027039e-09	5.488704e+00	6.944465e+01
1.480000e-06	7.394888e-07	1.041978e-09	5.557805e+00	7.044025e+01
1.490000e-06	7.484612e-07	1.056896e-09	5.625238e+00	7.140889e+01
1.500000e-06	7.572318e-07	1.070430e-09	5.691156e+00	7.234006e+01
1.510000e-06	7.658043e-07	1.083251e-09	5.755584e+00	7.323806e+01
1.520000e-06	7.741608e-07	1.095559e-09	5.818390e+00	7.411731e+01
1.530000e-06	7.822855e-07	1.108112e-09	5.879453e+00	7.499182e+01
1.540000e-06	7.901831e-07	1.120982e-09	5.938810e+00	7.586591e+01
1.550000e-06	7.978451e-07	1.133674e-09	5.996395e+00	7.673170e+01
1.560000e-06	8.052580e-07	1.145908e-09	6.052108e+00	7.757464e+01
1.570000e-06	8.124365e-07	1.157523e-09	6.106060e+00	7.838301e+01
1.580000e-06	8.194016e-07	1.168971e-09	6.158408e+00	7.915505e+01
1.590000e-06	8.261315e-07	1.179996e-09	6.208988e+00	7.989939e+01
1.600000e-06	8.326126e-07	1.191913e-09	6.257698e+00	8.062866e+01
1.610000e-06	8.388771e-07	1.203757e-09	6.304781e+00	8.135067e+01
1.620000e-06	8.449221e-07	1.213813e-09	6.350213e+00	8.206285e+01
1.630000e-06	8.507226e-07	1.223681e-09	6.393808e+00	8.275328e+01
1.640000e-06	8.562754e-07	1.233188e-09	6.435542e+00	8.340764e+01
1.650000e-06	8.615700e-07	1.241866e-09	6.475335e+00	8.401779e+01
1.660000e-06	8.665772e-07	1.250003e-09	6.512968e+00	8.458664e+01
1.670000e-06	8.713171e-07	1.258426e-09	6.548591e+00	8.512678e+01
1.680000e-06	8.758308e-07	1.269061e-09	6.582515e+00	8.565384e+01
1.690000e-06	8.800965e-07	1.280732e-09	6.614575e+00	8.617847e+01
1.700000e-06	8.841041e-07	1.291278e-09	6.644695e+00	8.670134e+01
1.710000e-06	8.878900e-07	1.299932e-09	6.673149e+00	8.721340e+01
1.720000e-06	8.914435e-07	1.306186e-09	6.699856e+00	8.770045e+01
1.730000e-06	8.947336e-07	1.312396e-09	6.724583e+00	8.814913e+01
1.740000e-06	8.977836e-07	1.318951e-09	6.747507e+00	8.855129e+01
1.750000e-06	9.005866e-07	1.324735e-09	6.768573e+00	8.890533e+01
1.760000e-06	9.031198e-07	1.330824e-09	6.787612e+00	8.921492e+01
1.770000e-06	9.054080e-07	1.336700e-09	6.804810e+00	8.948695e+01
1.780000e-06	9.074605e-07	1.341430e-09	6.820235e+00	8.972954e+01
1.790000e-06	9.092472e-07	1.345460e-09	6.833664e+00	8.995060e+01
1.800000e-06	9.107557e-07	1.348091e-09	6.845001e+00	9.015613e+01
1.810000e-06	9.119857e-07	1.350938e-09	6.854245e+00	9.034827e+01
1.820000e-06	9.129387e-07	1.355968e-09	6.861408e+00	9.052376e+01
1.830000e-06	9.136366e-07	1.360129e-09	6.866654e+00	9.067444e+01
1.840000e-06	9.140856e-07	1.364200e-09	6.870028e+00	9.079049e+01
1.850000e-06	9.142748e-07	1.365548e-09	6.871450e+00	9.086582e+01
1.860000e-06	9.141984e-07	1.364563e-09	6.870876e+00	9.090263e+01
1.870000e-06	9.138494e-07	1.366524e-09	6.868253e+00	9.091226e+01
1.880000e-06	9.132525e-07	1.363040e-09	6.863767e+00	9.091056e+01
1.890000e-06	9.123915e-07	1.352918e-09	6.857296e+00	9.090952e+01
1.900000e-06	9.112013e-07	1.349218e-09	6.848350e+00	9.090921e+01
1.910000e-06	9.097372e-07	1.389637e-09	6.837346e+00	9.089503e+01
1.920000e-06	9.081016e-07	1.382224e-09	6.825054e+00	9.084256e+01
1.930000e-06	9.063295e-07	1.369094e-09	6.811736e+00	9.072850e+01
1.940000e-06	9.042830e-07	1.362554e-09	6.796354e+00	9.054231e+01
1.950000e-06	9.017729e-07	1.351784e-09	6.777489e+00	9.029239e+01
1.960000e-06	8.988599e-07	1.372652e-09	6.755596e+00	9.000326e+01
1.970000e-06	8.958275e-07	1.358161e-09	6.732805e+00	8.970473e+01
1.980000e-06	8.927623e-07	1.350935e-09	6.709767e+00	8.941866e+01
1.990000e-06	8.894617e-07	1.331716e-09	6.684961e+00	8.914981e+01
2.000000e-06	8.857487e-07	1.351120e-09	6.657056e+00	8.888534e+01
2.010000e-06	8.817081e-07	1.361382e-09	6.626687e+00	8.860252e+01
2.020000e-06	8.775622e-07	1.343303e-09	6.595528e+00	8.828028e+01
2.030000e-06	8.732761e-07	1.321011e-09	6.563314e+00	8.790825e+01
2.040000e-06	8.686542e-07	1.317594e-09	6.528578e+00	8.748920e+01
2.050000e-06	8.636357e-07	1.340646e-09	6.490860e+00	8.703464e+01
2.060000e-06	8.584151e-07	1.332101e-09	6.451623e+00	8.655697e+01
2.070000e-06	8.530679e-07	1.305177e-09	6.411435e+00	8.606306e+01
2.080000e-06	8.474298e-07	1.287050e-09	6.369061e+00	8.555237e+01
2.090000e-06	8.414308e-07	1.297595e-09	6.323973e+00	8.501965e+01
2.100000e-06	8.352050e-07	1.297103e-09	6.277182e+00	8.445935e+01
2.110000e-06	8.288514e-07	1.280323e-09	6.229430e+00	8.386874e+01
2.120000e-06	8.222406e-07	1.260241e-09	6.179745e+00	8.324785e+01
2.130000e-06	8.152777e-07	1.259378e-09	6.127414e+00	8.259740e+01
2.140000e-06	8.080775e-07	1.258818e-09	6.073299e+00	8.191690e+01
2.150000e-06	8.007512e-07	1.243185e-09	6.018236e+00	8.120508e+01
2.160000e-06	7.931815e-07	1.219176e-09	5.961345e+00	8.046238e+01
2.170000e-06	7.852714e-07	1.208770e-09	5.901895e+00	7.969352e+01
2.180000e-06	7.771240e-07	1.206531e-09	5.840661e+00	7.890756e+01
2.190000e-06	7.688454e-07	1.200364e-09	5.778441e+00	7.811431e+01
2.200000e-06	7.603538e-07	1.186332e-09	5.714620e+00	7.731880e+01
2.210000e-06	7.515567e-07	1.168489e-09	5.648504e+00	7.651697e+01
2.220000e-06	7.425480e-07	1.154057e-09	5.580796e+00	7.569600e+01
2.230000e-06	7.333851e-07	1.143015e-09	5.511930e+00	7.483967e+01
2.240000e-06	7.239981e-07	1.136687e-09	5.441381e+00	7.393670e+01
2.250000e-06	7.143668e-07	1.118948e-09	5.368994e+00	7.298718e+01
2.260000e-06	7.045616e-07	1.097822e-09	5.295301e+00	7.200369e+01
2.270000e-06	6.945997e-07	1.084386e-09	5.220429e+00	7.100571e+01
2.280000e-06	6.844068e-07	1.079942e-09	5.143822e+00	7.001024e+01
2.290000e-06	6.739632e-07	1.060869e-09	5.065331e+00	6.902334e+01
2.300000e-06	6.633526e-07	1.036727e-09	4.985584e+00	6.803698e+01
2.310000e-06	6.526057e-07	1.027441e-09	4.904813e+00	6.703284e+01
2.320000e-06	6.416728e-07	1.025577e-09	4.822645e+00	6.599095e+01
2.330000e-06	6.305192e-07	1.006106e-09	4.738817e+00	6.489886e+01
2.340000e-06	6.191670e-07	9.765812e-10	4.653497e+00	6.375702e+01
2.350000e-06	6.076288e-07	9.631904e-10	4.566779e+00	6.257816e+01
2.360000e-06	5.959025e-07	9.557730e-10	4.478647e+00	6.138166e+01
2.370000e-06	5.840096e-07	9.364032e-10	4.389263e+00	6.018589e+01
2.380000e-06	5.719577e-07	9.123537e-10	4.298684e+00	5.900191e+01
2.390000e-06	5.597499e-07	9.008871e-10	4.206934e+00	5.783078e+01
2.400000e-06	5.473769e-07	8.907194e-10	4.113942e+00	5.666472e+01
2.410000e-06	5.348369e-07	8.696150e-10	4.019694e+00	5.549101e+01
2.420000e-06	5.221515e-07	8.469870e-10	3.924354e+00	5.429700e+01
2.430000e-06	5.093251e-07	8.303659e-10	3.827954e+00	5.307448e+01
2.440000e-06	4.963682e-07	8.138016e-10	3.730573e+00	5.182264e+01
2.450000e-06	4.832765e-07	7.951430e-10	3.632179e+00	5.054848e+01
2.460000e-06	4.700169e-07	7.775395e-10	3.532524e+00	4.926471e+01
2.470000e-06	4.566181e-07	7.579132e-10	3.431822e+00	4.798502e+01
2.480000e-06	4.431085e-07	7.368541e-10	3.330288e+00	4.671848e+01
2.490000e-06	4.294762e-07	7.195512e-10	3.227831e+00	4.546497e+01
2.500000e-06	4.157183e-07	7.042256e-10	3.124430e+00	4.421430e+01
2.510000e-06	4.018176e-07	6.852766e-10	3.019956e+00	4.294989e+01
2.520000e-06	3.877652e-07	6.636881e-10	2.914342e+00	4.165601e+01
2.530000e-06	3.735886e-07	6.453957e-10	2.807794e+00	4.032527e+01
2.540000e-06	3.593122e-07	6.274101e-10	2.700496e+00	3.896247e+01
2.550000e-06	3.449327e-07	6.042987e-10	2.592424e+00	3.758246e+01
2.560000e-06	3.304511e-07	5.797513e-10	2.483584e+00	3.620283e+01
2.570000e-06	3.158973e-07	5.604912e-10	2.374202e+00	3.483500e+01
2.580000e-06	3.012911e-07	5.453551e-10	2.264425e+00	3.347873e+01
2.590000e-06	2.865960e-07	5.267673e-10	2.153981e+00	3.212289e+01
2.600000e-06	2.717791e-07	5.020983e-10	2.042621e+00	3.075211e+01
2.610000e-06	2.568607e-07	4.772646e-10	1.930498e+00	2.935519e+01
2.620000e-06	2.418806e-07	4.595785e-10	1.817911e+00	2.793045e+01
2.630000e-06	2.268499e-07	4.428455e-10	1.704944e+00	2.648485e+01
2.640000e-06	2.117490e-07	4.190989e-10	1.591450e+00	2.502793e+01
2.650000e-06	1.965888e-07	3.943234e-10	1.477510e+00	2.356484e+01
2.660000e-06	1.813944e-07	3.748444e-10	1.363313e+00	2.209333e+01
2.670000e-06	1.661578e-07	3.560128e-10	1.248798e+00	2.060697e+01
2.680000e-06	1.508654e-07	3.313725e-10	1.133865e+00	1.910232e+01
2.690000e-06	1.355385e-07	3.037240e-10	1.018672e+00	1.758510e+01
2.700000e-06	1.201930e-07	2.806080e-10	9.033391e-01	1.607011e+01
2.710000e-06	1.048196e-07	2.614441e-10	7.877966e-01	1.457399e+01
2.720000e-06	8.941498e-08	2.392411e-10	6.720196e-01	1.310451e+01
2.730000e-06	7.398818e-08	2.126570e-10	5.560758e-01	1.165333e+01
2.740000e-06	5.855424e-08	1.863341e-10	4.400783e-01	1.019761e+01
2.750000e-06	4.312263e-08	1.637230e-10	3.240984e-01	8.711110e+00
2.760000e-06	2.768271e-08	1.426226e-10	2.080560e-01	7.179069e+00
2.770000e-06	1.222195e-08	1.179909e-10	9.185697e-02	5.608245e+00
2.780000e-06	-3.236883e-09	8.954911e-11	-2.432756e-02	4.025476e+00
2.790000e-06	-1.868167e-08	6.429252e-11	-1.404065e-01	2.464452e+00
2.800000e-06	-3.412523e-08	4.418839e-11	-2.564763e-01	9.474783e-01
2.810000e-06	-4.957258e-08	2.157446e-11	-3.725745e-01	-5.274868e-01
2.820000e-06	-6.501330e-08	-5.627887e-12	-4.886229e-01	-1.986675e+00
2.830000e-06	-8.043185e-08	-3.080996e-11	-6.045047e-01	-3.466645e+00
2.840000e-06	-9.582588e-08	-5.231067e-11	-7.202022e-01	-4.994060e+00
2.850000e-06	-1.112080e-07	-7.542165e-11	-8.358104e-01	-6.570418e+00
2.860000e-06	-1.265800e-07	-1.031551e-10	-9.513422e-01	-8.170493e+00
2.870000e-06	-1.419143e-07	-1.332404e-10	-1.066591e+00	-9.755591e+00
2.880000e-06	-1.571909e-07	-1.593341e-10	-1.181405e+00	-1.129429e+01
2.890000e-06	-1.724191e-07	-1.804673e-10	-1.295857e+00	-1.277905e+01
2.900000e-06	-1.876078e-07	-2.030010e-10	-1.410011e+00	-1.422959e+01
2.910000e-06	-2.027425e-07	-2.276041e-10	-1.523760e+00	-1.568138e+01
2.920000e-06	-2.178179e-07	-2.514445e-10	-1.637062e+00	-1.716618e+01
2.930000e-06	-2.328446e-07	-2.740881e-10	-1.749999e+00	-1.869564e+01
2.940000e-06	-2.478264e-07	-2.978066e-10	-1.862598e+00	-2.025672e+01
2.950000e-06	-2.627372e-07	-3.245439e-10	-1.974664e+00	-2.182055e+01
