# Temperatura_=_20.0
# Concentracion g/m^3_=_10000.0
# C_Vs_to_Am_M_A/Vsm_=_65563218390.804596
# pendiente_HvsI_1/m_=_3716.3
# ordenada_HvsI_A/m_=_1297.0
# frecuencia_Hz_=_269721.5011930836

Tiempo_(s)	Campo_(V.s)	Magnetizacion_(V.s)	Campo_(kA/m)	Magnetizacion_(A/m)
0.000000e+00	-9.126834e-07	-1.416568e-09	-6.860387e+00	-9.181185e+01
1.000000e-08	-9.124879e-07	-1.415801e-09	-6.858917e+00	-9.187186e+01
2.000000e-08	-9.120241e-07	-1.414261e-09	-6.855431e+00	-9.187676e+01
3.000000e-08	-9.113521e-07	-1.417116e-09	-6.850379e+00	-9.184298e+01
4.000000e-08	-9.104425e-07	-1.426983e-09	-6.843542e+00	-9.179794e+01
5.000000e-08	-9.093094e-07	-1.415715e-09	-6.835025e+00	-9.176329e+01
6.000000e-08	-9.080610e-07	-1.399316e-09	-6.825641e+00	-9.173911e+01
7.000000e-08	-9.065442e-07	-1.415794e-09	-6.814240e+00	-9.169950e+01
8.000000e-08	-9.046031e-07	-1.406361e-09	-6.799649e+00	-9.160373e+01
9.000000e-08	-9.023166e-07	-1.407815e-09	-6.782462e+00	-9.141789e+01
1.000000e-07	-8.996748e-07	-1.413151e-09	-6.762604e+00	-9.113518e+01
1.100000e-07	-8.967193e-07	-1.385869e-09	-6.740389e+00	-9.078301e+01
1.200000e-07	-8.936253e-07	-1.387865e-09	-6.717132e+00	-9.041164e+01
1.300000e-07	-8.904398e-07	-1.383071e-09	-6.693187e+00	-9.006995e+01
1.400000e-07	-8.870523e-07	-1.387219e-09	-6.667724e+00	-8.978076e+01
1.500000e-07	-8.833562e-07	-1.379944e-09	-6.639942e+00	-8.952924e+01
1.600000e-07	-8.793856e-07	-1.354766e-09	-6.610096e+00	-8.927061e+01
1.700000e-07	-8.751955e-07	-1.360696e-09	-6.578600e+00	-8.895300e+01
1.800000e-07	-8.707361e-07	-1.361594e-09	-6.545080e+00	-8.854341e+01
1.900000e-07	-8.659986e-07	-1.349877e-09	-6.509470e+00	-8.804315e+01
2.000000e-07	-8.610223e-07	-1.324348e-09	-6.472064e+00	-8.748534e+01
2.100000e-07	-8.558060e-07	-1.322655e-09	-6.432855e+00	-8.691674e+01
2.200000e-07	-8.502939e-07	-1.318308e-09	-6.391422e+00	-8.637409e+01
2.300000e-07	-8.444670e-07	-1.314706e-09	-6.347623e+00	-8.586731e+01
2.400000e-07	-8.383990e-07	-1.306244e-09	-6.302011e+00	-8.537724e+01
2.500000e-07	-8.321512e-07	-1.293623e-09	-6.255048e+00	-8.486757e+01
2.600000e-07	-8.256739e-07	-1.283975e-09	-6.206360e+00	-8.430346e+01
2.700000e-07	-8.189101e-07	-1.269820e-09	-6.155518e+00	-8.366710e+01
2.800000e-07	-8.119143e-07	-1.261561e-09	-6.102933e+00	-8.296307e+01
2.900000e-07	-8.047340e-07	-1.250345e-09	-6.048961e+00	-8.221293e+01
3.000000e-07	-7.973016e-07	-1.240790e-09	-5.993093e+00	-8.144332e+01
3.100000e-07	-7.895617e-07	-1.224390e-09	-5.934915e+00	-8.067436e+01
3.200000e-07	-7.815546e-07	-1.218634e-09	-5.874728e+00	-7.991337e+01
3.300000e-07	-7.733467e-07	-1.205660e-09	-5.813031e+00	-7.915512e+01
3.400000e-07	-7.649453e-07	-1.188251e-09	-5.749880e+00	-7.838657e+01
3.500000e-07	-7.563125e-07	-1.169206e-09	-5.684990e+00	-7.759268e+01
3.600000e-07	-7.474887e-07	-1.164431e-09	-5.618664e+00	-7.676105e+01
3.700000e-07	-7.384983e-07	-1.159891e-09	-5.551085e+00	-7.588445e+01
3.800000e-07	-7.292795e-07	-1.139657e-09	-5.481790e+00	-7.496207e+01
3.900000e-07	-7.198039e-07	-1.113685e-09	-5.410565e+00	-7.399968e+01
4.000000e-07	-7.101287e-07	-1.099701e-09	-5.337839e+00	-7.300874e+01
4.100000e-07	-7.002936e-07	-1.095131e-09	-5.263912e+00	-7.200359e+01
4.200000e-07	-6.902562e-07	-1.076275e-09	-5.188463e+00	-7.099692e+01
4.300000e-07	-6.799774e-07	-1.053351e-09	-5.111201e+00	-6.999479e+01
4.400000e-07	-6.695000e-07	-1.040717e-09	-5.032445e+00	-6.899359e+01
4.500000e-07	-6.588562e-07	-1.034084e-09	-4.952438e+00	-6.798111e+01
4.600000e-07	-6.480329e-07	-1.013203e-09	-4.871082e+00	-6.694180e+01
4.700000e-07	-6.370250e-07	-9.851413e-10	-4.788339e+00	-6.586413e+01
4.800000e-07	-6.258341e-07	-9.666528e-10	-4.704220e+00	-6.474641e+01
4.900000e-07	-6.144568e-07	-9.558196e-10	-4.618700e+00	-6.359802e+01
5.000000e-07	-6.028816e-07	-9.390160e-10	-4.531693e+00	-6.243523e+01
5.100000e-07	-5.911194e-07	-9.176171e-10	-4.443280e+00	-6.127363e+01
5.200000e-07	-5.791902e-07	-9.008173e-10	-4.353611e+00	-6.012108e+01
5.300000e-07	-5.671115e-07	-8.845443e-10	-4.262819e+00	-5.897454e+01
5.400000e-07	-5.548726e-07	-8.659315e-10	-4.170822e+00	-5.782216e+01
5.500000e-07	-5.424624e-07	-8.463890e-10	-4.077539e+00	-5.664913e+01
5.600000e-07	-5.298968e-07	-8.270494e-10	-3.983086e+00	-5.544411e+01
5.700000e-07	-5.171871e-07	-8.069971e-10	-3.887551e+00	-5.420341e+01
5.800000e-07	-5.043492e-07	-7.889613e-10	-3.791052e+00	-5.293128e+01
5.900000e-07	-4.913789e-07	-7.718001e-10	-3.693558e+00	-5.163725e+01
6.000000e-07	-4.782460e-07	-7.508335e-10	-3.594842e+00	-5.033221e+01
6.100000e-07	-4.649587e-07	-7.276000e-10	-3.494965e+00	-4.902522e+01
6.200000e-07	-4.515401e-07	-7.090203e-10	-3.394101e+00	-4.772179e+01
6.300000e-07	-4.380118e-07	-6.939383e-10	-3.292412e+00	-4.642352e+01
6.400000e-07	-4.243677e-07	-6.731346e-10	-3.189853e+00	-4.512841e+01
6.500000e-07	-4.105891e-07	-6.474676e-10	-3.086284e+00	-4.383138e+01
6.600000e-07	-3.966730e-07	-6.250932e-10	-2.981680e+00	-4.252531e+01
6.700000e-07	-3.826296e-07	-6.075568e-10	-2.876120e+00	-4.120256e+01
6.800000e-07	-3.684755e-07	-5.888553e-10	-2.769727e+00	-3.985715e+01
6.900000e-07	-3.541907e-07	-5.655111e-10	-2.662353e+00	-3.848670e+01
7.000000e-07	-3.397561e-07	-5.422390e-10	-2.553852e+00	-3.709320e+01
7.100000e-07	-3.252032e-07	-5.236592e-10	-2.444462e+00	-3.568239e+01
7.200000e-07	-3.105797e-07	-5.046889e-10	-2.334541e+00	-3.426180e+01
7.300000e-07	-2.958803e-07	-4.800781e-10	-2.224050e+00	-3.283859e+01
7.400000e-07	-2.810947e-07	-4.537154e-10	-2.112910e+00	-3.141813e+01
7.500000e-07	-2.662375e-07	-4.316969e-10	-2.001233e+00	-3.000330e+01
7.600000e-07	-2.513233e-07	-4.125174e-10	-1.889127e+00	-2.859420e+01
7.700000e-07	-2.363495e-07	-3.910966e-10	-1.776573e+00	-2.718748e+01
7.800000e-07	-2.213150e-07	-3.661439e-10	-1.663563e+00	-2.577541e+01
7.900000e-07	-2.062287e-07	-3.424751e-10	-1.550164e+00	-2.434614e+01
8.000000e-07	-1.910851e-07	-3.219147e-10	-1.436333e+00	-2.288623e+01
8.100000e-07	-1.758895e-07	-2.994025e-10	-1.322112e+00	-2.138603e+01
8.200000e-07	-1.606507e-07	-2.737135e-10	-1.207567e+00	-1.984599e+01
8.300000e-07	-1.453745e-07	-2.475551e-10	-1.092739e+00	-1.828027e+01
8.400000e-07	-1.300685e-07	-2.247933e-10	-9.776882e-01	-1.671424e+01
8.500000e-07	-1.147275e-07	-2.035232e-10	-8.623749e-01	-1.517528e+01
8.600000e-07	-9.933963e-08	-1.798370e-10	-7.467083e-01	-1.368010e+01
8.700000e-07	-8.390315e-08	-1.560040e-10	-6.306765e-01	-1.222508e+01
8.800000e-07	-6.843361e-08	-1.343910e-10	-5.143963e-01	-1.078571e+01
8.900000e-07	-5.295142e-08	-1.143718e-10	-3.980210e-01	-9.327182e+00
9.000000e-07	-3.745762e-08	-9.282562e-11	-2.815585e-01	-7.821899e+00
9.100000e-07	-2.194368e-08	-6.730560e-11	-1.649445e-01	-6.265045e+00
9.200000e-07	-6.414347e-09	-4.092311e-11	-4.821486e-02	-4.679095e+00
9.300000e-07	9.127098e-09	-1.712632e-11	6.860585e-02	-3.103500e+00
9.400000e-07	2.466655e-08	6.073555e-12	1.854116e-01	-1.573875e+00
9.500000e-07	4.018106e-08	3.008313e-11	3.020298e-01	-1.014942e-01
9.600000e-07	5.567280e-08	5.293224e-11	4.184769e-01	1.335220e+00
9.700000e-07	7.114101e-08	7.301284e-11	5.347471e-01	2.781451e+00
9.800000e-07	8.657383e-08	9.378801e-11	6.507513e-01	4.282877e+00
9.900000e-07	1.019737e-07	1.172422e-10	7.665082e-01	5.860722e+00
1.000000e-06	1.173429e-07	1.420646e-10	8.820340e-01	7.498729e+00
1.010000e-06	1.326783e-07	1.661310e-10	9.973061e-01	9.149773e+00
1.020000e-06	1.479705e-07	1.887154e-10	1.112253e+00	1.075916e+01
1.030000e-06	1.632176e-07	2.105841e-10	1.226861e+00	1.229237e+01
1.040000e-06	1.784229e-07	2.333033e-10	1.341155e+00	1.375225e+01
1.050000e-06	1.935763e-07	2.556114e-10	1.455059e+00	1.517651e+01
1.060000e-06	2.086756e-07	2.756247e-10	1.568556e+00	1.661728e+01
1.070000e-06	2.237255e-07	2.974252e-10	1.681682e+00	1.811400e+01
1.080000e-06	2.387163e-07	3.221443e-10	1.794364e+00	1.967464e+01
1.090000e-06	2.536457e-07	3.478094e-10	1.906584e+00	2.127446e+01
1.100000e-06	2.685247e-07	3.711971e-10	2.018425e+00	2.287188e+01
1.110000e-06	2.833333e-07	3.908923e-10	2.129737e+00	2.443092e+01
1.120000e-06	2.980472e-07	4.131302e-10	2.240338e+00	2.593747e+01
1.130000e-06	3.126712e-07	4.369235e-10	2.350262e+00	2.740081e+01
1.140000e-06	3.272089e-07	4.577085e-10	2.459538e+00	2.884176e+01
1.150000e-06	3.416415e-07	4.767733e-10	2.568024e+00	3.027650e+01
1.160000e-06	3.559573e-07	4.973961e-10	2.675632e+00	3.170696e+01
1.170000e-06	3.701700e-07	5.190840e-10	2.782464e+00	3.312370e+01
1.180000e-06	3.842883e-07	5.378920e-10	2.888588e+00	3.451796e+01
1.190000e-06	3.982939e-07	5.541302e-10	2.993864e+00	3.589377e+01
1.200000e-06	4.121549e-07	5.720780e-10	3.098053e+00	3.727046e+01
1.210000e-06	4.258723e-07	5.939894e-10	3.201163e+00	3.867287e+01
1.220000e-06	4.394681e-07	6.172800e-10	3.303359e+00	4.011478e+01
1.230000e-06	4.529392e-07	6.388099e-10	3.404618e+00	4.158650e+01
1.240000e-06	4.662870e-07	6.582403e-10	3.504949e+00	4.305561e+01
1.250000e-06	4.795187e-07	6.782919e-10	3.604408e+00	4.448194e+01
1.260000e-06	4.926021e-07	6.982410e-10	3.702753e+00	4.583880e+01
1.270000e-06	5.055280e-07	7.168592e-10	3.799913e+00	4.712807e+01
1.280000e-06	5.183187e-07	7.335276e-10	3.896057e+00	4.837960e+01
1.290000e-06	5.309710e-07	7.505592e-10	3.991161e+00	4.963474e+01
1.300000e-06	5.434909e-07	7.686191e-10	4.085269e+00	5.092311e+01
1.310000e-06	5.558606e-07	7.868319e-10	4.178249e+00	5.224604e+01
1.320000e-06	5.680549e-07	8.041262e-10	4.269911e+00	5.357617e+01
1.330000e-06	5.800927e-07	8.215279e-10	4.360395e+00	5.487354e+01
1.340000e-06	5.919723e-07	8.405297e-10	4.449690e+00	5.610837e+01
1.350000e-06	6.036754e-07	8.584584e-10	4.537660e+00	5.727742e+01
1.360000e-06	6.151788e-07	8.744737e-10	4.624127e+00	5.840461e+01
1.370000e-06	6.264825e-07	8.891374e-10	4.709094e+00	5.952598e+01
1.380000e-06	6.376185e-07	9.056976e-10	4.792800e+00	6.066855e+01
1.390000e-06	6.485970e-07	9.239407e-10	4.875323e+00	6.183531e+01
1.400000e-06	6.594023e-07	9.415583e-10	4.956543e+00	6.300495e+01
1.410000e-06	6.699997e-07	9.578613e-10	5.036201e+00	6.414546e+01
1.420000e-06	6.803941e-07	9.738160e-10	5.114333e+00	6.523296e+01
1.430000e-06	6.906097e-07	9.899048e-10	5.191121e+00	6.626437e+01
1.440000e-06	7.006351e-07	1.004368e-09	5.266479e+00	6.725719e+01
1.450000e-06	7.104414e-07	1.017205e-09	5.340190e+00	6.823767e+01
1.460000e-06	7.200358e-07	1.030360e-09	5.412309e+00	6.922548e+01
1.470000e-06	7.294479e-07	1.044950e-09	5.483056e+00	7.022421e+01
1.480000e-06	7.386538e-07	1.059941e-09	5.552255e+00	7.122272e+01
1.490000e-06	7.476322e-07	1.074473e-09	5.619743e+00	7.220485e+01
1.500000e-06	7.564020e-07	1.087679e-09	5.685663e+00	7.316039e+01
1.510000e-06	7.649832e-07	1.100956e-09	5.750165e+00	7.408987e+01
1.520000e-06	7.733636e-07	1.115916e-09	5.813159e+00	7.500093e+01
1.530000e-06	7.815110e-07	1.131125e-09	5.874400e+00	7.589992e+01
1.540000e-06	7.894285e-07	1.144185e-09	5.933913e+00	7.678543e+01
1.550000e-06	7.971151e-07	1.155839e-09	5.991692e+00	7.764884e+01
1.560000e-06	8.045548e-07	1.168467e-09	6.047614e+00	7.848135e+01
1.570000e-06	8.117569e-07	1.180912e-09	6.101750e+00	7.928219e+01
1.580000e-06	8.187407e-07	1.191779e-09	6.154245e+00	8.006133e+01
1.590000e-06	8.254925e-07	1.202830e-09	6.204997e+00	8.083371e+01
1.600000e-06	8.319967e-07	1.215369e-09	6.253887e+00	8.160822e+01
1.610000e-06	8.382768e-07	1.227866e-09	6.301093e+00	8.237863e+01
1.620000e-06	8.443399e-07	1.238402e-09	6.346668e+00	8.312351e+01
1.630000e-06	8.501634e-07	1.247951e-09	6.390441e+00	8.381651e+01
1.640000e-06	8.557395e-07	1.256688e-09	6.432355e+00	8.444173e+01
1.650000e-06	8.610561e-07	1.265931e-09	6.472318e+00	8.500480e+01
1.660000e-06	8.660851e-07	1.274586e-09	6.510120e+00	8.553230e+01
1.670000e-06	8.708478e-07	1.281641e-09	6.545920e+00	8.605891e+01
1.680000e-06	8.753798e-07	1.289585e-09	6.579986e+00	8.660885e+01
1.690000e-06	8.796691e-07	1.299226e-09	6.612227e+00	8.718242e+01
1.700000e-06	8.837116e-07	1.309784e-09	6.642613e+00	8.775528e+01
1.710000e-06	8.875237e-07	1.319347e-09	6.671268e+00	8.829101e+01
1.720000e-06	8.910887e-07	1.325681e-09	6.698065e+00	8.875986e+01
1.730000e-06	8.943891e-07	1.329954e-09	6.722874e+00	8.915278e+01
1.740000e-06	8.974511e-07	1.335587e-09	6.745890e+00	8.948350e+01
1.750000e-06	9.002716e-07	1.341579e-09	6.767090e+00	8.977824e+01
1.760000e-06	9.028233e-07	1.345829e-09	6.786271e+00	9.006014e+01
1.770000e-06	9.051212e-07	1.348892e-09	6.803543e+00	9.033809e+01
1.780000e-06	9.071870e-07	1.352597e-09	6.819071e+00	9.060599e+01
1.790000e-06	9.089935e-07	1.357634e-09	6.832651e+00	9.085156e+01
1.800000e-06	9.105251e-07	1.361256e-09	6.844163e+00	9.106761e+01
1.810000e-06	9.117816e-07	1.363212e-09	6.853608e+00	9.125779e+01
1.820000e-06	9.127576e-07	1.366712e-09	6.860944e+00	9.143283e+01
1.830000e-06	9.134742e-07	1.371804e-09	6.866331e+00	9.160050e+01
1.840000e-06	9.139429e-07	1.376893e-09	6.869854e+00	9.175671e+01
1.850000e-06	9.141553e-07	1.377830e-09	6.871450e+00	9.188512e+01
1.860000e-06	9.140982e-07	1.379062e-09	6.871021e+00	9.196628e+01
1.870000e-06	9.137698e-07	1.379947e-09	6.868552e+00	9.199105e+01
1.880000e-06	9.131950e-07	1.377924e-09	6.864232e+00	9.196898e+01
1.890000e-06	9.123577e-07	1.372391e-09	6.857938e+00	9.192506e+01
1.900000e-06	9.112032e-07	1.371402e-09	6.849260e+00	9.188524e+01
1.910000e-06	9.097744e-07	1.391827e-09	6.838520e+00	9.185900e+01
1.920000e-06	9.081572e-07	1.377175e-09	6.826364e+00	9.182971e+01
1.930000e-06	9.063876e-07	1.379575e-09	6.813063e+00	9.176001e+01
1.940000e-06	9.043563e-07	1.373415e-09	6.797794e+00	9.161068e+01
1.950000e-06	9.018893e-07	1.368508e-09	6.779251e+00	9.136302e+01
1.960000e-06	8.990169e-07	1.375163e-09	6.757659e+00	9.103194e+01
1.970000e-06	8.960003e-07	1.360167e-09	6.734985e+00	9.066151e+01
1.980000e-06	8.929415e-07	1.361222e-09	6.711992e+00	9.030432e+01
1.990000e-06	8.896572e-07	1.345253e-09	6.687305e+00	8.999527e+01
2.000000e-06	8.859707e-07	1.353587e-09	6.659595e+00	8.973380e+01
2.010000e-06	8.819501e-07	1.349851e-09	6.629373e+00	8.948429e+01
2.020000e-06	8.778130e-07	1.347063e-09	6.598276e+00	8.919432e+01
2.030000e-06	8.735365e-07	1.334903e-09	6.566130e+00	8.882121e+01
2.040000e-06	8.689301e-07	1.333301e-09	6.531505e+00	8.835265e+01
2.050000e-06	8.639412e-07	1.337072e-09	6.494005e+00	8.781131e+01
2.060000e-06	8.587454e-07	1.323242e-09	6.454950e+00	8.724157e+01
2.070000e-06	8.534140e-07	1.310230e-09	6.414875e+00	8.668651e+01
2.080000e-06	8.477939e-07	1.297260e-09	6.372630e+00	8.616725e+01
2.090000e-06	8.418122e-07	1.295045e-09	6.327667e+00	8.567478e+01
2.100000e-06	8.355978e-07	1.288963e-09	6.280956e+00	8.517718e+01
2.110000e-06	8.292467e-07	1.287997e-09	6.233216e+00	8.463688e+01
2.120000e-06	8.226482e-07	1.276918e-09	6.183617e+00	8.402841e+01
2.130000e-06	8.157110e-07	1.266153e-09	6.131472e+00	8.334806e+01
2.140000e-06	8.085250e-07	1.252068e-09	6.077457e+00	8.261223e+01
2.150000e-06	8.011979e-07	1.244061e-09	6.022381e+00	8.184715e+01
2.160000e-06	7.936456e-07	1.231482e-09	5.965613e+00	8.107649e+01
2.170000e-06	7.857645e-07	1.217571e-09	5.906372e+00	8.031268e+01
2.180000e-06	7.776297e-07	1.207152e-09	5.845226e+00	7.955479e+01
2.190000e-06	7.693551e-07	1.201202e-09	5.783028e+00	7.879202e+01
2.200000e-06	7.608768e-07	1.192979e-09	5.719298e+00	7.800945e+01
2.210000e-06	7.520941e-07	1.174379e-09	5.653282e+00	7.719329e+01
2.220000e-06	7.430893e-07	1.159631e-09	5.585595e+00	7.633415e+01
2.230000e-06	7.339433e-07	1.150855e-09	5.516847e+00	7.542876e+01
2.240000e-06	7.245862e-07	1.141670e-09	5.446512e+00	7.448044e+01
2.250000e-06	7.149736e-07	1.119452e-09	5.374257e+00	7.349875e+01
2.260000e-06	7.051777e-07	1.100512e-09	5.300624e+00	7.249738e+01
2.270000e-06	6.952218e-07	1.090410e-09	5.225788e+00	7.149027e+01
2.280000e-06	6.850361e-07	1.081390e-09	5.149225e+00	7.048646e+01
2.290000e-06	6.746096e-07	1.058349e-09	5.070852e+00	6.948610e+01
2.300000e-06	6.640223e-07	1.040371e-09	4.991270e+00	6.847980e+01
2.310000e-06	6.533009e-07	1.035860e-09	4.910680e+00	6.745243e+01
2.320000e-06	6.423889e-07	1.025784e-09	4.828658e+00	6.639011e+01
2.330000e-06	6.312524e-07	1.002112e-09	4.744948e+00	6.528701e+01
2.340000e-06	6.199170e-07	9.798893e-10	4.659743e+00	6.414858e+01
2.350000e-06	6.083967e-07	9.699263e-10	4.573148e+00	6.298930e+01
2.360000e-06	5.966846e-07	9.549009e-10	4.485112e+00	6.182594e+01
2.370000e-06	5.848002e-07	9.318760e-10	4.395780e+00	6.066991e+01
2.380000e-06	5.727604e-07	9.130436e-10	4.305280e+00	5.952228e+01
2.390000e-06	5.605649e-07	9.006325e-10	4.213610e+00	5.837397e+01
2.400000e-06	5.482086e-07	8.836033e-10	4.120731e+00	5.721047e+01
2.410000e-06	5.356855e-07	8.635625e-10	4.026598e+00	5.601849e+01
2.420000e-06	5.230081e-07	8.472588e-10	3.931306e+00	5.479121e+01
2.430000e-06	5.101912e-07	8.294509e-10	3.834965e+00	5.353009e+01
2.440000e-06	4.972447e-07	8.069901e-10	3.737650e+00	5.224314e+01
2.450000e-06	4.841668e-07	7.875456e-10	3.639347e+00	5.094116e+01
2.460000e-06	4.709287e-07	7.718273e-10	3.539839e+00	4.963420e+01
2.470000e-06	4.575429e-07	7.508016e-10	3.439222e+00	4.832918e+01
2.480000e-06	4.440426e-07	7.267784e-10	3.337744e+00	4.702918e+01
2.490000e-06	4.304216e-07	7.087319e-10	3.235359e+00	4.573348e+01
2.500000e-06	4.166703e-07	6.939290e-10	3.131994e+00	4.443807e+01
2.510000e-06	4.027805e-07	6.751913e-10	3.027589e+00	4.313644e+01
2.520000e-06	3.887530e-07	6.524809e-10	2.922148e+00	4.182093e+01
2.530000e-06	3.745989e-07	6.318536e-10	2.815755e+00	4.048468e+01
2.540000e-06	3.603381e-07	6.128807e-10	2.708561e+00	3.912377e+01
2.550000e-06	3.459728e-07	5.903644e-10	2.600581e+00	3.773855e+01
2.560000e-06	3.315049e-07	5.660232e-10	2.491830e+00	3.633355e+01
2.570000e-06	3.169600e-07	5.445070e-10	2.382500e+00	3.491587e+01
2.580000e-06	3.023520e-07	5.273006e-10	2.272696e+00	3.349305e+01
2.590000e-06	2.876636e-07	5.094288e-10	2.162287e+00	3.207123e+01
2.600000e-06	2.728748e-07	4.868978e-10	2.051124e+00	3.065426e+01
2.610000e-06	2.579835e-07	4.628832e-10	1.939190e+00	2.924335e+01
2.620000e-06	2.430116e-07	4.435819e-10	1.826651e+00	2.783654e+01
2.630000e-06	2.279841e-07	4.264456e-10	1.713693e+00	2.642782e+01
2.640000e-06	2.128906e-07	4.049058e-10	1.600239e+00	2.500673e+01
2.650000e-06	1.977401e-07	3.809519e-10	1.486357e+00	2.355993e+01
2.660000e-06	1.825539e-07	3.600082e-10	1.372207e+00	2.207560e+01
2.670000e-06	1.673249e-07	3.408270e-10	1.257734e+00	2.054975e+01
2.680000e-06	1.520358e-07	3.172599e-10	1.142811e+00	1.899130e+01
2.690000e-06	1.367077e-07	2.901303e-10	1.027593e+00	1.742217e+01
2.700000e-06	1.213604e-07	2.656164e-10	9.122325e-01	1.587039e+01
2.710000e-06	1.059853e-07	2.456469e-10	7.966621e-01	1.435815e+01
2.720000e-06	9.057912e-08	2.252130e-10	6.808579e-01	1.289009e+01
2.730000e-06	7.514794e-08	2.012093e-10	5.648661e-01	1.144888e+01
2.740000e-06	5.971299e-08	1.759403e-10	4.488459e-01	1.000171e+01
2.750000e-06	4.427997e-08	1.535418e-10	3.328402e-01	8.516135e+00
2.760000e-06	2.883034e-08	1.334693e-10	2.167096e-01	6.977529e+00
2.770000e-06	1.336292e-08	1.108218e-10	1.004453e-01	5.398542e+00
2.780000e-06	-2.100874e-09	8.512348e-11	-1.579168e-02	3.814323e+00
2.790000e-06	-1.755594e-08	6.200869e-11	-1.319631e-01	2.264624e+00
2.800000e-06	-3.300662e-08	4.212235e-11	-2.481015e-01	7.717017e-01
2.810000e-06	-4.845691e-08	1.990421e-11	-3.642371e-01	-6.738102e-01
2.820000e-06	-6.390236e-08	-4.790899e-12	-4.803362e-01	-2.110406e+00
2.830000e-06	-7.933020e-08	-2.849450e-11	-5.963030e-01	-3.586722e+00
2.840000e-06	-9.473193e-08	-5.051664e-11	-7.120735e-01	-5.135583e+00
2.850000e-06	-1.101108e-07	-7.541743e-11	-8.276722e-01	-6.755121e+00
2.860000e-06	-1.254741e-07	-1.038728e-10	-9.431540e-01	-8.407760e+00
2.870000e-06	-1.408019e-07	-1.321884e-10	-1.058368e+00	-1.003830e+01
2.880000e-06	-1.560796e-07	-1.566268e-10	-1.173207e+00	-1.160177e+01
2.890000e-06	-1.713101e-07	-1.776259e-10	-1.287690e+00	-1.308615e+01
2.900000e-06	-1.864974e-07	-1.998720e-10	-1.401849e+00	-1.451770e+01
2.910000e-06	-2.016335e-07	-2.227090e-10	-1.515623e+00	-1.594627e+01
2.920000e-06	-2.167158e-07	-2.439237e-10	-1.628992e+00	-1.741901e+01
2.930000e-06	-2.317581e-07	-2.656994e-10	-1.742061e+00	-1.895687e+01
2.940000e-06	-2.467540e-07	-2.904542e-10	-1.854781e+00	-2.054630e+01
2.950000e-06	-2.616669e-07	-3.176098e-10	-1.966877e+00	-2.214946e+01
