# Temperatura_=_20.0
# Concentracion g/m^3_=_10000.0
# C_Vs_to_Am_M_A/Vsm_=_65563218390.804596
# pendiente_HvsI_1/m_=_3716.3
# ordenada_HvsI_A/m_=_1297.0
# frecuencia_Hz_=_269721.5950097752

Tiempo_(s)	Campo_(V.s)	Magnetizacion_(V.s)	Campo_(kA/m)	Magnetizacion_(A/m)
0.000000e+00	-9.129932e-07	-1.405310e-09	-6.860680e+00	-9.095860e+01
1.000000e-08	-9.128058e-07	-1.406085e-09	-6.859272e+00	-9.098279e+01
2.000000e-08	-9.123436e-07	-1.404551e-09	-6.855798e+00	-9.094256e+01
3.000000e-08	-9.116787e-07	-1.405385e-09	-6.850802e+00	-9.086195e+01
4.000000e-08	-9.107774e-07	-1.414055e-09	-6.844029e+00	-9.077831e+01
5.000000e-08	-9.096459e-07	-1.410654e-09	-6.835527e+00	-9.072411e+01
6.000000e-08	-9.084111e-07	-1.386380e-09	-6.826248e+00	-9.070770e+01
7.000000e-08	-9.069243e-07	-1.398310e-09	-6.815075e+00	-9.070432e+01
8.000000e-08	-9.050064e-07	-1.397252e-09	-6.800663e+00	-9.066391e+01
9.000000e-08	-9.027427e-07	-1.391138e-09	-6.783652e+00	-9.053368e+01
1.000000e-07	-9.001184e-07	-1.403737e-09	-6.763932e+00	-9.028465e+01
1.100000e-07	-8.971618e-07	-1.379786e-09	-6.741715e+00	-8.992821e+01
1.200000e-07	-8.940657e-07	-1.371183e-09	-6.718449e+00	-8.951315e+01
1.300000e-07	-8.908837e-07	-1.369220e-09	-6.694538e+00	-8.910357e+01
1.400000e-07	-8.874996e-07	-1.369574e-09	-6.669108e+00	-8.874851e+01
1.500000e-07	-8.838057e-07	-1.363825e-09	-6.641351e+00	-8.845865e+01
1.600000e-07	-8.798345e-07	-1.341364e-09	-6.611509e+00	-8.820208e+01
1.700000e-07	-8.756533e-07	-1.342386e-09	-6.580089e+00	-8.792109e+01
1.800000e-07	-8.712062e-07	-1.344756e-09	-6.546672e+00	-8.756122e+01
1.900000e-07	-8.664786e-07	-1.338452e-09	-6.511146e+00	-8.709743e+01
2.000000e-07	-8.615170e-07	-1.314542e-09	-6.473862e+00	-8.654461e+01
2.100000e-07	-8.563217e-07	-1.303036e-09	-6.434823e+00	-8.594795e+01
2.200000e-07	-8.508378e-07	-1.301811e-09	-6.393613e+00	-8.535920e+01
2.300000e-07	-8.450330e-07	-1.298951e-09	-6.349993e+00	-8.481157e+01
2.400000e-07	-8.389718e-07	-1.288290e-09	-6.304446e+00	-8.430549e+01
2.500000e-07	-8.327264e-07	-1.271800e-09	-6.257516e+00	-8.381100e+01
2.600000e-07	-8.262555e-07	-1.263346e-09	-6.208890e+00	-8.328376e+01
2.700000e-07	-8.195004e-07	-1.253339e-09	-6.158129e+00	-8.268561e+01
2.800000e-07	-8.125088e-07	-1.242741e-09	-6.105590e+00	-8.199975e+01
2.900000e-07	-8.053312e-07	-1.228041e-09	-6.051655e+00	-8.123476e+01
3.000000e-07	-7.979090e-07	-1.216773e-09	-5.995880e+00	-8.041798e+01
3.100000e-07	-7.901820e-07	-1.202610e-09	-5.937816e+00	-7.958318e+01
3.200000e-07	-7.821838e-07	-1.192866e-09	-5.877713e+00	-7.875868e+01
3.300000e-07	-7.739795e-07	-1.178057e-09	-5.816062e+00	-7.795992e+01
3.400000e-07	-7.655850e-07	-1.161092e-09	-5.752982e+00	-7.718722e+01
3.500000e-07	-7.569590e-07	-1.144335e-09	-5.688162e+00	-7.642755e+01
3.600000e-07	-7.481338e-07	-1.138431e-09	-5.621845e+00	-7.565857e+01
3.700000e-07	-7.391445e-07	-1.133916e-09	-5.554295e+00	-7.485425e+01
3.800000e-07	-7.299289e-07	-1.117688e-09	-5.485045e+00	-7.399192e+01
3.900000e-07	-7.204521e-07	-1.092234e-09	-5.413831e+00	-7.305964e+01
4.000000e-07	-7.107815e-07	-1.075228e-09	-5.341162e+00	-7.206169e+01
4.100000e-07	-7.009591e-07	-1.067479e-09	-5.267351e+00	-7.101910e+01
4.200000e-07	-6.909306e-07	-1.049510e-09	-5.191992e+00	-6.996326e+01
4.300000e-07	-6.806508e-07	-1.026399e-09	-5.114745e+00	-6.892410e+01
4.400000e-07	-6.701733e-07	-1.012424e-09	-5.036012e+00	-6.791742e+01
4.500000e-07	-6.595465e-07	-1.007373e-09	-4.956156e+00	-6.693748e+01
4.600000e-07	-6.487436e-07	-9.909554e-10	-4.874978e+00	-6.595928e+01
4.700000e-07	-6.377422e-07	-9.649773e-10	-4.792308e+00	-6.495004e+01
4.800000e-07	-6.265523e-07	-9.458124e-10	-4.708222e+00	-6.388472e+01
4.900000e-07	-6.151827e-07	-9.355388e-10	-4.622785e+00	-6.275783e+01
5.000000e-07	-6.036163e-07	-9.210070e-10	-4.535870e+00	-6.158555e+01
5.100000e-07	-5.918598e-07	-9.006533e-10	-4.447525e+00	-6.039712e+01
5.200000e-07	-5.799371e-07	-8.825700e-10	-4.357932e+00	-5.922022e+01
5.300000e-07	-5.678608e-07	-8.662326e-10	-4.267186e+00	-5.806812e+01
5.400000e-07	-5.556209e-07	-8.494029e-10	-4.175208e+00	-5.693500e+01
5.500000e-07	-5.432073e-07	-8.316474e-10	-4.081927e+00	-5.580145e+01
5.600000e-07	-5.306363e-07	-8.132649e-10	-3.987462e+00	-5.464611e+01
5.700000e-07	-5.179161e-07	-7.939540e-10	-3.891876e+00	-5.345683e+01
5.800000e-07	-5.050668e-07	-7.765810e-10	-3.795320e+00	-5.223515e+01
5.900000e-07	-4.920918e-07	-7.604231e-10	-3.697820e+00	-5.099255e+01
6.000000e-07	-4.789561e-07	-7.408870e-10	-3.599112e+00	-4.974167e+01
6.100000e-07	-4.656669e-07	-7.170783e-10	-3.499250e+00	-4.848829e+01
6.200000e-07	-4.522530e-07	-6.970818e-10	-3.398451e+00	-4.722899e+01
6.300000e-07	-4.387270e-07	-6.828932e-10	-3.296811e+00	-4.595538e+01
6.400000e-07	-4.250830e-07	-6.656183e-10	-3.194283e+00	-4.466144e+01
6.500000e-07	-4.113047e-07	-6.424593e-10	-3.090745e+00	-4.334877e+01
6.600000e-07	-3.973815e-07	-6.190236e-10	-2.986120e+00	-4.202606e+01
6.700000e-07	-3.833286e-07	-6.003887e-10	-2.880520e+00	-4.070277e+01
6.800000e-07	-3.691643e-07	-5.824146e-10	-2.774082e+00	-3.938130e+01
6.900000e-07	-3.548728e-07	-5.598905e-10	-2.666689e+00	-3.805275e+01
7.000000e-07	-3.404371e-07	-5.358116e-10	-2.558211e+00	-3.669989e+01
7.100000e-07	-3.258845e-07	-5.148508e-10	-2.448856e+00	-3.530626e+01
7.200000e-07	-3.112664e-07	-4.950012e-10	-2.339009e+00	-3.386677e+01
7.300000e-07	-2.965764e-07	-4.723377e-10	-2.228621e+00	-3.239343e+01
7.400000e-07	-2.817904e-07	-4.472687e-10	-2.117512e+00	-3.091242e+01
7.500000e-07	-2.669293e-07	-4.244812e-10	-2.005838e+00	-2.945293e+01
7.600000e-07	-2.520176e-07	-4.037429e-10	-1.893784e+00	-2.803293e+01
7.700000e-07	-2.370520e-07	-3.818033e-10	-1.781325e+00	-2.664889e+01
7.800000e-07	-2.220255e-07	-3.576206e-10	-1.668409e+00	-2.527509e+01
7.900000e-07	-2.069415e-07	-3.328240e-10	-1.555060e+00	-2.387362e+01
8.000000e-07	-1.917985e-07	-3.101853e-10	-1.441268e+00	-2.241104e+01
8.100000e-07	-1.765976e-07	-2.886628e-10	-1.327041e+00	-2.087437e+01
8.200000e-07	-1.613483e-07	-2.654252e-10	-1.212451e+00	-1.927896e+01
8.300000e-07	-1.460667e-07	-2.394122e-10	-1.097617e+00	-1.766417e+01
8.400000e-07	-1.307598e-07	-2.144074e-10	-9.825937e-01	-1.607811e+01
8.500000e-07	-1.154193e-07	-1.918859e-10	-8.673176e-01	-1.455770e+01
8.600000e-07	-1.000323e-07	-1.705187e-10	-7.516922e-01	-1.311257e+01
8.700000e-07	-8.459533e-08	-1.480757e-10	-6.356909e-01	-1.172010e+01
8.800000e-07	-6.912304e-08	-1.248790e-10	-5.194245e-01	-1.033423e+01
8.900000e-07	-5.363328e-08	-1.024146e-10	-4.030268e-01	-8.904850e+00
9.000000e-07	-3.813200e-08	-8.064513e-11	-2.865426e-01	-7.399619e+00
9.100000e-07	-2.261478e-08	-5.763519e-11	-1.699385e-01	-5.818526e+00
9.200000e-07	-7.082413e-09	-3.145497e-11	-5.322073e-02	-4.194429e+00
9.300000e-07	8.459018e-09	-5.562163e-12	6.356522e-02	-2.578775e+00
9.400000e-07	2.399592e-08	1.835046e-11	1.803172e-01	-1.018547e+00
9.500000e-07	3.950953e-08	4.145964e-11	2.968940e-01	4.651373e-01
9.600000e-07	5.499755e-08	6.479053e-11	4.132786e-01	1.886737e+00
9.700000e-07	7.045758e-08	8.602481e-11	5.294529e-01	3.289460e+00
9.800000e-07	8.588877e-08	1.063240e-10	6.454105e-01	4.724883e+00
9.900000e-07	1.012881e-07	1.277526e-10	7.611289e-01	6.228616e+00
1.000000e-06	1.166574e-07	1.512163e-10	8.766209e-01	7.803732e+00
1.010000e-06	1.319938e-07	1.764000e-10	9.918664e-01	9.419950e+00
1.020000e-06	1.472906e-07	2.004991e-10	1.106814e+00	1.102879e+01
1.030000e-06	1.625498e-07	2.220454e-10	1.221479e+00	1.258696e+01
1.040000e-06	1.777635e-07	2.433371e-10	1.335802e+00	1.407626e+01
1.050000e-06	1.929275e-07	2.662970e-10	1.449752e+00	1.551030e+01
1.060000e-06	2.080430e-07	2.883577e-10	1.563337e+00	1.692546e+01
1.070000e-06	2.231068e-07	3.100405e-10	1.676534e+00	1.836153e+01
1.080000e-06	2.381099e-07	3.307883e-10	1.789275e+00	1.984259e+01
1.090000e-06	2.530526e-07	3.535152e-10	1.901562e+00	2.136756e+01
1.100000e-06	2.679465e-07	3.772197e-10	2.013482e+00	2.291423e+01
1.110000e-06	2.827821e-07	3.964670e-10	2.124963e+00	2.445291e+01
1.120000e-06	2.975238e-07	4.160423e-10	2.235740e+00	2.596112e+01
1.130000e-06	3.121623e-07	4.381845e-10	2.345741e+00	2.743130e+01
1.140000e-06	3.267140e-07	4.604232e-10	2.455090e+00	2.886872e+01
1.150000e-06	3.411603e-07	4.809190e-10	2.563646e+00	3.028285e+01
1.160000e-06	3.554881e-07	5.000012e-10	2.671313e+00	3.167943e+01
1.170000e-06	3.697113e-07	5.188186e-10	2.778192e+00	3.305872e+01
1.180000e-06	3.838398e-07	5.370843e-10	2.884361e+00	3.442075e+01
1.190000e-06	3.978644e-07	5.544783e-10	2.989748e+00	3.577274e+01
1.200000e-06	4.117385e-07	5.729060e-10	3.094005e+00	3.713175e+01
1.210000e-06	4.254604e-07	5.941948e-10	3.197118e+00	3.851877e+01
1.220000e-06	4.390616e-07	6.170609e-10	3.299325e+00	3.994614e+01
1.230000e-06	4.525461e-07	6.378819e-10	3.400654e+00	4.140597e+01
1.240000e-06	4.659145e-07	6.562892e-10	3.501111e+00	4.286774e+01
1.250000e-06	4.791640e-07	6.757043e-10	3.600674e+00	4.428897e+01
1.260000e-06	4.922585e-07	6.958661e-10	3.699073e+00	4.563487e+01
1.270000e-06	5.051888e-07	7.143830e-10	3.796237e+00	4.689712e+01
1.280000e-06	5.179843e-07	7.302796e-10	3.892389e+00	4.810081e+01
1.290000e-06	5.306442e-07	7.455292e-10	3.987521e+00	4.929451e+01
1.300000e-06	5.431773e-07	7.614773e-10	4.081702e+00	5.052757e+01
1.310000e-06	5.555656e-07	7.795521e-10	4.174793e+00	5.182566e+01
1.320000e-06	5.677774e-07	7.989244e-10	4.266559e+00	5.317761e+01
1.330000e-06	5.798267e-07	8.175254e-10	4.357103e+00	5.454036e+01
1.340000e-06	5.917148e-07	8.358124e-10	4.446436e+00	5.585971e+01
1.350000e-06	6.034243e-07	8.544488e-10	4.534427e+00	5.709603e+01
1.360000e-06	6.149368e-07	8.717826e-10	4.620938e+00	5.824200e+01
1.370000e-06	6.262560e-07	8.867319e-10	4.705996e+00	5.932368e+01
1.380000e-06	6.374043e-07	9.018742e-10	4.789769e+00	6.038557e+01
1.390000e-06	6.483947e-07	9.177479e-10	4.872357e+00	6.146811e+01
1.400000e-06	6.592153e-07	9.351977e-10	4.953668e+00	6.258936e+01
1.410000e-06	6.698294e-07	9.531345e-10	5.033428e+00	6.373924e+01
1.420000e-06	6.802365e-07	9.695473e-10	5.111631e+00	6.488753e+01
1.430000e-06	6.904600e-07	9.841389e-10	5.188456e+00	6.599988e+01
1.440000e-06	7.004973e-07	9.977230e-10	5.263881e+00	6.705299e+01
1.450000e-06	7.103186e-07	1.011446e-09	5.337684e+00	6.804226e+01
1.460000e-06	7.199278e-07	1.024500e-09	5.409891e+00	6.898017e+01
1.470000e-06	7.293535e-07	1.037594e-09	5.480721e+00	6.988866e+01
1.480000e-06	7.385747e-07	1.051622e-09	5.550014e+00	7.079042e+01
1.490000e-06	7.475712e-07	1.067137e-09	5.617618e+00	7.170280e+01
1.500000e-06	7.563562e-07	1.082442e-09	5.683633e+00	7.263507e+01
1.510000e-06	7.649498e-07	1.096154e-09	5.748209e+00	7.358749e+01
1.520000e-06	7.733360e-07	1.109187e-09	5.811227e+00	7.455092e+01
1.530000e-06	7.814872e-07	1.123669e-09	5.872479e+00	7.550722e+01
1.540000e-06	7.894107e-07	1.138611e-09	5.932020e+00	7.643228e+01
1.550000e-06	7.971020e-07	1.151377e-09	5.989816e+00	7.730275e+01
1.560000e-06	8.045484e-07	1.162717e-09	6.045772e+00	7.810523e+01
1.570000e-06	8.117600e-07	1.173557e-09	6.099964e+00	7.884375e+01
1.580000e-06	8.187550e-07	1.184236e-09	6.152528e+00	7.954064e+01
1.590000e-06	8.255131e-07	1.195577e-09	6.203311e+00	8.022846e+01
1.600000e-06	8.320284e-07	1.207758e-09	6.252271e+00	8.093537e+01
1.610000e-06	8.383226e-07	1.219442e-09	6.299569e+00	8.167093e+01
1.620000e-06	8.443921e-07	1.230028e-09	6.345177e+00	8.241980e+01
1.630000e-06	8.502186e-07	1.240274e-09	6.388961e+00	8.314774e+01
1.640000e-06	8.557982e-07	1.250169e-09	6.430889e+00	8.381769e+01
1.650000e-06	8.611241e-07	1.260068e-09	6.470910e+00	8.440787e+01
1.660000e-06	8.661639e-07	1.269101e-09	6.508781e+00	8.492265e+01
1.670000e-06	8.709354e-07	1.276108e-09	6.544637e+00	8.539042e+01
1.680000e-06	8.754775e-07	1.283960e-09	6.578769e+00	8.584949e+01
1.690000e-06	8.797755e-07	1.293528e-09	6.611066e+00	8.632969e+01
1.700000e-06	8.838146e-07	1.302628e-09	6.641417e+00	8.683905e+01
1.710000e-06	8.876266e-07	1.311216e-09	6.670063e+00	8.736200e+01
1.720000e-06	8.912119e-07	1.318032e-09	6.697004e+00	8.786886e+01
1.730000e-06	8.945360e-07	1.323610e-09	6.721983e+00	8.833048e+01
1.740000e-06	8.976104e-07	1.329377e-09	6.745086e+00	8.873014e+01
1.750000e-06	9.004411e-07	1.334103e-09	6.766357e+00	8.906723e+01
1.760000e-06	9.030042e-07	1.337961e-09	6.785618e+00	8.935270e+01
1.770000e-06	9.053150e-07	1.342480e-09	6.802982e+00	8.960110e+01
1.780000e-06	9.074007e-07	1.347835e-09	6.818655e+00	8.982432e+01
1.790000e-06	9.092248e-07	1.352188e-09	6.832362e+00	9.003025e+01
1.800000e-06	9.107646e-07	1.354046e-09	6.843933e+00	9.022469e+01
1.810000e-06	9.120251e-07	1.355107e-09	6.853405e+00	9.041288e+01
1.820000e-06	9.130058e-07	1.358204e-09	6.860774e+00	9.059767e+01
1.830000e-06	9.137306e-07	1.361673e-09	6.866221e+00	9.077502e+01
1.840000e-06	9.142092e-07	1.365464e-09	6.869817e+00	9.093085e+01
1.850000e-06	9.144265e-07	1.368038e-09	6.871450e+00	9.104364e+01
1.860000e-06	9.143767e-07	1.368753e-09	6.871076e+00	9.109388e+01
1.870000e-06	9.140595e-07	1.369243e-09	6.868693e+00	9.107622e+01
1.880000e-06	9.134958e-07	1.366110e-09	6.864457e+00	9.100688e+01
1.890000e-06	9.126722e-07	1.358777e-09	6.858268e+00	9.091997e+01
1.900000e-06	9.115252e-07	1.354329e-09	6.849648e+00	9.085222e+01
1.910000e-06	9.100997e-07	1.374361e-09	6.838936e+00	9.082286e+01
1.920000e-06	9.084842e-07	1.369157e-09	6.826797e+00	9.081959e+01
1.930000e-06	9.067281e-07	1.366081e-09	6.813601e+00	9.079982e+01
1.940000e-06	9.047211e-07	1.362634e-09	6.798519e+00	9.070859e+01
1.950000e-06	9.022689e-07	1.354032e-09	6.780092e+00	9.050522e+01
1.960000e-06	8.993922e-07	1.360663e-09	6.758475e+00	9.018516e+01
1.970000e-06	8.963647e-07	1.351503e-09	6.735725e+00	8.978486e+01
1.980000e-06	8.933096e-07	1.348463e-09	6.712767e+00	8.936613e+01
1.990000e-06	8.900447e-07	1.331718e-09	6.688233e+00	8.898711e+01
2.000000e-06	8.863794e-07	1.335726e-09	6.660690e+00	8.867453e+01
2.010000e-06	8.823588e-07	1.338032e-09	6.630478e+00	8.841154e+01
2.020000e-06	8.782157e-07	1.333505e-09	6.599345e+00	8.814705e+01
2.030000e-06	8.739502e-07	1.323462e-09	6.567292e+00	8.782183e+01
2.040000e-06	8.693661e-07	1.317634e-09	6.532844e+00	8.739751e+01
2.050000e-06	8.643813e-07	1.321351e-09	6.495386e+00	8.687411e+01
2.060000e-06	8.591740e-07	1.311586e-09	6.456256e+00	8.628769e+01
2.070000e-06	8.538460e-07	1.296532e-09	6.416219e+00	8.569074e+01
2.080000e-06	8.482424e-07	1.283239e-09	6.374110e+00	8.512586e+01
2.090000e-06	8.422773e-07	1.282449e-09	6.329286e+00	8.460644e+01
2.100000e-06	8.360720e-07	1.279334e-09	6.282656e+00	8.411260e+01
2.110000e-06	8.297331e-07	1.273924e-09	6.235022e+00	8.360298e+01
2.120000e-06	8.231497e-07	1.262441e-09	6.185551e+00	8.303487e+01
2.130000e-06	8.162190e-07	1.254342e-09	6.133471e+00	8.238232e+01
2.140000e-06	8.090370e-07	1.245515e-09	6.079501e+00	8.164469e+01
2.150000e-06	8.017198e-07	1.235555e-09	6.024517e+00	8.084355e+01
2.160000e-06	7.941758e-07	1.219989e-09	5.967828e+00	8.001179e+01
2.170000e-06	7.862966e-07	1.206496e-09	5.908620e+00	7.918095e+01
2.180000e-06	7.781662e-07	1.196772e-09	5.847523e+00	7.837180e+01
2.190000e-06	7.699004e-07	1.190181e-09	5.785410e+00	7.759032e+01
2.200000e-06	7.614316e-07	1.180779e-09	5.721772e+00	7.682811e+01
2.210000e-06	7.526607e-07	1.165419e-09	5.655862e+00	7.606573e+01
2.220000e-06	7.436669e-07	1.151535e-09	5.588279e+00	7.527778e+01
2.230000e-06	7.345250e-07	1.142818e-09	5.519582e+00	7.443945e+01
2.240000e-06	7.251748e-07	1.134688e-09	5.449320e+00	7.353396e+01
2.250000e-06	7.155736e-07	1.116059e-09	5.377172e+00	7.255912e+01
2.260000e-06	7.057825e-07	1.097519e-09	5.303597e+00	7.153005e+01
2.270000e-06	6.958332e-07	1.085979e-09	5.228833e+00	7.047541e+01
2.280000e-06	6.856606e-07	1.077667e-09	5.152391e+00	6.942726e+01
2.290000e-06	6.752336e-07	1.057585e-09	5.074038e+00	6.840797e+01
2.300000e-06	6.646384e-07	1.037967e-09	4.994420e+00	6.742019e+01
2.310000e-06	6.539183e-07	1.028340e-09	4.913864e+00	6.644520e+01
2.320000e-06	6.430141e-07	1.019046e-09	4.831924e+00	6.545140e+01
2.330000e-06	6.318842e-07	9.985799e-10	4.748288e+00	6.440908e+01
2.340000e-06	6.205550e-07	9.769288e-10	4.663155e+00	6.330458e+01
2.350000e-06	6.090467e-07	9.641786e-10	4.576676e+00	6.214642e+01
2.360000e-06	5.973449e-07	9.493018e-10	4.488743e+00	6.096050e+01
2.370000e-06	5.854637e-07	9.275551e-10	4.399462e+00	5.977685e+01
2.380000e-06	5.734264e-07	9.073509e-10	4.309008e+00	5.861525e+01
2.390000e-06	5.612322e-07	8.944441e-10	4.217375e+00	5.747689e+01
2.400000e-06	5.488750e-07	8.777127e-10	4.124516e+00	5.634630e+01
2.410000e-06	5.363583e-07	8.562940e-10	4.030460e+00	5.520135e+01
2.420000e-06	5.236918e-07	8.394175e-10	3.935277e+00	5.402547e+01
2.430000e-06	5.108824e-07	8.235309e-10	3.839021e+00	5.281508e+01
2.440000e-06	4.979432e-07	8.024936e-10	3.741790e+00	5.157881e+01
2.450000e-06	4.848752e-07	7.825826e-10	3.643591e+00	5.032998e+01
2.460000e-06	4.716421e-07	7.669364e-10	3.544151e+00	4.907759e+01
2.470000e-06	4.582571e-07	7.488369e-10	3.443569e+00	4.782149e+01
2.480000e-06	4.447586e-07	7.256871e-10	3.342135e+00	4.655436e+01
2.490000e-06	4.311410e-07	7.050326e-10	3.239805e+00	4.526844e+01
2.500000e-06	4.173939e-07	6.883476e-10	3.136503e+00	4.396218e+01
2.510000e-06	4.035041e-07	6.688673e-10	3.032128e+00	4.264210e+01
2.520000e-06	3.894710e-07	6.460543e-10	2.926677e+00	4.131834e+01
2.530000e-06	3.753155e-07	6.255229e-10	2.820305e+00	3.999672e+01
2.540000e-06	3.610559e-07	6.072747e-10	2.713152e+00	3.867266e+01
2.550000e-06	3.466915e-07	5.863578e-10	2.605211e+00	3.733124e+01
2.560000e-06	3.322278e-07	5.628621e-10	2.496523e+00	3.595443e+01
2.570000e-06	3.176849e-07	5.395474e-10	2.387241e+00	3.453180e+01
2.580000e-06	3.030806e-07	5.196887e-10	2.277497e+00	3.306879e+01
2.590000e-06	2.883987e-07	5.002531e-10	2.167169e+00	3.158720e+01
2.600000e-06	2.736020e-07	4.768125e-10	2.055980e+00	3.011675e+01
2.610000e-06	2.586954e-07	4.525603e-10	1.943964e+00	2.868119e+01
2.620000e-06	2.437177e-07	4.328429e-10	1.831414e+00	2.728571e+01
2.630000e-06	2.286867e-07	4.159364e-10	1.718464e+00	2.591230e+01
2.640000e-06	2.135910e-07	3.950200e-10	1.605028e+00	2.452588e+01
2.650000e-06	1.984367e-07	3.704151e-10	1.491151e+00	2.308923e+01
2.660000e-06	1.832421e-07	3.470172e-10	1.376972e+00	2.158022e+01
2.670000e-06	1.680042e-07	3.253906e-10	1.262466e+00	2.000339e+01
2.680000e-06	1.527141e-07	3.022563e-10	1.147569e+00	1.839040e+01
2.690000e-06	1.373887e-07	2.761867e-10	1.032406e+00	1.678832e+01
2.700000e-06	1.220400e-07	2.506178e-10	9.170689e-01	1.524056e+01
2.710000e-06	1.066633e-07	2.300838e-10	8.015205e-01	1.376829e+01
2.720000e-06	9.125876e-08	2.111096e-10	6.857632e-01	1.236067e+01
2.730000e-06	7.583064e-08	1.892566e-10	5.698287e-01	1.097859e+01
2.740000e-06	6.038870e-08	1.650111e-10	4.537904e-01	9.570820e+00
2.750000e-06	4.494624e-08	1.423342e-10	3.377482e-01	8.096065e+00
2.760000e-06	2.950058e-08	1.216902e-10	2.216819e-01	6.541278e+00
2.770000e-06	1.403975e-08	9.804343e-11	1.055016e-01	4.927939e+00
2.780000e-06	-1.425774e-09	7.128571e-11	-1.071397e-02	3.302954e+00
2.790000e-06	-1.687946e-08	4.740513e-11	-1.268405e-01	1.717823e+00
2.800000e-06	-3.232540e-08	2.750469e-11	-2.429089e-01	2.053072e-01
2.810000e-06	-4.777381e-08	6.530421e-12	-3.589959e-01	-1.235603e+00
2.820000e-06	-6.322180e-08	-1.627959e-11	-4.750797e-01	-2.639150e+00
2.830000e-06	-7.865335e-08	-3.971245e-11	-5.910399e-01	-4.056672e+00
2.840000e-06	-9.405629e-08	-6.229173e-11	-7.067852e-01	-5.532363e+00
2.850000e-06	-1.094418e-07	-8.589026e-11	-8.223991e-01	-7.082537e+00
2.860000e-06	-1.248168e-07	-1.124597e-10	-9.379345e-01	-8.688405e+00
2.870000e-06	-1.401538e-07	-1.393042e-10	-1.053185e+00	-1.030577e+01
2.880000e-06	-1.554376e-07	-1.630816e-10	-1.168035e+00	-1.188663e+01
2.890000e-06	-1.706761e-07	-1.840243e-10	-1.282544e+00	-1.340171e+01
2.900000e-06	-1.858723e-07	-2.055175e-10	-1.396736e+00	-1.485296e+01
2.910000e-06	-2.010160e-07	-2.279990e-10	-1.510533e+00	-1.627013e+01
2.920000e-06	-2.160993e-07	-2.498640e-10	-1.623877e+00	-1.769423e+01
2.930000e-06	-2.311356e-07	-2.720639e-10	-1.736867e+00	-1.915703e+01
2.940000e-06	-2.461343e-07	-2.963552e-10	-1.849574e+00	-2.066712e+01
2.950000e-06	-2.610710e-07	-3.220235e-10	-1.961816e+00	-2.220896e+01
