# Temperatura_=_20.0
# Concentracion g/m^3_=_10000.0
# C_Vs_to_Am_M_A/Vsm_=_65563218390.804596
# pendiente_HvsI_1/m_=_3716.3
# ordenada_HvsI_A/m_=_1297.0
# frecuencia_Hz_=_269721.95777401334

Tiempo_(s)	Campo_(V.s)	Magnetizacion_(V.s)	Campo_(kA/m)	Magnetizacion_(A/m)
0.000000e+00	-9.125081e-07	-1.406020e-09	-6.860553e+00	-9.126743e+01
1.000000e-08	-9.123018e-07	-1.411794e-09	-6.859002e+00	-9.129389e+01
2.000000e-08	-9.118217e-07	-1.410375e-09	-6.855392e+00	-9.127926e+01
3.000000e-08	-9.111402e-07	-1.409051e-09	-6.850268e+00	-9.124187e+01
4.000000e-08	-9.102207e-07	-1.424250e-09	-6.843355e+00	-9.120579e+01
5.000000e-08	-9.090808e-07	-1.419753e-09	-6.834785e+00	-9.118586e+01
6.000000e-08	-9.078369e-07	-1.374173e-09	-6.825433e+00	-9.117597e+01
7.000000e-08	-9.063095e-07	-1.397034e-09	-6.813950e+00	-9.114824e+01
8.000000e-08	-9.043460e-07	-1.398573e-09	-6.799187e+00	-9.106512e+01
9.000000e-08	-9.020470e-07	-1.393925e-09	-6.781903e+00	-9.089851e+01
1.000000e-07	-8.993908e-07	-1.422629e-09	-6.761932e+00	-9.064543e+01
1.100000e-07	-8.964192e-07	-1.377580e-09	-6.739590e+00	-9.033113e+01
1.200000e-07	-8.933191e-07	-1.366152e-09	-6.716283e+00	-8.999713e+01
1.300000e-07	-8.901255e-07	-1.374932e-09	-6.692272e+00	-8.968033e+01
1.400000e-07	-8.867203e-07	-1.385688e-09	-6.666671e+00	-8.939432e+01
1.500000e-07	-8.830059e-07	-1.377461e-09	-6.638745e+00	-8.912315e+01
1.600000e-07	-8.790102e-07	-1.331925e-09	-6.608704e+00	-8.883075e+01
1.700000e-07	-8.747993e-07	-1.340569e-09	-6.577045e+00	-8.848059e+01
1.800000e-07	-8.703303e-07	-1.360479e-09	-6.543445e+00	-8.805479e+01
1.900000e-07	-8.655819e-07	-1.359012e-09	-6.507746e+00	-8.756238e+01
2.000000e-07	-8.606004e-07	-1.316181e-09	-6.470292e+00	-8.703286e+01
2.100000e-07	-8.553802e-07	-1.298951e-09	-6.431046e+00	-8.649945e+01
2.200000e-07	-8.498545e-07	-1.313799e-09	-6.389502e+00	-8.598177e+01
2.300000e-07	-8.440124e-07	-1.320897e-09	-6.345578e+00	-8.547726e+01
2.400000e-07	-8.379314e-07	-1.305178e-09	-6.299859e+00	-8.496504e+01
2.500000e-07	-8.316724e-07	-1.276192e-09	-6.252802e+00	-8.441890e+01
2.600000e-07	-8.251797e-07	-1.271887e-09	-6.203987e+00	-8.382134e+01
2.700000e-07	-8.184034e-07	-1.268217e-09	-6.153041e+00	-8.317091e+01
2.800000e-07	-8.114039e-07	-1.257592e-09	-6.100417e+00	-8.248002e+01
2.900000e-07	-8.042119e-07	-1.235733e-09	-6.046345e+00	-8.176597e+01
3.000000e-07	-7.967610e-07	-1.226789e-09	-5.990326e+00	-8.104144e+01
3.100000e-07	-7.890108e-07	-1.218869e-09	-5.932057e+00	-8.030997e+01
3.200000e-07	-7.809967e-07	-1.215618e-09	-5.871805e+00	-7.956779e+01
3.300000e-07	-7.727799e-07	-1.198642e-09	-5.810027e+00	-7.880937e+01
3.400000e-07	-7.643696e-07	-1.176560e-09	-5.746796e+00	-7.803182e+01
3.500000e-07	-7.557207e-07	-1.156819e-09	-5.681770e+00	-7.723516e+01
3.600000e-07	-7.468777e-07	-1.155112e-09	-5.615286e+00	-7.641890e+01
3.700000e-07	-7.378762e-07	-1.155197e-09	-5.547610e+00	-7.557841e+01
3.800000e-07	-7.286485e-07	-1.135099e-09	-5.478233e+00	-7.470481e+01
3.900000e-07	-7.191566e-07	-1.105059e-09	-5.406869e+00	-7.378940e+01
4.000000e-07	-7.094736e-07	-1.092356e-09	-5.334069e+00	-7.283012e+01
4.100000e-07	-6.996365e-07	-1.095194e-09	-5.260110e+00	-7.183545e+01
4.200000e-07	-6.895864e-07	-1.076353e-09	-5.184550e+00	-7.082211e+01
4.300000e-07	-6.792914e-07	-1.044309e-09	-5.107149e+00	-6.980718e+01
4.400000e-07	-6.688036e-07	-1.027729e-09	-5.028297e+00	-6.879850e+01
4.500000e-07	-6.581596e-07	-1.030321e-09	-4.948272e+00	-6.778950e+01
4.600000e-07	-6.473404e-07	-1.013276e-09	-4.866930e+00	-6.676202e+01
4.700000e-07	-6.363299e-07	-9.773377e-10	-4.784149e+00	-6.569625e+01
4.800000e-07	-6.251311e-07	-9.542333e-10	-4.699952e+00	-6.458257e+01
4.900000e-07	-6.137508e-07	-9.509780e-10	-4.614392e+00	-6.342837e+01
5.000000e-07	-6.021701e-07	-9.395661e-10	-4.527324e+00	-6.225587e+01
5.100000e-07	-5.903975e-07	-9.138094e-10	-4.438814e+00	-6.109140e+01
5.200000e-07	-5.784594e-07	-8.932211e-10	-4.349059e+00	-5.995200e+01
5.300000e-07	-5.663762e-07	-8.786354e-10	-4.258213e+00	-5.883636e+01
5.400000e-07	-5.541322e-07	-8.628804e-10	-4.166158e+00	-5.772501e+01
5.500000e-07	-5.417111e-07	-8.429968e-10	-4.072772e+00	-5.658968e+01
5.600000e-07	-5.291349e-07	-8.228499e-10	-3.978220e+00	-5.540669e+01
5.700000e-07	-5.164125e-07	-8.016371e-10	-3.882568e+00	-5.416772e+01
5.800000e-07	-5.035630e-07	-7.850636e-10	-3.785961e+00	-5.288266e+01
5.900000e-07	-4.905904e-07	-7.707024e-10	-3.688429e+00	-5.157387e+01
6.000000e-07	-4.774540e-07	-7.487799e-10	-3.589665e+00	-5.026546e+01
6.100000e-07	-4.641551e-07	-7.206248e-10	-3.489680e+00	-4.897317e+01
6.200000e-07	-4.507320e-07	-7.006758e-10	-3.388759e+00	-4.769936e+01
6.300000e-07	-4.371992e-07	-6.913749e-10	-3.287015e+00	-4.643469e+01
6.400000e-07	-4.235490e-07	-6.746698e-10	-3.184389e+00	-4.516428e+01
6.500000e-07	-4.097726e-07	-6.466868e-10	-3.080813e+00	-4.387472e+01
6.600000e-07	-3.958510e-07	-6.224363e-10	-2.976145e+00	-4.255866e+01
6.700000e-07	-3.817969e-07	-6.079419e-10	-2.870482e+00	-4.121570e+01
6.800000e-07	-3.676331e-07	-5.893619e-10	-2.763993e+00	-3.985041e+01
6.900000e-07	-3.533437e-07	-5.615580e-10	-2.656561e+00	-3.846941e+01
7.000000e-07	-3.389166e-07	-5.356745e-10	-2.548092e+00	-3.707903e+01
7.100000e-07	-3.243684e-07	-5.196517e-10	-2.438714e+00	-3.568416e+01
7.200000e-07	-3.097470e-07	-5.046226e-10	-2.328786e+00	-3.428792e+01
7.300000e-07	-2.950556e-07	-4.807386e-10	-2.218331e+00	-3.289156e+01
7.400000e-07	-2.802731e-07	-4.531708e-10	-2.107190e+00	-3.149412e+01
7.500000e-07	-2.654129e-07	-4.306774e-10	-1.995466e+00	-3.009244e+01
7.600000e-07	-2.505007e-07	-4.125426e-10	-1.883351e+00	-2.868162e+01
7.700000e-07	-2.355346e-07	-3.905670e-10	-1.770831e+00	-2.725615e+01
7.800000e-07	-2.205014e-07	-3.629108e-10	-1.657806e+00	-2.581153e+01
7.900000e-07	-2.054085e-07	-3.370251e-10	-1.544333e+00	-2.434560e+01
8.000000e-07	-1.902591e-07	-3.183412e-10	-1.430434e+00	-2.285933e+01
8.100000e-07	-1.750570e-07	-2.988462e-10	-1.316140e+00	-2.135686e+01
8.200000e-07	-1.598132e-07	-2.726061e-10	-1.201531e+00	-1.984491e+01
8.300000e-07	-1.445413e-07	-2.466772e-10	-1.086712e+00	-1.833161e+01
8.400000e-07	-1.292409e-07	-2.260796e-10	-9.716782e-01	-1.682471e+01
8.500000e-07	-1.139033e-07	-2.067921e-10	-8.563649e-01	-1.532924e+01
8.600000e-07	-9.852054e-08	-1.836435e-10	-7.407116e-01	-1.384516e+01
8.700000e-07	-8.308969e-08	-1.582255e-10	-6.246972e-01	-1.236623e+01
8.800000e-07	-6.762535e-08	-1.362808e-10	-5.084308e-01	-1.088134e+01
8.900000e-07	-5.214545e-08	-1.171104e-10	-3.920476e-01	-9.378736e+00
9.000000e-07	-3.665965e-08	-9.579633e-11	-2.756200e-01	-7.851930e+00
9.100000e-07	-2.115234e-08	-7.058109e-11	-1.590307e-01	-6.304526e+00
9.200000e-07	-5.625427e-09	-4.602361e-11	-4.229392e-02	-4.750952e+00
9.300000e-07	9.900896e-09	-2.473083e-11	7.443837e-02	-3.211522e+00
9.400000e-07	2.542340e-08	-3.493835e-12	1.911419e-01	-1.703252e+00
9.500000e-07	4.093354e-08	2.054916e-11	3.077526e-01	-2.306263e-01
9.600000e-07	5.641975e-08	4.506298e-11	4.241833e-01	1.218613e+00
9.700000e-07	7.187607e-08	6.571992e-11	5.403893e-01	2.669516e+00
9.800000e-07	8.729848e-08	8.540245e-11	6.563403e-01	4.148795e+00
9.900000e-07	1.026874e-07	1.072358e-10	7.720395e-01	5.671652e+00
1.000000e-06	1.180450e-07	1.311930e-10	8.875033e-01	7.233427e+00
1.010000e-06	1.333690e-07	1.544840e-10	1.002714e+00	8.810982e+00
1.020000e-06	1.486532e-07	1.749740e-10	1.117626e+00	1.037382e+01
1.030000e-06	1.638945e-07	1.946184e-10	1.232216e+00	1.189962e+01
1.040000e-06	1.790939e-07	2.175050e-10	1.346490e+00	1.338616e+01
1.050000e-06	1.942477e-07	2.417611e-10	1.460421e+00	1.485315e+01
1.060000e-06	2.093529e-07	2.636819e-10	1.573988e+00	1.633265e+01
1.070000e-06	2.244003e-07	2.863292e-10	1.687119e+00	1.785290e+01
1.080000e-06	2.393828e-07	3.100745e-10	1.799763e+00	1.942377e+01
1.090000e-06	2.543053e-07	3.348855e-10	1.911955e+00	2.103131e+01
1.100000e-06	2.691712e-07	3.577934e-10	2.023722e+00	2.264394e+01
1.110000e-06	2.839727e-07	3.768587e-10	2.135006e+00	2.422678e+01
1.120000e-06	2.986867e-07	3.973833e-10	2.245630e+00	2.575658e+01
1.130000e-06	3.133059e-07	4.198118e-10	2.355543e+00	2.722995e+01
1.140000e-06	3.278342e-07	4.413492e-10	2.464772e+00	2.866154e+01
1.150000e-06	3.422589e-07	4.614540e-10	2.573221e+00	3.007442e+01
1.160000e-06	3.565706e-07	4.820700e-10	2.680822e+00	3.148842e+01
1.170000e-06	3.707793e-07	5.026078e-10	2.787647e+00	3.291252e+01
1.180000e-06	3.848947e-07	5.221720e-10	2.893772e+00	3.434417e+01
1.190000e-06	3.988939e-07	5.410628e-10	2.999023e+00	3.577435e+01
1.200000e-06	4.127420e-07	5.614238e-10	3.103137e+00	3.719432e+01
1.210000e-06	4.264503e-07	5.836162e-10	3.206202e+00	3.859987e+01
1.220000e-06	4.400383e-07	6.057517e-10	3.308361e+00	3.999168e+01
1.230000e-06	4.534982e-07	6.253699e-10	3.409557e+00	4.137268e+01
1.240000e-06	4.668399e-07	6.433743e-10	3.509864e+00	4.274528e+01
1.250000e-06	4.800617e-07	6.625071e-10	3.609270e+00	4.411023e+01
1.260000e-06	4.931285e-07	6.817573e-10	3.707512e+00	4.546738e+01
1.270000e-06	5.060403e-07	7.010922e-10	3.804586e+00	4.681652e+01
1.280000e-06	5.188173e-07	7.198094e-10	3.900648e+00	4.815700e+01
1.290000e-06	5.314609e-07	7.388480e-10	3.995708e+00	4.948596e+01
1.300000e-06	5.439772e-07	7.581283e-10	4.089809e+00	5.079680e+01
1.310000e-06	5.563445e-07	7.772682e-10	4.182791e+00	5.208023e+01
1.320000e-06	5.685342e-07	7.944519e-10	4.274437e+00	5.332825e+01
1.330000e-06	5.805653e-07	8.102041e-10	4.364892e+00	5.453947e+01
1.340000e-06	5.924431e-07	8.269440e-10	4.454193e+00	5.572213e+01
1.350000e-06	6.041396e-07	8.453443e-10	4.542132e+00	5.689194e+01
1.360000e-06	6.156285e-07	8.635248e-10	4.628509e+00	5.806471e+01
1.370000e-06	6.269224e-07	8.799389e-10	4.713420e+00	5.924729e+01
1.380000e-06	6.380483e-07	8.969407e-10	4.797068e+00	6.043216e+01
1.390000e-06	6.490165e-07	9.154108e-10	4.879531e+00	6.159956e+01
1.400000e-06	6.598130e-07	9.338069e-10	4.960703e+00	6.272711e+01
1.410000e-06	6.704052e-07	9.488840e-10	5.040339e+00	6.380207e+01
1.420000e-06	6.808019e-07	9.621158e-10	5.118505e+00	6.482946e+01
1.430000e-06	6.910134e-07	9.769000e-10	5.195279e+00	6.583107e+01
1.440000e-06	7.010153e-07	9.922970e-10	5.270476e+00	6.683510e+01
1.450000e-06	7.108021e-07	1.007187e-09	5.344057e+00	6.786190e+01
1.460000e-06	7.203890e-07	1.021913e-09	5.416135e+00	6.891354e+01
1.470000e-06	7.297873e-07	1.036648e-09	5.486794e+00	6.997287e+01
1.480000e-06	7.389819e-07	1.052267e-09	5.555922e+00	7.101277e+01
1.490000e-06	7.479513e-07	1.067933e-09	5.623358e+00	7.201015e+01
1.500000e-06	7.567098e-07	1.081249e-09	5.689207e+00	7.295709e+01
1.510000e-06	7.652803e-07	1.093411e-09	5.753643e+00	7.386305e+01
1.520000e-06	7.736420e-07	1.107080e-09	5.816509e+00	7.474744e+01
1.530000e-06	7.817680e-07	1.122470e-09	5.877603e+00	7.562754e+01
1.540000e-06	7.896647e-07	1.137006e-09	5.936974e+00	7.650878e+01
1.550000e-06	7.973295e-07	1.149352e-09	5.994600e+00	7.738276e+01
1.560000e-06	8.047517e-07	1.161996e-09	6.050403e+00	7.823335e+01
1.570000e-06	8.119375e-07	1.175089e-09	6.104428e+00	7.904645e+01
1.580000e-06	8.189057e-07	1.186261e-09	6.156818e+00	7.981713e+01
1.590000e-06	8.256376e-07	1.196167e-09	6.207430e+00	8.055031e+01
1.600000e-06	8.321247e-07	1.207481e-09	6.256202e+00	8.125526e+01
1.610000e-06	8.383909e-07	1.219574e-09	6.303314e+00	8.193853e+01
1.620000e-06	8.444328e-07	1.229408e-09	6.348739e+00	8.260013e+01
1.630000e-06	8.502295e-07	1.237238e-09	6.392320e+00	8.323560e+01
1.640000e-06	8.557864e-07	1.246021e-09	6.434099e+00	8.384193e+01
1.650000e-06	8.610905e-07	1.257239e-09	6.473978e+00	8.442283e+01
1.660000e-06	8.661041e-07	1.267751e-09	6.511671e+00	8.498906e+01
1.670000e-06	8.708524e-07	1.275733e-09	6.547371e+00	8.555302e+01
1.680000e-06	8.753752e-07	1.284117e-09	6.581374e+00	8.612088e+01
1.690000e-06	8.796513e-07	1.295184e-09	6.613524e+00	8.668750e+01
1.700000e-06	8.836691e-07	1.306346e-09	6.643731e+00	8.723767e+01
1.710000e-06	8.874602e-07	1.314331e-09	6.672234e+00	8.775346e+01
1.720000e-06	8.910165e-07	1.319783e-09	6.698971e+00	8.822318e+01
1.730000e-06	8.943104e-07	1.325809e-09	6.723736e+00	8.864644e+01
1.740000e-06	8.973636e-07	1.332452e-09	6.746691e+00	8.903225e+01
1.750000e-06	9.001784e-07	1.337977e-09	6.767854e+00	8.939156e+01
1.760000e-06	9.027216e-07	1.342308e-09	6.786975e+00	8.972925e+01
1.770000e-06	9.050085e-07	1.347162e-09	6.804168e+00	9.004086e+01
1.780000e-06	9.070657e-07	1.354251e-09	6.819635e+00	9.031632e+01
1.790000e-06	9.088659e-07	1.360105e-09	6.833170e+00	9.054786e+01
1.800000e-06	9.103903e-07	1.361379e-09	6.844631e+00	9.073675e+01
1.810000e-06	9.116347e-07	1.360872e-09	6.853986e+00	9.089372e+01
1.820000e-06	9.125978e-07	1.363348e-09	6.861227e+00	9.103259e+01
1.830000e-06	9.133057e-07	1.368538e-09	6.866549e+00	9.116101e+01
1.840000e-06	9.137630e-07	1.374439e-09	6.869988e+00	9.127479e+01
1.850000e-06	9.139575e-07	1.375939e-09	6.871450e+00	9.136030e+01
1.860000e-06	9.138839e-07	1.375234e-09	6.870897e+00	9.140402e+01
1.870000e-06	9.135425e-07	1.377095e-09	6.868330e+00	9.140344e+01
1.880000e-06	9.129622e-07	1.372505e-09	6.863966e+00	9.137186e+01
1.890000e-06	9.121206e-07	1.361372e-09	6.857639e+00	9.133281e+01
1.900000e-06	9.109420e-07	1.358250e-09	6.848778e+00	9.130636e+01
1.910000e-06	9.094877e-07	1.400705e-09	6.837845e+00	9.129503e+01
1.920000e-06	9.078639e-07	1.389458e-09	6.825636e+00	9.127835e+01
1.930000e-06	9.060955e-07	1.376456e-09	6.812341e+00	9.122032e+01
1.940000e-06	9.040535e-07	1.370498e-09	6.796988e+00	9.108704e+01
1.950000e-06	9.015565e-07	1.359590e-09	6.778215e+00	9.086492e+01
1.960000e-06	8.986514e-07	1.382781e-09	6.756373e+00	9.056927e+01
1.970000e-06	8.956260e-07	1.367586e-09	6.733627e+00	9.023769e+01
1.980000e-06	8.925727e-07	1.363018e-09	6.710672e+00	8.991138e+01
1.990000e-06	8.892767e-07	1.341804e-09	6.685891e+00	8.961424e+01
2.000000e-06	8.855653e-07	1.358920e-09	6.657988e+00	8.934112e+01
2.010000e-06	8.815218e-07	1.367771e-09	6.627587e+00	8.906151e+01
2.020000e-06	8.773739e-07	1.353142e-09	6.596401e+00	8.873652e+01
2.030000e-06	8.730924e-07	1.330885e-09	6.564212e+00	8.833957e+01
2.040000e-06	8.684729e-07	1.323826e-09	6.529480e+00	8.786958e+01
2.050000e-06	8.634599e-07	1.346567e-09	6.491791e+00	8.734996e+01
2.060000e-06	8.582544e-07	1.337765e-09	6.452655e+00	8.681475e+01
2.070000e-06	8.529222e-07	1.312416e-09	6.412565e+00	8.629033e+01
2.080000e-06	8.472875e-07	1.292633e-09	6.370202e+00	8.578266e+01
2.090000e-06	8.412852e-07	1.300695e-09	6.325074e+00	8.527653e+01
2.100000e-06	8.350604e-07	1.302417e-09	6.278274e+00	8.474598e+01
2.110000e-06	8.287118e-07	1.292626e-09	6.230543e+00	8.416888e+01
2.120000e-06	8.221083e-07	1.272825e-09	6.180895e+00	8.353751e+01
2.130000e-06	8.151492e-07	1.266398e-09	6.128575e+00	8.285988e+01
2.140000e-06	8.079426e-07	1.263062e-09	6.074393e+00	8.215271e+01
2.150000e-06	8.006093e-07	1.253653e-09	6.019259e+00	8.143127e+01
2.160000e-06	7.930492e-07	1.233850e-09	5.962419e+00	8.070265e+01
2.170000e-06	7.851508e-07	1.219842e-09	5.903037e+00	7.996526e+01
2.180000e-06	7.769997e-07	1.214977e-09	5.841754e+00	7.921355e+01
2.190000e-06	7.687186e-07	1.212503e-09	5.779493e+00	7.844337e+01
2.200000e-06	7.602365e-07	1.201854e-09	5.715722e+00	7.765390e+01
2.210000e-06	7.514468e-07	1.179638e-09	5.649638e+00	7.684535e+01
2.220000e-06	7.424377e-07	1.161411e-09	5.581904e+00	7.601491e+01
2.230000e-06	7.332893e-07	1.152979e-09	5.513124e+00	7.515499e+01
2.240000e-06	7.239225e-07	1.148663e-09	5.442701e+00	7.425607e+01
2.250000e-06	7.142960e-07	1.126646e-09	5.370325e+00	7.331293e+01
2.260000e-06	7.044941e-07	1.103632e-09	5.296631e+00	7.232998e+01
2.270000e-06	6.945436e-07	1.093584e-09	5.221820e+00	7.132154e+01
2.280000e-06	6.843611e-07	1.091966e-09	5.145265e+00	7.030570e+01
2.290000e-06	6.739216e-07	1.069147e-09	5.066776e+00	6.929473e+01
2.300000e-06	6.633170e-07	1.042007e-09	4.987048e+00	6.828760e+01
2.310000e-06	6.525828e-07	1.036332e-09	4.906344e+00	6.726964e+01
2.320000e-06	6.416598e-07	1.038396e-09	4.824221e+00	6.622023e+01
2.330000e-06	6.305129e-07	1.017082e-09	4.740415e+00	6.512471e+01
2.340000e-06	6.191714e-07	9.838152e-10	4.655146e+00	6.398383e+01
2.350000e-06	6.076608e-07	9.701103e-10	4.568605e+00	6.281512e+01
2.360000e-06	5.959600e-07	9.629557e-10	4.480634e+00	6.164496e+01
2.370000e-06	5.840775e-07	9.428814e-10	4.391297e+00	6.049532e+01
2.380000e-06	5.720361e-07	9.182194e-10	4.300766e+00	5.937228e+01
2.390000e-06	5.598401e-07	9.062446e-10	4.209073e+00	5.826254e+01
2.400000e-06	5.474977e-07	8.953975e-10	4.116278e+00	5.713960e+01
2.410000e-06	5.349894e-07	8.764203e-10	4.022236e+00	5.597653e+01
2.420000e-06	5.223165e-07	8.563751e-10	3.926957e+00	5.475843e+01
2.430000e-06	5.094977e-07	8.364192e-10	3.830581e+00	5.348858e+01
2.440000e-06	4.965496e-07	8.135533e-10	3.733233e+00	5.218580e+01
2.450000e-06	4.834765e-07	7.945179e-10	3.634944e+00	5.087487e+01
2.460000e-06	4.702392e-07	7.801169e-10	3.535421e+00	4.957560e+01
2.470000e-06	4.568503e-07	7.594566e-10	3.434759e+00	4.829551e+01
2.480000e-06	4.433484e-07	7.341647e-10	3.333247e+00	4.702912e+01
2.490000e-06	4.297236e-07	7.174663e-10	3.230812e+00	4.576274e+01
2.500000e-06	4.159697e-07	7.052770e-10	3.127405e+00	4.448170e+01
2.510000e-06	4.020806e-07	6.838319e-10	3.022982e+00	4.317606e+01
2.520000e-06	3.880477e-07	6.571823e-10	2.917477e+00	4.184295e+01
2.530000e-06	3.738827e-07	6.384319e-10	2.810980e+00	4.048540e+01
2.540000e-06	3.596144e-07	6.232429e-10	2.703706e+00	3.910959e+01
2.550000e-06	3.452506e-07	5.993438e-10	2.595714e+00	3.772215e+01
2.560000e-06	3.307888e-07	5.713737e-10	2.486985e+00	3.632859e+01
2.570000e-06	3.162461e-07	5.514203e-10	2.377648e+00	3.493271e+01
2.580000e-06	3.016371e-07	5.378448e-10	2.267812e+00	3.353647e+01
2.590000e-06	2.869525e-07	5.193466e-10	2.157408e+00	3.213978e+01
2.600000e-06	2.721623e-07	4.937423e-10	2.046211e+00	3.074028e+01
2.610000e-06	2.572629e-07	4.695473e-10	1.934192e+00	2.933363e+01
2.620000e-06	2.422840e-07	4.531697e-10	1.821575e+00	2.791436e+01
2.630000e-06	2.272502e-07	4.379965e-10	1.708546e+00	2.647741e+01
2.640000e-06	2.121577e-07	4.140232e-10	1.595075e+00	2.501963e+01
2.650000e-06	1.970103e-07	3.852926e-10	1.481192e+00	2.354076e+01
2.660000e-06	1.818217e-07	3.635338e-10	1.366999e+00	2.204379e+01
2.670000e-06	1.665862e-07	3.474074e-10	1.252453e+00	2.053457e+01
2.680000e-06	1.512953e-07	3.260379e-10	1.137491e+00	1.902089e+01
2.690000e-06	1.359715e-07	2.988420e-10	1.022281e+00	1.751089e+01
2.700000e-06	1.206247e-07	2.748880e-10	9.068986e-01	1.601092e+01
2.710000e-06	1.052447e-07	2.568681e-10	7.912660e-01	1.452306e+01
2.720000e-06	8.983736e-08	2.355198e-10	6.754285e-01	1.304339e+01
2.730000e-06	7.441159e-08	2.075223e-10	5.594521e-01	1.156229e+01
2.740000e-06	5.897751e-08	1.794477e-10	4.434134e-01	1.006759e+01
2.750000e-06	4.354185e-08	1.570712e-10	3.273627e-01	8.550145e+00
2.760000e-06	2.809481e-08	1.376540e-10	2.112265e-01	7.009399e+00
2.770000e-06	1.263165e-08	1.146229e-10	9.496915e-02	5.455995e+00
2.780000e-06	-2.827454e-09	8.794799e-11	-2.125778e-02	3.908956e+00
2.790000e-06	-1.827254e-08	6.470265e-11	-1.373793e-01	2.387728e+00
2.800000e-06	-3.371204e-08	4.549579e-11	-2.534588e-01	9.023598e-01
2.810000e-06	-4.915284e-08	2.230010e-11	-3.695481e-01	-5.531261e-01
2.820000e-06	-6.458839e-08	-5.912893e-12	-4.855979e-01	-1.999976e+00
2.830000e-06	-8.000697e-08	-3.260648e-11	-6.015202e-01	-3.465860e+00
2.840000e-06	-9.540560e-08	-5.444942e-11	-7.172924e-01	-4.971680e+00
2.850000e-06	-1.107898e-07	-7.648950e-11	-8.329560e-01	-6.520645e+00
2.860000e-06	-1.261583e-07	-1.028912e-10	-9.485020e-01	-8.095697e+00
2.870000e-06	-1.414881e-07	-1.317171e-10	-1.063757e+00	-9.667351e+00
2.880000e-06	-1.567617e-07	-1.567595e-10	-1.178589e+00	-1.120845e+01
2.890000e-06	-1.719849e-07	-1.786830e-10	-1.293042e+00	-1.270839e+01
2.900000e-06	-1.871676e-07	-2.022179e-10	-1.407191e+00	-1.417921e+01
2.910000e-06	-2.022984e-07	-2.273085e-10	-1.520949e+00	-1.565004e+01
2.920000e-06	-2.173759e-07	-2.502969e-10	-1.634308e+00	-1.715254e+01
2.930000e-06	-2.324103e-07	-2.713570e-10	-1.747341e+00	-1.870471e+01
2.940000e-06	-2.473980e-07	-2.955297e-10	-1.860024e+00	-2.030142e+01
2.950000e-06	-2.623137e-07	-3.238104e-10	-1.972166e+00	-2.191631e+01
