# Temperatura_=_20.0
# Concentracion g/m^3_=_10000.0
# C_Vs_to_Am_M_A/Vsm_=_65563218390.804596
# pendiente_HvsI_1/m_=_3716.3
# ordenada_HvsI_A/m_=_1297.0
# frecuencia_Hz_=_269721.1812150007

Tiempo_(s)	Campo_(V.s)	Magnetizacion_(V.s)	Campo_(kA/m)	Magnetizacion_(A/m)
0.000000e+00	-9.118854e-07	-1.406907e-09	-6.860116e+00	-9.097271e+01
1.000000e-08	-9.116852e-07	-1.409093e-09	-6.858610e+00	-9.101794e+01
2.000000e-08	-9.112198e-07	-1.408531e-09	-6.855109e+00	-9.101614e+01
3.000000e-08	-9.105548e-07	-1.408384e-09	-6.850106e+00	-9.097701e+01
4.000000e-08	-9.096482e-07	-1.415918e-09	-6.843286e+00	-9.092175e+01
5.000000e-08	-9.085154e-07	-1.408890e-09	-6.834763e+00	-9.087060e+01
6.000000e-08	-9.072795e-07	-1.382328e-09	-6.825466e+00	-9.082933e+01
7.000000e-08	-9.057771e-07	-1.398840e-09	-6.814163e+00	-9.078315e+01
8.000000e-08	-9.038397e-07	-1.395103e-09	-6.799588e+00	-9.070268e+01
9.000000e-08	-9.015578e-07	-1.390644e-09	-6.782421e+00	-9.055938e+01
1.000000e-07	-8.989165e-07	-1.407356e-09	-6.762551e+00	-9.034190e+01
1.100000e-07	-8.959531e-07	-1.377837e-09	-6.740257e+00	-9.006378e+01
1.200000e-07	-8.928602e-07	-1.371339e-09	-6.716989e+00	-8.975768e+01
1.300000e-07	-8.896822e-07	-1.373631e-09	-6.693081e+00	-8.945887e+01
1.400000e-07	-8.862971e-07	-1.379830e-09	-6.667616e+00	-8.918701e+01
1.500000e-07	-8.826019e-07	-1.373981e-09	-6.639816e+00	-8.893614e+01
1.600000e-07	-8.786235e-07	-1.343354e-09	-6.609887e+00	-8.867826e+01
1.700000e-07	-8.744301e-07	-1.345600e-09	-6.578339e+00	-8.837804e+01
1.800000e-07	-8.699731e-07	-1.353345e-09	-6.544810e+00	-8.801040e+01
1.900000e-07	-8.652323e-07	-1.349149e-09	-6.509145e+00	-8.757157e+01
2.000000e-07	-8.602602e-07	-1.320941e-09	-6.471740e+00	-8.707828e+01
2.100000e-07	-8.550560e-07	-1.311406e-09	-6.432588e+00	-8.655686e+01
2.200000e-07	-8.495550e-07	-1.313428e-09	-6.391205e+00	-8.602925e+01
2.300000e-07	-8.437404e-07	-1.311085e-09	-6.347461e+00	-8.550362e+01
2.400000e-07	-8.376832e-07	-1.300705e-09	-6.301893e+00	-8.497383e+01
2.500000e-07	-8.314438e-07	-1.281974e-09	-6.254954e+00	-8.442617e+01
2.600000e-07	-8.249741e-07	-1.273405e-09	-6.206282e+00	-8.384814e+01
2.700000e-07	-8.182162e-07	-1.265778e-09	-6.155443e+00	-8.323370e+01
2.800000e-07	-8.112257e-07	-1.260380e-09	-6.102853e+00	-8.258288e+01
2.900000e-07	-8.040496e-07	-1.246408e-09	-6.048867e+00	-8.189769e+01
3.000000e-07	-7.966178e-07	-1.233468e-09	-5.992958e+00	-8.117874e+01
3.100000e-07	-7.888785e-07	-1.218849e-09	-5.934735e+00	-8.042541e+01
3.200000e-07	-7.808764e-07	-1.214536e-09	-5.874535e+00	-7.963942e+01
3.300000e-07	-7.726698e-07	-1.202866e-09	-5.812797e+00	-7.882820e+01
3.400000e-07	-7.642698e-07	-1.182576e-09	-5.749604e+00	-7.800445e+01
3.500000e-07	-7.556423e-07	-1.162132e-09	-5.684699e+00	-7.718061e+01
3.600000e-07	-7.468147e-07	-1.157491e-09	-5.618289e+00	-7.636110e+01
3.700000e-07	-7.378251e-07	-1.155123e-09	-5.550660e+00	-7.553747e+01
3.800000e-07	-7.286167e-07	-1.136101e-09	-5.481385e+00	-7.469044e+01
3.900000e-07	-7.191447e-07	-1.109391e-09	-5.410128e+00	-7.379903e+01
4.000000e-07	-7.094748e-07	-1.096195e-09	-5.337380e+00	-7.285195e+01
4.100000e-07	-6.996585e-07	-1.095115e-09	-5.263532e+00	-7.185476e+01
4.200000e-07	-6.896345e-07	-1.077581e-09	-5.188122e+00	-7.082788e+01
4.300000e-07	-6.793561e-07	-1.049696e-09	-5.110797e+00	-6.979615e+01
4.400000e-07	-6.688782e-07	-1.032202e-09	-5.031972e+00	-6.877525e+01
4.500000e-07	-6.582490e-07	-1.028148e-09	-4.952009e+00	-6.776307e+01
4.600000e-07	-6.474472e-07	-1.013150e-09	-4.870747e+00	-6.674101e+01
4.700000e-07	-6.364508e-07	-9.859262e-10	-4.788021e+00	-6.568473e+01
4.800000e-07	-6.252616e-07	-9.642623e-10	-4.703844e+00	-6.457852e+01
4.900000e-07	-6.138930e-07	-9.536385e-10	-4.618319e+00	-6.342475e+01
5.000000e-07	-6.023388e-07	-9.409805e-10	-4.531396e+00	-6.224331e+01
5.100000e-07	-5.905915e-07	-9.198173e-10	-4.443021e+00	-6.106108e+01
5.200000e-07	-5.786756e-07	-8.990791e-10	-4.353378e+00	-5.989773e+01
5.300000e-07	-5.666087e-07	-8.797694e-10	-4.262598e+00	-5.875567e+01
5.400000e-07	-5.543813e-07	-8.622703e-10	-4.170612e+00	-5.761983e+01
5.500000e-07	-5.419776e-07	-8.458519e-10	-4.077299e+00	-5.646681e+01
5.600000e-07	-5.294099e-07	-8.269143e-10	-3.982752e+00	-5.527800e+01
5.700000e-07	-5.166989e-07	-8.051557e-10	-3.887127e+00	-5.404894e+01
5.800000e-07	-5.038651e-07	-7.883005e-10	-3.790579e+00	-5.279016e+01
5.900000e-07	-4.909111e-07	-7.754436e-10	-3.693126e+00	-5.151959e+01
6.000000e-07	-4.777999e-07	-7.557032e-10	-3.594490e+00	-5.025163e+01
6.100000e-07	-4.645231e-07	-7.284331e-10	-3.494608e+00	-4.898949e+01
6.200000e-07	-4.511162e-07	-7.063414e-10	-3.393748e+00	-4.772508e+01
6.300000e-07	-4.376036e-07	-6.932816e-10	-3.292093e+00	-4.644575e+01
6.400000e-07	-4.239758e-07	-6.767093e-10	-3.189571e+00	-4.514342e+01
6.500000e-07	-4.102137e-07	-6.509118e-10	-3.086039e+00	-4.382008e+01
6.600000e-07	-3.963042e-07	-6.263630e-10	-2.981398e+00	-4.248634e+01
6.700000e-07	-3.822572e-07	-6.100616e-10	-2.875722e+00	-4.115417e+01
6.800000e-07	-3.681018e-07	-5.930501e-10	-2.769231e+00	-3.982822e+01
6.900000e-07	-3.538310e-07	-5.686798e-10	-2.661871e+00	-3.850137e+01
7.000000e-07	-3.394218e-07	-5.431870e-10	-2.553471e+00	-3.715735e+01
7.100000e-07	-3.248864e-07	-5.240803e-10	-2.444121e+00	-3.577936e+01
7.200000e-07	-3.102727e-07	-5.060554e-10	-2.334182e+00	-3.435995e+01
7.300000e-07	-2.955876e-07	-4.813779e-10	-2.223706e+00	-3.290682e+01
7.400000e-07	-2.808059e-07	-4.529030e-10	-2.112504e+00	-3.144095e+01
7.500000e-07	-2.659443e-07	-4.289610e-10	-2.000699e+00	-2.998782e+01
7.600000e-07	-2.510328e-07	-4.110071e-10	-1.888520e+00	-2.856569e+01
7.700000e-07	-2.360737e-07	-3.921820e-10	-1.775983e+00	-2.717663e+01
7.800000e-07	-2.210561e-07	-3.671034e-10	-1.663005e+00	-2.580466e+01
7.900000e-07	-2.059818e-07	-3.404011e-10	-1.549602e+00	-2.442191e+01
8.000000e-07	-1.908516e-07	-3.187882e-10	-1.435777e+00	-2.300038e+01
8.100000e-07	-1.756676e-07	-2.983624e-10	-1.321548e+00	-2.152409e+01
8.200000e-07	-1.604330e-07	-2.727441e-10	-1.206938e+00	-1.999645e+01
8.300000e-07	-1.451637e-07	-2.452880e-10	-1.092067e+00	-1.843941e+01
8.400000e-07	-1.298677e-07	-2.232145e-10	-9.769953e-01	-1.688483e+01
8.500000e-07	-1.145386e-07	-2.039307e-10	-8.616740e-01	-1.536122e+01
8.600000e-07	-9.916941e-08	-1.817106e-10	-7.460517e-01	-1.388168e+01
8.700000e-07	-8.375535e-08	-1.570109e-10	-6.300917e-01	-1.243825e+01
8.800000e-07	-6.831164e-08	-1.338471e-10	-5.139087e-01	-1.100536e+01
8.900000e-07	-5.285560e-08	-1.135996e-10	-3.976328e-01	-9.551289e+00
9.000000e-07	-3.738717e-08	-9.343609e-11	-2.812638e-01	-8.052827e+00
9.100000e-07	-2.190595e-08	-6.914421e-11	-1.647985e-01	-6.506285e+00
9.200000e-07	-6.406020e-09	-4.353726e-11	-4.819250e-02	-4.929642e+00
9.300000e-07	9.105783e-09	-2.099881e-11	6.850283e-02	-3.354285e+00
9.400000e-07	2.460589e-08	1.301827e-12	1.851102e-01	-1.809931e+00
9.500000e-07	4.009090e-08	2.644230e-11	3.016039e-01	-3.099093e-01
9.600000e-07	5.556127e-08	5.161265e-11	4.179876e-01	1.155780e+00
9.700000e-07	7.100962e-08	7.207422e-11	5.342056e-01	2.615814e+00
9.800000e-07	8.642206e-08	9.065432e-11	6.501534e-01	4.103221e+00
9.900000e-07	1.017973e-07	1.119838e-10	7.658212e-01	5.638430e+00
1.000000e-06	1.171472e-07	1.369662e-10	8.812985e-01	7.218316e+00
1.010000e-06	1.324694e-07	1.619045e-10	9.965678e-01	8.816998e+00
1.020000e-06	1.477545e-07	1.845058e-10	1.111557e+00	1.039814e+01
1.030000e-06	1.629997e-07	2.055706e-10	1.226247e+00	1.193249e+01
1.040000e-06	1.781984e-07	2.273300e-10	1.340587e+00	1.341165e+01
1.050000e-06	1.933433e-07	2.493592e-10	1.454522e+00	1.485118e+01
1.060000e-06	2.084379e-07	2.694017e-10	1.568079e+00	1.628182e+01
1.070000e-06	2.234819e-07	2.888664e-10	1.681255e+00	1.773389e+01
1.080000e-06	2.384660e-07	3.108391e-10	1.793980e+00	1.922323e+01
1.090000e-06	2.533945e-07	3.361156e-10	1.906287e+00	2.074568e+01
1.100000e-06	2.682673e-07	3.596137e-10	2.018176e+00	2.228213e+01
1.110000e-06	2.830646e-07	3.786529e-10	2.129496e+00	2.381028e+01
1.120000e-06	2.977736e-07	3.983282e-10	2.240152e+00	2.531588e+01
1.130000e-06	3.123928e-07	4.217430e-10	2.350132e+00	2.679766e+01
1.140000e-06	3.269202e-07	4.450516e-10	2.459422e+00	2.826405e+01
1.150000e-06	3.413447e-07	4.665491e-10	2.567937e+00	2.972501e+01
1.160000e-06	3.556530e-07	4.881991e-10	2.675578e+00	3.118470e+01
1.170000e-06	3.698557e-07	5.097704e-10	2.782425e+00	3.263945e+01
1.180000e-06	3.839665e-07	5.294574e-10	2.888581e+00	3.408158e+01
1.190000e-06	3.979641e-07	5.467523e-10	2.993885e+00	3.550565e+01
1.200000e-06	4.118101e-07	5.651021e-10	3.098048e+00	3.691265e+01
1.210000e-06	4.255116e-07	5.861541e-10	3.201125e+00	3.830901e+01
1.220000e-06	4.390960e-07	6.085256e-10	3.303320e+00	3.970144e+01
1.230000e-06	4.525573e-07	6.299056e-10	3.404589e+00	4.109137e+01
1.240000e-06	4.659020e-07	6.492821e-10	3.504982e+00	4.247315e+01
1.250000e-06	4.791302e-07	6.683015e-10	3.604498e+00	4.383732e+01
1.260000e-06	4.922013e-07	6.878348e-10	3.702832e+00	4.517684e+01
1.270000e-06	5.051167e-07	7.065272e-10	3.799994e+00	4.649185e+01
1.280000e-06	5.178993e-07	7.243560e-10	3.896157e+00	4.778954e+01
1.290000e-06	5.305445e-07	7.426843e-10	3.991287e+00	4.907898e+01
1.300000e-06	5.430631e-07	7.604079e-10	4.085465e+00	5.036451e+01
1.310000e-06	5.554282e-07	7.779891e-10	4.178488e+00	5.164223e+01
1.320000e-06	5.676135e-07	7.949066e-10	4.270158e+00	5.290261e+01
1.330000e-06	5.796419e-07	8.114943e-10	4.360647e+00	5.413761e+01
1.340000e-06	5.915115e-07	8.292981e-10	4.449942e+00	5.534765e+01
1.350000e-06	6.031981e-07	8.487941e-10	4.537860e+00	5.654327e+01
1.360000e-06	6.146817e-07	8.679596e-10	4.624252e+00	5.773960e+01
1.370000e-06	6.259752e-07	8.835002e-10	4.709213e+00	5.894647e+01
1.380000e-06	6.371050e-07	8.984304e-10	4.792943e+00	6.016033e+01
1.390000e-06	6.480805e-07	9.167281e-10	4.875511e+00	6.136377e+01
1.400000e-06	6.588796e-07	9.364483e-10	4.956753e+00	6.253361e+01
1.410000e-06	6.694680e-07	9.543679e-10	5.036409e+00	6.365363e+01
1.420000e-06	6.798587e-07	9.700226e-10	5.114579e+00	6.472417e+01
1.430000e-06	6.900737e-07	9.857706e-10	5.191426e+00	6.576253e+01
1.440000e-06	7.000910e-07	1.001889e-09	5.266786e+00	6.679330e+01
1.450000e-06	7.098898e-07	1.016512e-09	5.340503e+00	6.783398e+01
1.460000e-06	7.194851e-07	1.029166e-09	5.412688e+00	6.888427e+01
1.470000e-06	7.288936e-07	1.042274e-09	5.483468e+00	6.992574e+01
1.480000e-06	7.380934e-07	1.058131e-09	5.552678e+00	7.093226e+01
1.490000e-06	7.470708e-07	1.073977e-09	5.620215e+00	7.188526e+01
1.500000e-06	7.558367e-07	1.086484e-09	5.686161e+00	7.278472e+01
1.510000e-06	7.644074e-07	1.097943e-09	5.750638e+00	7.364923e+01
1.520000e-06	7.727754e-07	1.111709e-09	5.813592e+00	7.450507e+01
1.530000e-06	7.809052e-07	1.127065e-09	5.874752e+00	7.537078e+01
1.540000e-06	7.888034e-07	1.140047e-09	5.934170e+00	7.624653e+01
1.550000e-06	7.964734e-07	1.150379e-09	5.991871e+00	7.711450e+01
1.560000e-06	8.038989e-07	1.162399e-09	6.047733e+00	7.795002e+01
1.570000e-06	8.110918e-07	1.175896e-09	6.101846e+00	7.873648e+01
1.580000e-06	8.180698e-07	1.187606e-09	6.154341e+00	7.947498e+01
1.590000e-06	8.248132e-07	1.196844e-09	6.205072e+00	8.018299e+01
1.600000e-06	8.313121e-07	1.207266e-09	6.253963e+00	8.088305e+01
1.610000e-06	8.375891e-07	1.219776e-09	6.301185e+00	8.158858e+01
1.620000e-06	8.436469e-07	1.230602e-09	6.346758e+00	8.229565e+01
1.630000e-06	8.494619e-07	1.239053e-09	6.390504e+00	8.298548e+01
1.640000e-06	8.550249e-07	1.247003e-09	6.432354e+00	8.363600e+01
1.650000e-06	8.603299e-07	1.256208e-09	6.472264e+00	8.423504e+01
1.660000e-06	8.653556e-07	1.265174e-09	6.510072e+00	8.478730e+01
1.670000e-06	8.701153e-07	1.272419e-09	6.545879e+00	8.531082e+01
1.680000e-06	8.746476e-07	1.279746e-09	6.579976e+00	8.582577e+01
1.690000e-06	8.789392e-07	1.288858e-09	6.612262e+00	8.634249e+01
1.700000e-06	8.829713e-07	1.298830e-09	6.642595e+00	8.685633e+01
1.710000e-06	8.867726e-07	1.307246e-09	6.671192e+00	8.735180e+01
1.720000e-06	8.903368e-07	1.312760e-09	6.698006e+00	8.781294e+01
1.730000e-06	8.936396e-07	1.317691e-09	6.722853e+00	8.823292e+01
1.740000e-06	8.967012e-07	1.324102e-09	6.745885e+00	8.861671e+01
1.750000e-06	8.995215e-07	1.330663e-09	6.767102e+00	8.897572e+01
1.760000e-06	9.020698e-07	1.335971e-09	6.786273e+00	8.931835e+01
1.770000e-06	9.043645e-07	1.341182e-09	6.803536e+00	8.964314e+01
1.780000e-06	9.064376e-07	1.347785e-09	6.819132e+00	8.993928e+01
1.790000e-06	9.082535e-07	1.352966e-09	6.832793e+00	9.019410e+01
1.800000e-06	9.097836e-07	1.354621e-09	6.844304e+00	9.040215e+01
1.810000e-06	9.110326e-07	1.355679e-09	6.853701e+00	9.056974e+01
1.820000e-06	9.120039e-07	1.359181e-09	6.861008e+00	9.071128e+01
1.830000e-06	9.127198e-07	1.362781e-09	6.866393e+00	9.083985e+01
1.840000e-06	9.131864e-07	1.366646e-09	6.869904e+00	9.095819e+01
1.850000e-06	9.133920e-07	1.368650e-09	6.871450e+00	9.105642e+01
1.860000e-06	9.133354e-07	1.369160e-09	6.871024e+00	9.111863e+01
1.870000e-06	9.130135e-07	1.370197e-09	6.868602e+00	9.113431e+01
1.880000e-06	9.124395e-07	1.366294e-09	6.864285e+00	9.110722e+01
1.890000e-06	9.116004e-07	1.358793e-09	6.857972e+00	9.105537e+01
1.900000e-06	9.104302e-07	1.358341e-09	6.849168e+00	9.100110e+01
1.910000e-06	9.089788e-07	1.384704e-09	6.838250e+00	9.095687e+01
1.920000e-06	9.073518e-07	1.376018e-09	6.826009e+00	9.091557e+01
1.930000e-06	9.055840e-07	1.371439e-09	6.812710e+00	9.085186e+01
1.940000e-06	9.035494e-07	1.367505e-09	6.797404e+00	9.073478e+01
1.950000e-06	9.010719e-07	1.359351e-09	6.778766e+00	9.054500e+01
1.960000e-06	8.981920e-07	1.372105e-09	6.757101e+00	9.028665e+01
1.970000e-06	8.951782e-07	1.360753e-09	6.734428e+00	8.998674e+01
1.980000e-06	8.921312e-07	1.356625e-09	6.711505e+00	8.968182e+01
1.990000e-06	8.888494e-07	1.339873e-09	6.686816e+00	8.939922e+01
2.000000e-06	8.851612e-07	1.349045e-09	6.659070e+00	8.914293e+01
2.010000e-06	8.811320e-07	1.356026e-09	6.628758e+00	8.889195e+01
2.020000e-06	8.769867e-07	1.351745e-09	6.597573e+00	8.861155e+01
2.030000e-06	8.727138e-07	1.337987e-09	6.565428e+00	8.827100e+01
2.040000e-06	8.681195e-07	1.330665e-09	6.530865e+00	8.785797e+01
2.050000e-06	8.631357e-07	1.340886e-09	6.493372e+00	8.738234e+01
2.060000e-06	8.579410e-07	1.333291e-09	6.454292e+00	8.686848e+01
2.070000e-06	8.526151e-07	1.315871e-09	6.414226e+00	8.634150e+01
2.080000e-06	8.470025e-07	1.298372e-09	6.372002e+00	8.581529e+01
2.090000e-06	8.410294e-07	1.298464e-09	6.327066e+00	8.528858e+01
2.100000e-06	8.348169e-07	1.298701e-09	6.280330e+00	8.474943e+01
2.110000e-06	8.284730e-07	1.294562e-09	6.232605e+00	8.418400e+01
2.120000e-06	8.218900e-07	1.277670e-09	6.183080e+00	8.358359e+01
2.130000e-06	8.149665e-07	1.265228e-09	6.130995e+00	8.294630e+01
2.140000e-06	8.077902e-07	1.259707e-09	6.077008e+00	8.227393e+01
2.150000e-06	8.004770e-07	1.253883e-09	6.021990e+00	8.156781e+01
2.160000e-06	7.929330e-07	1.236598e-09	5.965237e+00	8.082750e+01
2.170000e-06	7.850484e-07	1.218165e-09	5.905921e+00	8.005336e+01
2.180000e-06	7.769150e-07	1.208975e-09	5.844733e+00	7.925044e+01
2.190000e-06	7.686510e-07	1.206313e-09	5.782563e+00	7.842986e+01
2.200000e-06	7.601850e-07	1.197008e-09	5.718873e+00	7.760506e+01
2.210000e-06	7.514170e-07	1.175858e-09	5.652912e+00	7.678430e+01
2.220000e-06	7.424246e-07	1.160266e-09	5.585262e+00	7.596414e+01
2.230000e-06	7.332924e-07	1.154991e-09	5.516560e+00	7.512863e+01
2.240000e-06	7.239499e-07	1.147736e-09	5.446277e+00	7.425605e+01
2.250000e-06	7.143487e-07	1.124855e-09	5.374047e+00	7.333027e+01
2.260000e-06	7.045628e-07	1.104131e-09	5.300428e+00	7.235024e+01
2.270000e-06	6.946214e-07	1.095118e-09	5.225639e+00	7.133163e+01
2.280000e-06	6.844511e-07	1.088299e-09	5.149127e+00	7.029923e+01
2.290000e-06	6.740327e-07	1.064885e-09	5.070750e+00	6.927359e+01
2.300000e-06	6.634506e-07	1.043316e-09	4.991141e+00	6.825971e+01
2.310000e-06	6.527354e-07	1.037428e-09	4.910530e+00	6.724432e+01
2.320000e-06	6.418287e-07	1.031170e-09	4.828479e+00	6.620359e+01
2.330000e-06	6.306982e-07	1.007815e-09	4.744744e+00	6.511701e+01
2.340000e-06	6.193773e-07	9.806156e-10	4.659577e+00	6.397966e+01
2.350000e-06	6.078698e-07	9.680642e-10	4.573006e+00	6.280562e+01
2.360000e-06	5.961650e-07	9.567271e-10	4.484951e+00	6.162082e+01
2.370000e-06	5.842884e-07	9.360465e-10	4.395603e+00	6.044917e+01
2.380000e-06	5.722568e-07	9.141253e-10	4.305090e+00	5.930019e+01
2.390000e-06	5.600688e-07	9.007605e-10	4.213399e+00	5.816470e+01
2.400000e-06	5.477238e-07	8.870555e-10	4.120528e+00	5.702095e+01
2.410000e-06	5.352160e-07	8.674672e-10	4.026432e+00	5.584708e+01
2.420000e-06	5.225576e-07	8.473599e-10	3.931202e+00	5.463270e+01
2.430000e-06	5.097559e-07	8.276004e-10	3.834895e+00	5.338325e+01
2.440000e-06	4.968152e-07	8.077818e-10	3.737542e+00	5.211511e+01
2.450000e-06	4.837463e-07	7.911175e-10	3.639225e+00	5.084522e+01
2.460000e-06	4.705226e-07	7.752702e-10	3.539743e+00	4.958144e+01
2.470000e-06	4.571521e-07	7.531077e-10	3.439156e+00	4.831943e+01
2.480000e-06	4.436633e-07	7.297261e-10	3.337680e+00	4.704719e+01
2.490000e-06	4.300510e-07	7.136120e-10	3.235275e+00	4.575396e+01
2.500000e-06	4.163101e-07	6.985200e-10	3.131902e+00	4.443771e+01
2.510000e-06	4.024343e-07	6.767844e-10	3.027514e+00	4.310645e+01
2.520000e-06	3.884163e-07	6.534986e-10	2.922057e+00	4.177271e+01
2.530000e-06	3.742671e-07	6.361608e-10	2.815612e+00	4.044472e+01
2.540000e-06	3.600152e-07	6.190254e-10	2.708395e+00	3.911988e+01
2.550000e-06	3.456610e-07	5.951257e-10	2.600408e+00	3.778459e+01
2.560000e-06	3.312029e-07	5.698086e-10	2.491640e+00	3.642101e+01
2.570000e-06	3.166674e-07	5.503914e-10	2.382290e+00	3.501721e+01
2.580000e-06	3.020710e-07	5.349581e-10	2.272481e+00	3.357496e+01
2.590000e-06	2.873999e-07	5.144194e-10	2.162110e+00	3.211099e+01
2.600000e-06	2.726256e-07	4.885138e-10	2.050963e+00	3.065042e+01
2.610000e-06	2.577474e-07	4.648926e-10	1.939034e+00	2.921554e+01
2.620000e-06	2.427938e-07	4.476685e-10	1.826538e+00	2.781515e+01
2.630000e-06	2.277829e-07	4.316284e-10	1.713611e+00	2.643974e+01
2.640000e-06	2.127048e-07	4.100981e-10	1.600179e+00	2.506470e+01
2.650000e-06	1.975670e-07	3.862764e-10	1.486297e+00	2.366058e+01
2.660000e-06	1.823905e-07	3.664282e-10	1.372124e+00	2.220566e+01
2.670000e-06	1.671679e-07	3.476453e-10	1.257605e+00	2.069569e+01
2.680000e-06	1.518909e-07	3.234955e-10	1.142675e+00	1.914632e+01
2.690000e-06	1.365778e-07	2.962132e-10	1.027475e+00	1.758712e+01
2.700000e-06	1.212436e-07	2.733688e-10	9.121161e-01	1.604943e+01
2.710000e-06	1.058841e-07	2.551993e-10	7.965665e-01	1.455326e+01
2.720000e-06	9.049044e-08	2.334931e-10	6.807598e-01	1.309864e+01
2.730000e-06	7.507460e-08	2.075455e-10	5.647864e-01	1.166561e+01
2.740000e-06	5.965645e-08	1.816229e-10	4.487956e-01	1.022308e+01
2.750000e-06	4.423624e-08	1.585799e-10	3.327894e-01	8.743016e+00
2.760000e-06	2.880036e-08	1.372143e-10	2.166652e-01	7.213597e+00
2.770000e-06	1.334476e-08	1.131862e-10	1.003926e-01	5.645112e+00
2.780000e-06	-2.110903e-09	8.748292e-11	-1.588033e-02	4.065454e+00
2.790000e-06	-1.755490e-08	6.461035e-11	-1.320655e-01	2.506885e+00
2.800000e-06	-3.299229e-08	4.414112e-11	-2.482011e-01	9.902485e-01
2.810000e-06	-4.843070e-08	2.052046e-11	-3.643443e-01	-4.856083e-01
2.820000e-06	-6.386505e-08	-4.987856e-12	-4.804570e-01	-1.943629e+00
2.830000e-06	-7.927833e-08	-2.869850e-11	-5.964111e-01	-3.417247e+00
2.840000e-06	-9.466773e-08	-5.093641e-11	-7.121855e-01	-4.933400e+00
2.850000e-06	-1.100427e-07	-7.510187e-11	-8.278514e-01	-6.498394e+00
2.860000e-06	-1.253992e-07	-1.019626e-10	-9.433788e-01	-8.093978e+00
2.870000e-06	-1.407195e-07	-1.289031e-10	-1.058633e+00	-9.685773e+00
2.880000e-06	-1.559909e-07	-1.542343e-10	-1.173520e+00	-1.123986e+01
2.890000e-06	-1.712164e-07	-1.774456e-10	-1.288061e+00	-1.273898e+01
2.900000e-06	-1.863946e-07	-1.996475e-10	-1.402247e+00	-1.419016e+01
2.910000e-06	-2.015159e-07	-2.222401e-10	-1.516005e+00	-1.562009e+01
2.920000e-06	-2.165818e-07	-2.447001e-10	-1.629346e+00	-1.706115e+01
2.930000e-06	-2.316016e-07	-2.676882e-10	-1.742339e+00	-1.853582e+01
2.940000e-06	-2.465776e-07	-2.909707e-10	-1.855004e+00	-2.004738e+01
2.950000e-06	-2.614792e-07	-3.153365e-10	-1.967109e+00	-2.158120e+01
