# Temperatura_=_20.0
# Concentracion g/m^3_=_10000.0
# C_Vs_to_Am_M_A/Vsm_=_65563218390.804596
# pendiente_HvsI_1/m_=_3716.3
# ordenada_HvsI_A/m_=_1297.0
# frecuencia_Hz_=_269720.3386657202

Tiempo_(s)	Campo_(V.s)	Magnetizacion_(V.s)	Campo_(kA/m)	Magnetizacion_(A/m)
0.000000e+00	-8.734397e-07	-2.620192e-10	-6.860070e+00	-1.698560e+01
1.000000e-08	-8.731987e-07	-2.637480e-10	-6.858178e+00	-1.695117e+01
2.000000e-08	-8.727140e-07	-2.603137e-10	-6.854371e+00	-1.691283e+01
3.000000e-08	-8.720351e-07	-2.595836e-10	-6.849039e+00	-1.690156e+01
4.000000e-08	-8.711179e-07	-2.795306e-10	-6.841834e+00	-1.693834e+01
5.000000e-08	-8.700195e-07	-2.726531e-10	-6.833208e+00	-1.702007e+01
6.000000e-08	-8.688146e-07	-2.513238e-10	-6.823744e+00	-1.711741e+01
7.000000e-08	-8.673029e-07	-2.868196e-10	-6.811871e+00	-1.718698e+01
8.000000e-08	-8.653852e-07	-2.769346e-10	-6.796809e+00	-1.719250e+01
9.000000e-08	-8.631417e-07	-2.761630e-10	-6.779189e+00	-1.712360e+01
1.000000e-07	-8.605434e-07	-2.877871e-10	-6.758781e+00	-1.700180e+01
1.100000e-07	-8.576717e-07	-2.410339e-10	-6.736227e+00	-1.687013e+01
1.200000e-07	-8.546963e-07	-2.563478e-10	-6.712858e+00	-1.677148e+01
1.300000e-07	-8.516151e-07	-2.694855e-10	-6.688658e+00	-1.672746e+01
1.400000e-07	-8.483162e-07	-2.759951e-10	-6.662748e+00	-1.672886e+01
1.500000e-07	-8.447238e-07	-2.693068e-10	-6.634533e+00	-1.674248e+01
1.600000e-07	-8.408803e-07	-2.381948e-10	-6.604346e+00	-1.673014e+01
1.700000e-07	-8.368278e-07	-2.551275e-10	-6.572517e+00	-1.666883e+01
1.800000e-07	-8.325108e-07	-2.707384e-10	-6.538611e+00	-1.656139e+01
1.900000e-07	-8.279312e-07	-2.679105e-10	-6.502642e+00	-1.643242e+01
2.000000e-07	-8.231325e-07	-2.329002e-10	-6.464953e+00	-1.631278e+01
2.100000e-07	-8.180949e-07	-2.438486e-10	-6.425388e+00	-1.622211e+01
2.200000e-07	-8.127618e-07	-2.661315e-10	-6.383501e+00	-1.615920e+01
2.300000e-07	-8.071415e-07	-2.688673e-10	-6.339358e+00	-1.610468e+01
2.400000e-07	-8.013070e-07	-2.506042e-10	-6.293534e+00	-1.603363e+01
2.500000e-07	-7.952983e-07	-2.383007e-10	-6.246341e+00	-1.592988e+01
2.600000e-07	-7.890529e-07	-2.501723e-10	-6.197289e+00	-1.579387e+01
2.700000e-07	-7.825325e-07	-2.499994e-10	-6.146077e+00	-1.564025e+01
2.800000e-07	-7.757994e-07	-2.410335e-10	-6.093195e+00	-1.548780e+01
2.900000e-07	-7.688826e-07	-2.291440e-10	-6.038870e+00	-1.534826e+01
3.000000e-07	-7.617117e-07	-2.365940e-10	-5.982549e+00	-1.522076e+01
3.100000e-07	-7.542518e-07	-2.327158e-10	-5.923958e+00	-1.509457e+01
3.200000e-07	-7.465565e-07	-2.321813e-10	-5.863519e+00	-1.495735e+01
3.300000e-07	-7.386727e-07	-2.256787e-10	-5.801598e+00	-1.480328e+01
3.400000e-07	-7.305989e-07	-2.227509e-10	-5.738186e+00	-1.463600e+01
3.500000e-07	-7.223037e-07	-2.167744e-10	-5.673035e+00	-1.446477e+01
3.600000e-07	-7.138235e-07	-2.202710e-10	-5.606431e+00	-1.429716e+01
3.700000e-07	-7.051733e-07	-2.237968e-10	-5.538491e+00	-1.413314e+01
3.800000e-07	-6.962979e-07	-2.146554e-10	-5.468784e+00	-1.396470e+01
3.900000e-07	-6.871836e-07	-1.998547e-10	-5.397199e+00	-1.378131e+01
4.000000e-07	-6.778947e-07	-1.968137e-10	-5.324243e+00	-1.357748e+01
4.100000e-07	-6.684581e-07	-2.066026e-10	-5.250127e+00	-1.335763e+01
4.200000e-07	-6.588055e-07	-1.994503e-10	-5.174315e+00	-1.313487e+01
4.300000e-07	-6.489155e-07	-1.859956e-10	-5.096638e+00	-1.292404e+01
4.400000e-07	-6.388531e-07	-1.870008e-10	-5.017607e+00	-1.273293e+01
4.500000e-07	-6.286488e-07	-1.992759e-10	-4.937462e+00	-1.255679e+01
4.600000e-07	-6.182782e-07	-1.911596e-10	-4.856010e+00	-1.237947e+01
4.700000e-07	-6.077162e-07	-1.712974e-10	-4.773055e+00	-1.218087e+01
4.800000e-07	-5.969704e-07	-1.662331e-10	-4.688656e+00	-1.194697e+01
4.900000e-07	-5.860525e-07	-1.743774e-10	-4.602906e+00	-1.167734e+01
5.000000e-07	-5.749446e-07	-1.725733e-10	-4.515664e+00	-1.138634e+01
5.100000e-07	-5.636566e-07	-1.618711e-10	-4.427007e+00	-1.109750e+01
5.200000e-07	-5.522171e-07	-1.587707e-10	-4.337160e+00	-1.083383e+01
5.300000e-07	-5.406348e-07	-1.584124e-10	-4.246192e+00	-1.060862e+01
5.400000e-07	-5.288978e-07	-1.550006e-10	-4.154009e+00	-1.042061e+01
5.500000e-07	-5.169919e-07	-1.492448e-10	-4.060499e+00	-1.025539e+01
5.600000e-07	-5.049321e-07	-1.446394e-10	-3.965780e+00	-1.009182e+01
5.700000e-07	-4.927403e-07	-1.393954e-10	-3.870025e+00	-9.910400e+00
5.800000e-07	-4.804311e-07	-1.364474e-10	-3.773347e+00	-9.700089e+00
5.900000e-07	-4.679908e-07	-1.365000e-10	-3.675640e+00	-9.461013e+00
6.000000e-07	-4.553943e-07	-1.321171e-10	-3.576706e+00	-9.202617e+00
6.100000e-07	-4.426560e-07	-1.240161e-10	-3.476658e+00	-8.938591e+00
6.200000e-07	-4.297981e-07	-1.215683e-10	-3.375671e+00	-8.681027e+00
6.300000e-07	-4.168311e-07	-1.251769e-10	-3.273827e+00	-8.436261e+00
6.400000e-07	-4.037474e-07	-1.238059e-10	-3.171067e+00	-8.203850e+00
6.500000e-07	-3.905359e-07	-1.134750e-10	-3.067302e+00	-7.978630e+00
6.600000e-07	-3.771900e-07	-1.043117e-10	-2.962482e+00	-7.754419e+00
6.700000e-07	-3.637207e-07	-1.035633e-10	-2.856693e+00	-7.527355e+00
6.800000e-07	-3.501424e-07	-1.031210e-10	-2.750049e+00	-7.297195e+00
6.900000e-07	-3.364418e-07	-9.683827e-11	-2.642443e+00	-7.066163e+00
7.000000e-07	-3.226049e-07	-9.104449e-11	-2.533766e+00	-6.836299e+00
7.100000e-07	-3.086664e-07	-9.136654e-11	-2.424292e+00	-6.607148e+00
7.200000e-07	-2.946672e-07	-9.359619e-11	-2.314341e+00	-6.375336e+00
7.300000e-07	-2.805879e-07	-8.973729e-11	-2.203761e+00	-6.136384e+00
7.400000e-07	-2.664167e-07	-8.048876e-11	-2.092459e+00	-5.887544e+00
7.500000e-07	-2.521780e-07	-7.459930e-11	-1.980627e+00	-5.629633e+00
7.600000e-07	-2.378938e-07	-7.370666e-11	-1.868438e+00	-5.366334e+00
7.700000e-07	-2.235567e-07	-7.083354e-11	-1.755834e+00	-5.101067e+00
7.800000e-07	-2.091587e-07	-6.346463e-11	-1.642751e+00	-4.833391e+00
7.900000e-07	-1.947087e-07	-5.666533e-11	-1.529259e+00	-4.557659e+00
8.000000e-07	-1.802026e-07	-5.444105e-11	-1.415327e+00	-4.265605e+00
8.100000e-07	-1.656473e-07	-5.325397e-11	-1.301008e+00	-3.952141e+00
8.200000e-07	-1.510517e-07	-4.727436e-11	-1.186373e+00	-3.621191e+00
8.300000e-07	-1.364226e-07	-4.021605e-11	-1.071475e+00	-3.287557e+00
8.400000e-07	-1.217709e-07	-3.650359e-11	-9.563991e-01	-2.972522e+00
8.500000e-07	-1.070866e-07	-3.501912e-11	-8.410670e-01	-2.694325e+00
8.600000e-07	-9.235366e-08	-3.229063e-11	-7.253536e-01	-2.458081e+00
8.700000e-07	-7.758444e-08	-2.741774e-11	-6.093548e-01	-2.250852e+00
8.800000e-07	-6.279348e-08	-2.308423e-11	-4.931854e-01	-2.045506e+00
8.900000e-07	-4.798294e-08	-1.988748e-11	-3.768621e-01	-1.812410e+00
9.000000e-07	-3.316747e-08	-1.612607e-11	-2.605002e-01	-1.533539e+00
9.100000e-07	-1.834052e-08	-1.132503e-11	-1.440481e-01	-1.211639e+00
9.200000e-07	-3.498734e-09	-6.434257e-12	-2.747936e-02	-8.692600e-01
9.300000e-07	1.134954e-08	-2.586763e-12	8.914027e-02	-5.376501e-01
9.400000e-07	2.619570e-08	1.003445e-12	2.057433e-01	-2.410306e-01
9.500000e-07	4.102761e-08	6.821281e-12	3.222344e-01	1.555751e-02
9.600000e-07	5.584614e-08	1.242676e-11	4.386204e-01	2.483921e-01
9.700000e-07	7.064220e-08	1.544524e-11	5.548299e-01	4.860967e-01
9.800000e-07	8.540408e-08	1.875114e-11	6.707709e-01	7.544463e-01
9.900000e-07	1.001339e-07	2.433359e-11	7.864604e-01	1.063122e+00
1.000000e-06	1.148317e-07	3.164549e-11	9.018976e-01	1.401334e+00
1.010000e-06	1.294984e-07	3.674352e-11	1.017092e+00	1.744227e+00
1.020000e-06	1.441340e-07	3.868154e-11	1.132041e+00	2.066088e+00
1.030000e-06	1.587332e-07	4.117967e-11	1.246704e+00	2.352963e+00
1.040000e-06	1.732855e-07	4.565516e-11	1.360999e+00	2.608113e+00
1.050000e-06	1.877856e-07	5.074434e-11	1.474884e+00	2.848167e+00
1.060000e-06	2.022400e-07	5.489208e-11	1.588410e+00	3.093030e+00
1.070000e-06	2.166401e-07	5.940821e-11	1.701510e+00	3.355695e+00
1.080000e-06	2.309801e-07	6.457946e-11	1.814137e+00	3.637331e+00
1.090000e-06	2.452669e-07	7.074961e-11	1.926347e+00	3.929364e+00
1.100000e-06	2.595029e-07	7.455109e-11	2.038158e+00	4.220017e+00
1.110000e-06	2.736649e-07	7.547043e-11	2.149388e+00	4.500673e+00
1.120000e-06	2.877338e-07	7.830206e-11	2.259886e+00	4.768419e+00
1.130000e-06	3.017197e-07	8.200908e-11	2.369732e+00	5.024319e+00
1.140000e-06	3.156208e-07	8.535685e-11	2.478913e+00	5.269921e+00
1.150000e-06	3.294184e-07	8.834519e-11	2.587280e+00	5.505356e+00
1.160000e-06	3.431082e-07	9.143070e-11	2.694801e+00	5.730663e+00
1.170000e-06	3.566944e-07	9.524654e-11	2.801509e+00	5.949013e+00
1.180000e-06	3.701840e-07	9.869081e-11	2.907457e+00	6.168690e+00
1.190000e-06	3.835625e-07	1.006816e-10	3.012532e+00	6.401231e+00
1.200000e-06	3.968007e-07	1.033248e-10	3.116507e+00	6.655892e+00
1.210000e-06	4.099119e-07	1.076921e-10	3.219483e+00	6.933614e+00
1.220000e-06	4.229058e-07	1.125078e-10	3.321538e+00	7.224672e+00
1.230000e-06	4.357801e-07	1.167403e-10	3.422655e+00	7.512370e+00
1.240000e-06	4.485458e-07	1.201411e-10	3.522917e+00	7.781372e+00
1.250000e-06	4.611901e-07	1.230946e-10	3.622226e+00	8.026039e+00
1.260000e-06	4.736826e-07	1.252682e-10	3.720344e+00	8.253658e+00
1.270000e-06	4.860375e-07	1.283901e-10	3.817380e+00	8.480206e+00
1.280000e-06	4.982680e-07	1.320326e-10	3.913440e+00	8.720838e+00
1.290000e-06	5.103625e-07	1.349838e-10	4.008430e+00	8.980629e+00
1.300000e-06	5.223290e-07	1.379215e-10	4.102416e+00	9.251191e+00
1.310000e-06	5.341358e-07	1.406705e-10	4.195148e+00	9.515346e+00
1.320000e-06	5.457745e-07	1.424132e-10	4.286560e+00	9.757132e+00
1.330000e-06	5.572721e-07	1.436760e-10	4.376863e+00	9.971112e+00
1.340000e-06	5.686156e-07	1.456551e-10	4.465955e+00	1.016536e+01
1.350000e-06	5.797829e-07	1.490802e-10	4.553664e+00	1.035636e+01
1.360000e-06	5.907555e-07	1.534392e-10	4.639844e+00	1.055905e+01
1.370000e-06	6.015449e-07	1.569986e-10	4.724585e+00	1.077825e+01
1.380000e-06	6.121766e-07	1.606568e-10	4.808087e+00	1.100656e+01
1.390000e-06	6.226591e-07	1.649849e-10	4.890418e+00	1.122984e+01
1.400000e-06	6.329673e-07	1.689845e-10	4.971380e+00	1.143645e+01
1.410000e-06	6.430776e-07	1.716802e-10	5.050786e+00	1.162412e+01
1.420000e-06	6.530048e-07	1.732076e-10	5.128756e+00	1.180017e+01
1.430000e-06	6.627563e-07	1.748602e-10	5.205345e+00	1.197534e+01
1.440000e-06	6.723070e-07	1.760181e-10	5.280357e+00	1.215561e+01
1.450000e-06	6.816488e-07	1.770232e-10	5.353728e+00	1.233810e+01
1.460000e-06	6.908001e-07	1.786343e-10	5.425603e+00	1.251395e+01
1.470000e-06	6.997779e-07	1.809918e-10	5.496115e+00	1.267654e+01
1.480000e-06	7.085617e-07	1.844209e-10	5.565105e+00	1.282909e+01
1.490000e-06	7.171294e-07	1.880089e-10	5.632396e+00	1.298595e+01
1.500000e-06	7.254978e-07	1.903059e-10	5.698122e+00	1.316536e+01
1.510000e-06	7.336815e-07	1.921589e-10	5.762398e+00	1.337780e+01
1.520000e-06	7.416606e-07	1.950752e-10	5.825066e+00	1.361698e+01
1.530000e-06	7.494109e-07	1.983159e-10	5.885937e+00	1.386001e+01
1.540000e-06	7.569458e-07	2.005731e-10	5.945117e+00	1.407799e+01
1.550000e-06	7.642539e-07	2.023203e-10	6.002516e+00	1.425148e+01
1.560000e-06	7.713256e-07	2.055260e-10	6.058057e+00	1.438203e+01
1.570000e-06	7.781790e-07	2.091541e-10	6.111884e+00	1.449237e+01
1.580000e-06	7.848223e-07	2.117600e-10	6.164061e+00	1.461438e+01
1.590000e-06	7.912329e-07	2.137781e-10	6.214411e+00	1.477111e+01
1.600000e-06	7.974112e-07	2.165236e-10	6.262936e+00	1.496298e+01
1.610000e-06	8.033851e-07	2.202203e-10	6.309855e+00	1.516639e+01
1.620000e-06	8.091415e-07	2.226501e-10	6.355067e+00	1.534576e+01
1.630000e-06	8.146641e-07	2.230383e-10	6.398441e+00	1.547255e+01
1.640000e-06	8.199534e-07	2.234070e-10	6.439984e+00	1.554069e+01
1.650000e-06	8.249909e-07	2.245674e-10	6.479549e+00	1.556995e+01
1.660000e-06	8.297578e-07	2.254862e-10	6.516989e+00	1.559557e+01
1.670000e-06	8.342798e-07	2.268217e-10	6.552505e+00	1.565043e+01
1.680000e-06	8.385774e-07	2.302503e-10	6.586259e+00	1.574964e+01
1.690000e-06	8.426308e-07	2.354249e-10	6.618094e+00	1.588557e+01
1.700000e-06	8.464437e-07	2.398778e-10	6.648041e+00	1.603514e+01
1.710000e-06	8.500429e-07	2.416280e-10	6.676310e+00	1.617369e+01
1.720000e-06	8.534067e-07	2.409111e-10	6.702729e+00	1.628732e+01
1.730000e-06	8.565213e-07	2.407238e-10	6.727192e+00	1.637670e+01
1.740000e-06	8.594118e-07	2.416510e-10	6.749894e+00	1.645197e+01
1.750000e-06	8.620637e-07	2.420581e-10	6.770722e+00	1.652325e+01
1.760000e-06	8.644594e-07	2.425890e-10	6.789538e+00	1.659381e+01
1.770000e-06	8.666252e-07	2.448363e-10	6.806548e+00	1.665994e+01
1.780000e-06	8.685669e-07	2.483759e-10	6.821798e+00	1.671663e+01
1.790000e-06	8.702481e-07	2.503547e-10	6.835003e+00	1.676386e+01
1.800000e-06	8.716603e-07	2.493100e-10	6.846094e+00	1.680820e+01
1.810000e-06	8.728050e-07	2.475820e-10	6.855085e+00	1.685795e+01
1.820000e-06	8.736903e-07	2.478162e-10	6.862038e+00	1.691530e+01
1.830000e-06	8.743362e-07	2.487554e-10	6.867111e+00	1.697152e+01
1.840000e-06	8.747383e-07	2.515349e-10	6.870270e+00	1.701003e+01
1.850000e-06	8.748886e-07	2.505491e-10	6.871450e+00	1.701656e+01
1.860000e-06	8.747833e-07	2.525080e-10	6.870623e+00	1.699057e+01
1.870000e-06	8.744237e-07	2.566176e-10	6.867798e+00	1.695009e+01
1.880000e-06	8.738303e-07	2.542653e-10	6.863138e+00	1.692527e+01
1.890000e-06	8.729714e-07	2.449959e-10	6.856392e+00	1.694288e+01
1.900000e-06	8.718007e-07	2.404098e-10	6.847198e+00	1.700989e+01
1.910000e-06	8.703828e-07	2.724957e-10	6.836061e+00	1.710611e+01
1.920000e-06	8.688117e-07	2.465812e-10	6.823722e+00	1.719120e+01
1.930000e-06	8.670955e-07	2.414693e-10	6.810243e+00	1.722363e+01
1.940000e-06	8.650888e-07	2.406205e-10	6.794481e+00	1.718174e+01
1.950000e-06	8.626384e-07	2.447215e-10	6.775236e+00	1.707548e+01
1.960000e-06	8.598405e-07	2.700299e-10	6.753261e+00	1.694193e+01
1.970000e-06	8.569552e-07	2.484234e-10	6.730599e+00	1.682684e+01
1.980000e-06	8.540063e-07	2.474362e-10	6.707439e+00	1.676172e+01
1.990000e-06	8.507951e-07	2.365698e-10	6.682218e+00	1.674900e+01
2.000000e-06	8.471925e-07	2.621268e-10	6.653923e+00	1.676272e+01
2.010000e-06	8.433111e-07	2.602857e-10	6.623438e+00	1.676398e+01
2.020000e-06	8.393358e-07	2.497933e-10	6.592215e+00	1.672213e+01
2.030000e-06	8.352001e-07	2.382557e-10	6.559733e+00	1.663001e+01
2.040000e-06	8.307245e-07	2.462167e-10	6.524581e+00	1.650541e+01
2.050000e-06	8.259010e-07	2.669035e-10	6.486697e+00	1.637902e+01
2.060000e-06	8.209061e-07	2.501972e-10	6.447467e+00	1.627642e+01
2.070000e-06	8.157658e-07	2.326807e-10	6.407094e+00	1.620458e+01
2.080000e-06	8.103266e-07	2.302340e-10	6.364375e+00	1.614985e+01
2.090000e-06	8.045550e-07	2.476355e-10	6.319043e+00	1.608762e+01
2.100000e-06	7.985941e-07	2.455268e-10	6.272227e+00	1.599702e+01
2.110000e-06	7.924962e-07	2.391077e-10	6.224333e+00	1.587196e+01
2.120000e-06	7.861281e-07	2.332631e-10	6.174318e+00	1.572268e+01
2.130000e-06	7.794365e-07	2.398702e-10	6.121761e+00	1.556782e+01
2.140000e-06	7.725401e-07	2.377310e-10	6.067596e+00	1.542282e+01
2.150000e-06	7.655054e-07	2.305448e-10	6.012345e+00	1.529166e+01
2.160000e-06	7.582244e-07	2.253296e-10	5.955160e+00	1.516654e+01
2.170000e-06	7.506262e-07	2.269283e-10	5.895482e+00	1.503460e+01
2.180000e-06	7.428139e-07	2.294446e-10	5.834124e+00	1.488690e+01
2.190000e-06	7.348727e-07	2.292946e-10	5.771753e+00	1.472362e+01
2.200000e-06	7.267071e-07	2.266126e-10	5.707620e+00	1.455271e+01
2.210000e-06	7.182600e-07	2.165228e-10	5.641276e+00	1.438325e+01
2.220000e-06	7.096239e-07	2.105675e-10	5.573447e+00	1.421844e+01
2.230000e-06	7.008322e-07	2.136099e-10	5.504396e+00	1.405291e+01
2.240000e-06	6.918244e-07	2.202720e-10	5.433648e+00	1.387618e+01
2.250000e-06	6.825889e-07	2.120616e-10	5.361112e+00	1.368005e+01
2.260000e-06	6.731895e-07	2.026234e-10	5.287288e+00	1.346502e+01
2.270000e-06	6.636305e-07	2.053235e-10	5.212211e+00	1.324149e+01
2.280000e-06	6.538442e-07	2.125917e-10	5.135349e+00	1.302471e+01
2.290000e-06	6.438325e-07	1.993955e-10	5.056716e+00	1.282602e+01
2.300000e-06	6.336717e-07	1.856051e-10	4.976912e+00	1.264564e+01
2.310000e-06	6.233767e-07	1.939147e-10	4.896054e+00	1.247110e+01
2.320000e-06	6.128896e-07	2.056086e-10	4.813687e+00	1.228264e+01
2.330000e-06	6.021914e-07	1.956581e-10	4.729663e+00	1.206285e+01
2.340000e-06	5.913103e-07	1.793961e-10	4.644202e+00	1.180566e+01
2.350000e-06	5.802475e-07	1.801993e-10	4.557313e+00	1.152020e+01
2.360000e-06	5.690016e-07	1.831014e-10	4.468987e+00	1.122758e+01
2.370000e-06	5.575980e-07	1.740487e-10	4.379422e+00	1.095221e+01
2.380000e-06	5.460471e-07	1.657884e-10	4.288701e+00	1.071189e+01
2.390000e-06	5.343430e-07	1.691227e-10	4.196776e+00	1.051100e+01
2.400000e-06	5.224858e-07	1.700300e-10	4.103648e+00	1.033951e+01
2.410000e-06	5.104772e-07	1.649216e-10	4.009331e+00	1.017786e+01
2.420000e-06	4.983266e-07	1.629241e-10	3.913900e+00	1.000497e+01
2.430000e-06	4.860413e-07	1.622987e-10	3.817410e+00	9.806069e+00
2.440000e-06	4.736305e-07	1.584561e-10	3.719935e+00	9.577070e+00
2.450000e-06	4.610877e-07	1.549696e-10	3.621423e+00	9.324393e+00
2.460000e-06	4.483894e-07	1.534510e-10	3.521689e+00	9.060842e+00
2.470000e-06	4.355580e-07	1.476413e-10	3.420910e+00	8.799729e+00
2.480000e-06	4.226179e-07	1.385009e-10	3.319277e+00	8.549851e+00
2.490000e-06	4.095612e-07	1.356682e-10	3.216729e+00	8.313215e+00
2.500000e-06	3.963787e-07	1.375639e-10	3.113193e+00	8.086038e+00
2.510000e-06	3.830588e-07	1.352362e-10	3.008577e+00	7.862064e+00
2.520000e-06	3.696039e-07	1.297040e-10	2.902900e+00	7.636274e+00
2.530000e-06	3.560360e-07	1.279962e-10	2.796337e+00	7.407081e+00
2.540000e-06	3.423672e-07	1.259254e-10	2.688982e+00	7.176047e+00
2.550000e-06	3.285970e-07	1.181238e-10	2.580829e+00	6.945615e+00
2.560000e-06	3.147355e-07	1.094516e-10	2.471959e+00	6.716437e+00
2.570000e-06	3.008065e-07	1.067682e-10	2.362560e+00	6.486132e+00
2.580000e-06	2.868196e-07	1.080999e-10	2.252706e+00	6.250316e+00
2.590000e-06	2.727475e-07	1.049798e-10	2.142182e+00	6.005278e+00
2.600000e-06	2.585630e-07	9.798485e-11	2.030776e+00	5.750426e+00
2.610000e-06	2.442876e-07	9.387962e-11	1.918656e+00	5.488630e+00
2.620000e-06	2.299519e-07	9.343796e-11	1.806062e+00	5.223864e+00
2.630000e-06	2.155602e-07	9.042449e-11	1.693029e+00	4.957470e+00
2.640000e-06	2.011066e-07	8.344544e-11	1.579508e+00	4.685674e+00
2.650000e-06	1.865976e-07	7.759404e-11	1.465553e+00	4.400636e+00
2.660000e-06	1.720422e-07	7.547461e-11	1.351235e+00	4.095307e+00
2.670000e-06	1.574448e-07	7.190073e-11	1.236585e+00	3.769720e+00
2.680000e-06	1.428076e-07	6.374812e-11	1.121623e+00	3.434760e+00
2.690000e-06	1.281402e-07	5.651148e-11	1.006424e+00	3.110193e+00
2.700000e-06	1.134516e-07	5.380617e-11	8.910583e-01	2.816676e+00
2.710000e-06	9.873396e-08	5.265503e-11	7.754650e-01	2.565215e+00
2.720000e-06	8.398360e-08	4.849112e-11	6.596144e-01	2.349697e+00
2.730000e-06	6.921380e-08	4.295738e-11	5.436111e-01	2.147282e+00
2.740000e-06	5.444017e-08	3.846227e-11	4.275778e-01	1.927595e+00
2.750000e-06	3.966831e-08	3.398969e-11	3.115583e-01	1.666764e+00
2.760000e-06	2.488359e-08	2.918962e-11	1.954379e-01	1.359253e+00
2.770000e-06	1.008281e-08	2.379375e-11	7.919125e-02	1.021012e+00
2.780000e-06	-4.715916e-09	1.809225e-11	-3.703921e-02	6.817909e-01
2.790000e-06	-1.950271e-08	1.484427e-11	-1.531760e-01	3.702431e-01
2.800000e-06	-3.428169e-08	1.239146e-11	-2.692514e-01	9.948014e-02
2.810000e-06	-4.905815e-08	7.913971e-12	-3.853069e-01	-1.392863e-01
2.820000e-06	-6.382960e-08	3.271210e-12	-5.013232e-01	-3.716597e-01
2.830000e-06	-7.858879e-08	-1.153808e-12	-6.172431e-01	-6.263254e-01
2.840000e-06	-9.332485e-08	-5.483914e-12	-7.329814e-01	-9.200941e-01
2.850000e-06	-1.080454e-07	-1.021572e-11	-8.485976e-01	-1.249651e+00
2.860000e-06	-1.227456e-07	-1.613151e-11	-9.640542e-01	-1.594090e+00
2.870000e-06	-1.374067e-07	-2.282416e-11	-1.079204e+00	-1.926337e+00
2.880000e-06	-1.520284e-07	-2.868863e-11	-1.194044e+00	-2.226900e+00
2.890000e-06	-1.666103e-07	-3.194783e-11	-1.308572e+00	-2.492553e+00
2.900000e-06	-1.811419e-07	-3.441759e-11	-1.422704e+00	-2.735876e+00
2.910000e-06	-1.956153e-07	-3.726897e-11	-1.536379e+00	-2.976879e+00
2.920000e-06	-2.100391e-07	-3.968594e-11	-1.649665e+00	-3.232089e+00
2.930000e-06	-2.244196e-07	-4.338745e-11	-1.762611e+00	-3.507225e+00
2.940000e-06	-2.387524e-07	-4.957849e-11	-1.875182e+00	-3.796746e+00
2.950000e-06	-2.530129e-07	-5.634715e-11	-1.987185e+00	-4.089218e+00
