# Temperatura_=_20.0
# Concentracion g/m^3_=_10000.0
# C_Vs_to_Am_M_A/Vsm_=_65563218390.804596
# pendiente_HvsI_1/m_=_3716.3
# ordenada_HvsI_A/m_=_1297.0
# frecuencia_Hz_=_269728.90025741747

Tiempo_(s)	Campo_(V.s)	Magnetizacion_(V.s)	Campo_(kA/m)	Magnetizacion_(A/m)
0.000000e+00	-9.123021e-07	-4.268329e-12	-6.859345e+00	2.661013e-02
1.000000e-08	-9.121107e-07	-1.712213e-12	-6.857906e+00	2.323425e-02
2.000000e-08	-9.116410e-07	-3.311610e-12	-6.854374e+00	2.317351e-02
3.000000e-08	-9.109657e-07	-3.547155e-12	-6.849297e+00	2.675968e-02
4.000000e-08	-9.100557e-07	9.144714e-12	-6.842455e+00	3.268845e-02
5.000000e-08	-9.089260e-07	3.231176e-12	-6.833961e+00	3.888372e-02
6.000000e-08	-9.076991e-07	-3.740412e-11	-6.824736e+00	4.357300e-02
7.000000e-08	-9.062049e-07	-1.170653e-11	-6.813502e+00	4.597133e-02
8.000000e-08	-9.042703e-07	-3.723546e-12	-6.798956e+00	4.630599e-02
9.000000e-08	-9.019880e-07	-8.136735e-12	-6.781796e+00	4.535229e-02
1.000000e-07	-8.993493e-07	1.455778e-11	-6.761957e+00	4.389846e-02
1.100000e-07	-8.963926e-07	-2.237948e-11	-6.739726e+00	4.248355e-02
1.200000e-07	-8.933009e-07	-2.000210e-11	-6.716480e+00	4.145690e-02
1.300000e-07	-8.901211e-07	-5.370791e-12	-6.692573e+00	4.113585e-02
1.400000e-07	-8.867347e-07	2.009372e-12	-6.667111e+00	4.179513e-02
1.500000e-07	-8.830329e-07	-3.080337e-12	-6.639278e+00	4.342447e-02
1.600000e-07	-8.790481e-07	-3.977571e-11	-6.609317e+00	4.546382e-02
1.700000e-07	-8.748586e-07	-2.672843e-11	-6.577818e+00	4.683473e-02
1.800000e-07	-8.704112e-07	5.976571e-13	-6.544379e+00	4.641666e-02
1.900000e-07	-8.656758e-07	7.209961e-12	-6.508775e+00	4.377141e-02
2.000000e-07	-8.607063e-07	-2.796790e-11	-6.471411e+00	3.964941e-02
2.100000e-07	-8.555029e-07	-3.509277e-11	-6.432288e+00	3.584576e-02
2.200000e-07	-8.499985e-07	-1.179009e-11	-6.390901e+00	3.433952e-02
2.300000e-07	-8.441762e-07	-3.137484e-12	-6.347125e+00	3.613344e-02
2.400000e-07	-8.381161e-07	-1.248967e-11	-6.301561e+00	4.048991e-02
2.500000e-07	-8.318769e-07	-2.547335e-11	-6.254650e+00	4.511117e-02
2.600000e-07	-8.254072e-07	-1.242669e-11	-6.206007e+00	4.728457e-02
2.700000e-07	-8.186540e-07	-5.777625e-12	-6.155231e+00	4.541225e-02
2.800000e-07	-8.116637e-07	-1.062389e-11	-6.102673e+00	4.004856e-02
2.900000e-07	-8.044827e-07	-2.168165e-11	-6.048681e+00	3.379157e-02
3.000000e-07	-7.970502e-07	-1.514061e-11	-5.992798e+00	3.001177e-02
3.100000e-07	-7.893139e-07	-1.056574e-11	-5.934631e+00	3.108260e-02
3.200000e-07	-7.813124e-07	-5.714055e-12	-5.874470e+00	3.708999e-02
3.300000e-07	-7.731064e-07	-7.004031e-12	-5.812772e+00	4.574378e-02
3.400000e-07	-7.647108e-07	-1.036609e-11	-5.749647e+00	5.353664e-02
3.500000e-07	-7.560884e-07	-1.643634e-11	-5.684818e+00	5.749619e-02
3.600000e-07	-7.472643e-07	-1.242236e-11	-5.618472e+00	5.656727e-02
3.700000e-07	-7.382740e-07	-4.074410e-12	-5.550877e+00	5.191352e-02
3.800000e-07	-7.290599e-07	-6.525516e-12	-5.481598e+00	4.607151e-02
3.900000e-07	-7.195802e-07	-1.663911e-11	-5.410323e+00	4.152921e-02
4.000000e-07	-7.099066e-07	-1.650780e-11	-5.337590e+00	3.955865e-02
4.100000e-07	-7.000831e-07	-1.820585e-12	-5.263730e+00	3.988811e-02
4.200000e-07	-6.900460e-07	-2.569136e-12	-5.188264e+00	4.124253e-02
4.300000e-07	-6.797600e-07	-1.826971e-11	-5.110926e+00	4.227775e-02
4.400000e-07	-6.692830e-07	-2.277876e-11	-5.032152e+00	4.228690e-02
4.500000e-07	-6.586528e-07	-7.120334e-12	-4.952227e+00	4.131520e-02
4.600000e-07	-6.478438e-07	-4.210667e-12	-4.870957e+00	3.976933e-02
4.700000e-07	-6.368440e-07	-1.878854e-11	-4.788252e+00	3.793002e-02
4.800000e-07	-6.256544e-07	-2.522427e-11	-4.704121e+00	3.576686e-02
4.900000e-07	-6.142835e-07	-1.451029e-11	-4.618626e+00	3.315405e-02
5.000000e-07	-6.027217e-07	-9.286825e-12	-4.531696e+00	3.023724e-02
5.100000e-07	-5.909611e-07	-1.720925e-11	-4.443272e+00	2.757157e-02
5.200000e-07	-5.790309e-07	-2.058581e-11	-4.353572e+00	2.583508e-02
5.300000e-07	-5.669531e-07	-1.696625e-11	-4.262762e+00	2.528164e-02
5.400000e-07	-5.547156e-07	-1.380508e-11	-4.170752e+00	2.535662e-02
5.500000e-07	-5.422999e-07	-1.479711e-11	-4.077402e+00	2.484615e-02
5.600000e-07	-5.297239e-07	-1.628493e-11	-3.982846e+00	2.257670e-02
5.700000e-07	-5.170058e-07	-1.763007e-11	-3.887223e+00	1.826207e-02
5.800000e-07	-5.041618e-07	-1.619857e-11	-3.790652e+00	1.291311e-02
5.900000e-07	-4.911944e-07	-1.242077e-11	-3.693154e+00	8.441092e-03
6.000000e-07	-4.780659e-07	-1.122215e-11	-3.594444e+00	6.589411e-03
6.100000e-07	-4.647729e-07	-1.461411e-11	-3.494498e+00	7.800043e-03
6.200000e-07	-4.513499e-07	-1.425945e-11	-3.393574e+00	1.073731e-02
6.300000e-07	-4.378290e-07	-7.383579e-12	-3.291914e+00	1.284338e-02
6.400000e-07	-4.242021e-07	-4.850323e-12	-3.189457e+00	1.168087e-02
6.500000e-07	-4.104391e-07	-9.654292e-12	-3.085977e+00	6.311443e-03
6.600000e-07	-3.965190e-07	-1.231874e-11	-2.981316e+00	-2.105141e-03
6.700000e-07	-3.824595e-07	-7.296821e-12	-2.875607e+00	-1.086873e-02
6.800000e-07	-3.683008e-07	-3.140336e-12	-2.769151e+00	-1.714903e-02
6.900000e-07	-3.540242e-07	-5.804462e-12	-2.661809e+00	-1.943758e-02
7.000000e-07	-3.396038e-07	-9.658705e-12	-2.553387e+00	-1.821514e-02
7.100000e-07	-3.250574e-07	-7.468587e-12	-2.444016e+00	-1.549158e-02
7.200000e-07	-3.104387e-07	-3.297951e-12	-2.334102e+00	-1.355538e-02
7.300000e-07	-2.957442e-07	-2.713071e-12	-2.223618e+00	-1.372099e-02
7.400000e-07	-2.809525e-07	-5.142917e-12	-2.112404e+00	-1.581080e-02
7.500000e-07	-2.660887e-07	-5.859806e-12	-2.000647e+00	-1.860452e-02
7.600000e-07	-2.511763e-07	-3.271591e-12	-1.888525e+00	-2.086588e-02
7.700000e-07	-2.362120e-07	-2.305342e-12	-1.776012e+00	-2.221845e-02
7.800000e-07	-2.211786e-07	-5.926049e-12	-1.662980e+00	-2.329527e-02
7.900000e-07	-2.060835e-07	-1.064456e-11	-1.549485e+00	-2.511330e-02
8.000000e-07	-1.909347e-07	-9.883653e-12	-1.435585e+00	-2.816266e-02
8.100000e-07	-1.757339e-07	-5.262849e-12	-1.321294e+00	-3.189045e-02
8.200000e-07	-1.604849e-07	-4.308836e-12	-1.206641e+00	-3.497637e-02
8.300000e-07	-1.452034e-07	-6.181203e-12	-1.091744e+00	-3.623656e-02
8.400000e-07	-1.298988e-07	-6.003877e-12	-9.766727e-01	-3.553678e-02
8.500000e-07	-1.145693e-07	-2.828266e-12	-8.614145e-01	-3.405863e-02
8.600000e-07	-9.919577e-08	-1.920113e-12	-7.458253e-01	-3.367857e-02
8.700000e-07	-8.377561e-08	-6.307204e-12	-6.298855e-01	-3.581767e-02
8.800000e-07	-6.833531e-08	-8.849264e-12	-5.137941e-01	-4.050069e-02
8.900000e-07	-5.288152e-08	-5.565283e-12	-3.976014e-01	-4.626409e-02
9.000000e-07	-3.741368e-08	-2.388118e-12	-2.813030e-01	-5.102251e-02
9.100000e-07	-2.191952e-08	-3.557944e-12	-1.648067e-01	-5.337940e-02
9.200000e-07	-6.412265e-09	-5.272886e-12	-4.821203e-02	-5.355551e-02
9.300000e-07	9.095189e-09	-4.022933e-12	6.838419e-02	-5.332098e-02
9.400000e-07	2.459792e-08	-2.424752e-12	1.849449e-01	-5.492988e-02
9.500000e-07	4.009403e-08	-5.500931e-12	3.014558e-01	-5.968669e-02
9.600000e-07	5.557316e-08	-9.677800e-12	4.178391e-01	-6.702288e-02
9.700000e-07	7.102014e-08	-8.448585e-12	5.339807e-01	-7.466764e-02
9.800000e-07	8.644119e-08	-4.200320e-12	6.499272e-01	-7.983967e-02
9.900000e-07	1.018261e-07	-3.283512e-12	7.656021e-01	-8.077292e-02
1.000000e-06	1.171777e-07	-5.937197e-12	8.810268e-01	-7.769489e-02
1.010000e-06	1.325015e-07	-6.668157e-12	9.962416e-01	-7.271055e-02
1.020000e-06	1.477895e-07	-3.156785e-12	1.111188e+00	-6.869209e-02
1.030000e-06	1.630410e-07	5.042386e-13	1.225860e+00	-6.783433e-02
1.040000e-06	1.782492e-07	-4.352294e-13	1.340206e+00	-7.067813e-02
1.050000e-06	1.934075e-07	-2.195115e-12	1.454177e+00	-7.607220e-02
1.060000e-06	2.085174e-07	-1.351298e-12	1.567784e+00	-8.197190e-02
1.070000e-06	2.235734e-07	-1.190228e-12	1.680986e+00	-8.652444e-02
1.080000e-06	2.385681e-07	-3.098666e-12	1.793727e+00	-8.881908e-02
1.090000e-06	2.535022e-07	-4.636746e-12	1.906012e+00	-8.898564e-02
1.100000e-06	2.683767e-07	-4.740187e-13	2.017849e+00	-8.776665e-02
1.110000e-06	2.831832e-07	5.967444e-12	2.129176e+00	-8.596886e-02
1.120000e-06	2.979009e-07	7.479553e-12	2.239834e+00	-8.416141e-02
1.130000e-06	3.125275e-07	4.132884e-12	2.349807e+00	-8.270639e-02
1.140000e-06	3.270657e-07	2.321297e-12	2.459116e+00	-8.192051e-02
1.150000e-06	3.414941e-07	3.695435e-12	2.567599e+00	-8.209219e-02
1.160000e-06	3.558113e-07	3.955009e-12	2.675246e+00	-8.325932e-02
1.170000e-06	3.700286e-07	2.911296e-12	2.782142e+00	-8.493075e-02
1.180000e-06	3.841460e-07	4.114330e-12	2.888287e+00	-8.607088e-02
1.190000e-06	3.981445e-07	9.251079e-12	2.993537e+00	-8.552859e-02
1.200000e-06	4.119902e-07	1.274673e-11	3.097640e+00	-8.275397e-02
1.210000e-06	4.256974e-07	1.095221e-11	3.200700e+00	-7.835504e-02
1.220000e-06	4.392898e-07	7.943382e-12	3.302898e+00	-7.404015e-02
1.230000e-06	4.527595e-07	8.625831e-12	3.404172e+00	-7.182604e-02
1.240000e-06	4.661124e-07	1.004922e-11	3.504569e+00	-7.287851e-02
1.250000e-06	4.793443e-07	8.982377e-12	3.604056e+00	-7.666890e-02
1.260000e-06	4.924162e-07	7.278934e-12	3.702340e+00	-8.103394e-02
1.270000e-06	5.053323e-07	7.429783e-12	3.799452e+00	-8.323080e-02
1.280000e-06	5.181228e-07	9.131207e-12	3.895621e+00	-8.146593e-02
1.290000e-06	5.307800e-07	1.068802e-11	3.990787e+00	-7.603020e-02
1.300000e-06	5.433046e-07	1.124619e-11	4.084956e+00	-6.933540e-02
1.310000e-06	5.556723e-07	1.191780e-11	4.177945e+00	-6.475249e-02
1.320000e-06	5.678620e-07	1.425260e-11	4.269596e+00	-6.485050e-02
1.330000e-06	5.798972e-07	1.539919e-11	4.360086e+00	-7.000554e-02
1.340000e-06	5.917786e-07	1.372123e-11	4.449418e+00	-7.815886e-02
1.350000e-06	6.034794e-07	1.214038e-11	4.537393e+00	-8.585595e-02
1.360000e-06	6.149690e-07	1.259906e-11	4.623780e+00	-8.997892e-02
1.370000e-06	6.262628e-07	1.353589e-11	4.708696e+00	-8.921604e-02
1.380000e-06	6.373979e-07	1.287583e-11	4.792417e+00	-8.450306e-02
1.390000e-06	6.483795e-07	1.217225e-11	4.874985e+00	-7.828865e-02
1.400000e-06	6.591844e-07	1.209496e-11	4.956224e+00	-7.313675e-02
1.410000e-06	6.697833e-07	1.158610e-11	5.035914e+00	-7.049229e-02
1.420000e-06	6.801856e-07	1.139119e-11	5.114126e+00	-7.024523e-02
1.430000e-06	6.904051e-07	1.226445e-11	5.190963e+00	-7.118908e-02
1.440000e-06	7.004237e-07	1.449405e-11	5.266290e+00	-7.194295e-02
1.450000e-06	7.102262e-07	1.595596e-11	5.339993e+00	-7.170979e-02
1.460000e-06	7.198300e-07	1.553014e-11	5.412201e+00	-7.046247e-02
1.470000e-06	7.292469e-07	1.481378e-11	5.483004e+00	-6.859355e-02
1.480000e-06	7.384557e-07	1.489684e-11	5.552243e+00	-6.641536e-02
1.490000e-06	7.474467e-07	1.455518e-11	5.619843e+00	-6.392838e-02
1.500000e-06	7.562313e-07	1.367775e-11	5.685892e+00	-6.099852e-02
1.510000e-06	7.648176e-07	1.358567e-11	5.750450e+00	-5.772646e-02
1.520000e-06	7.731944e-07	1.406992e-11	5.813433e+00	-5.462735e-02
1.530000e-06	7.813410e-07	1.337648e-11	5.874685e+00	-5.239115e-02
1.540000e-06	7.892559e-07	1.090659e-11	5.934195e+00	-5.134646e-02
1.550000e-06	7.969364e-07	8.910642e-12	5.991942e+00	-5.103484e-02
1.560000e-06	8.043706e-07	8.442742e-12	6.047838e+00	-5.029016e-02
1.570000e-06	8.115758e-07	8.017088e-12	6.102012e+00	-4.788927e-02
1.580000e-06	8.185596e-07	7.501542e-12	6.154521e+00	-4.341156e-02
1.590000e-06	8.253027e-07	8.017919e-12	6.205221e+00	-3.772444e-02
1.600000e-06	8.318029e-07	9.316689e-12	6.254094e+00	-3.268213e-02
1.610000e-06	8.380833e-07	1.116204e-11	6.301315e+00	-3.010978e-02
1.620000e-06	8.441451e-07	1.273392e-11	6.346892e+00	-3.063886e-02
1.630000e-06	8.499603e-07	1.227086e-11	6.390614e+00	-3.312731e-02
1.640000e-06	8.555279e-07	1.088446e-11	6.432476e+00	-3.509792e-02
1.650000e-06	8.608381e-07	1.031760e-11	6.472401e+00	-3.402295e-02
1.660000e-06	8.658665e-07	1.007573e-11	6.510209e+00	-2.874324e-02
1.670000e-06	8.706337e-07	9.263306e-12	6.546052e+00	-2.018672e-02
1.680000e-06	8.751701e-07	8.150730e-12	6.580160e+00	-1.093956e-02
1.690000e-06	8.794605e-07	8.311385e-12	6.612418e+00	-3.897878e-03
1.700000e-06	8.834931e-07	8.880878e-12	6.642739e+00	-7.741155e-04
1.710000e-06	8.872968e-07	8.105102e-12	6.671338e+00	-1.310956e-03
1.720000e-06	8.908651e-07	7.479152e-12	6.698167e+00	-3.618043e-03
1.730000e-06	8.941704e-07	7.531082e-12	6.723018e+00	-5.367807e-03
1.740000e-06	8.972300e-07	6.303299e-12	6.746022e+00	-5.090827e-03
1.750000e-06	9.000469e-07	4.103076e-12	6.767202e+00	-2.801040e-03
1.760000e-06	9.025976e-07	2.666353e-12	6.786379e+00	3.528406e-04
1.770000e-06	9.048955e-07	3.924915e-12	6.803657e+00	3.082900e-03
1.780000e-06	9.069627e-07	6.181376e-12	6.819200e+00	4.891127e-03
1.790000e-06	9.087747e-07	7.485960e-12	6.832824e+00	6.315571e-03
1.800000e-06	9.103080e-07	9.435105e-12	6.844352e+00	8.376272e-03
1.810000e-06	9.115628e-07	1.120857e-11	6.853787e+00	1.166190e-02
1.820000e-06	9.125346e-07	1.038397e-11	6.861093e+00	1.573980e-02
1.830000e-06	9.132467e-07	7.594384e-12	6.866447e+00	1.933875e-02
1.840000e-06	9.137111e-07	3.153311e-12	6.869939e+00	2.120701e-02
1.850000e-06	9.139121e-07	1.937112e-12	6.871450e+00	2.106126e-02
1.860000e-06	9.138466e-07	4.013875e-12	6.870958e+00	1.994925e-02
1.870000e-06	9.135161e-07	2.979827e-12	6.868473e+00	1.972238e-02
1.880000e-06	9.129385e-07	6.973496e-12	6.864130e+00	2.191170e-02
1.890000e-06	9.120968e-07	1.605710e-11	6.857801e+00	2.672463e-02
1.900000e-06	9.109282e-07	1.860520e-11	6.849015e+00	3.283853e-02
1.910000e-06	9.094814e-07	-1.713670e-11	6.838137e+00	3.817401e-02
1.920000e-06	9.078568e-07	-7.536117e-12	6.825922e+00	4.119518e-02
1.930000e-06	9.060936e-07	5.595010e-12	6.812665e+00	4.192108e-02
1.940000e-06	9.040700e-07	7.631865e-12	6.797450e+00	4.198444e-02
1.950000e-06	9.015968e-07	1.180571e-11	6.778855e+00	4.365745e-02
1.960000e-06	8.987117e-07	-1.354766e-11	6.757163e+00	4.841569e-02
1.970000e-06	8.956871e-07	2.544729e-12	6.734422e+00	5.591741e-02
1.980000e-06	8.926289e-07	8.307267e-12	6.711428e+00	6.404004e-02
1.990000e-06	8.893510e-07	1.906602e-11	6.686782e+00	6.998164e-02
2.000000e-06	8.856671e-07	-3.288921e-12	6.659084e+00	7.179436e-02
2.010000e-06	8.816340e-07	-1.723976e-11	6.628761e+00	6.946287e-02
2.020000e-06	8.774850e-07	-6.912669e-12	6.597565e+00	6.492040e-02
2.030000e-06	8.732056e-07	6.486324e-12	6.565389e+00	6.102591e-02
2.040000e-06	8.685984e-07	6.617899e-12	6.530749e+00	6.011525e-02
2.050000e-06	8.636038e-07	-2.091839e-11	6.493196e+00	6.293800e-02
2.060000e-06	8.584020e-07	-1.649362e-11	6.454085e+00	6.850682e-02
2.070000e-06	8.530655e-07	8.848776e-13	6.413962e+00	7.482330e-02
2.080000e-06	8.474434e-07	7.809683e-12	6.371691e+00	7.996437e-02
2.090000e-06	8.414629e-07	-8.372790e-12	6.326725e+00	8.289463e-02
2.100000e-06	8.352467e-07	-1.217974e-11	6.279987e+00	8.364043e-02
2.110000e-06	8.289070e-07	-5.139067e-12	6.232320e+00	8.290401e-02
2.120000e-06	8.223213e-07	1.521551e-12	6.182804e+00	8.150666e-02
2.130000e-06	8.153838e-07	-5.280202e-12	6.130643e+00	8.004824e-02
2.140000e-06	8.081999e-07	-1.223034e-11	6.076630e+00	7.890601e-02
2.150000e-06	8.008796e-07	-1.091373e-11	6.021591e+00	7.839641e-02
2.160000e-06	7.933273e-07	-6.049520e-12	5.964807e+00	7.881842e-02
2.170000e-06	7.854418e-07	-4.015844e-12	5.905518e+00	8.025418e-02
2.180000e-06	7.773042e-07	-3.709413e-12	5.844333e+00	8.228093e-02
2.190000e-06	7.690298e-07	-6.004710e-12	5.782121e+00	8.391170e-02
2.200000e-06	7.605479e-07	-1.003010e-11	5.718348e+00	8.397455e-02
2.210000e-06	7.517658e-07	-6.310317e-12	5.652318e+00	8.181556e-02
2.220000e-06	7.427709e-07	7.230192e-13	5.584687e+00	7.789979e-02
2.230000e-06	7.336288e-07	-1.859925e-12	5.515950e+00	7.383814e-02
2.240000e-06	7.242690e-07	-1.240093e-11	5.445577e+00	7.166931e-02
2.250000e-06	7.146536e-07	-7.581185e-12	5.373281e+00	7.271056e-02
2.260000e-06	7.048601e-07	4.303774e-12	5.299646e+00	7.664285e-02
2.270000e-06	6.949161e-07	3.341218e-12	5.224881e+00	8.145162e-02
2.280000e-06	6.847424e-07	-1.178861e-11	5.148387e+00	8.438457e-02
2.290000e-06	6.743180e-07	-9.731154e-12	5.070009e+00	8.346797e-02
2.300000e-06	6.637254e-07	3.675627e-12	4.990366e+00	7.872977e-02
2.310000e-06	6.530010e-07	4.049493e-13	4.909733e+00	7.237983e-02
2.320000e-06	6.420917e-07	-1.611191e-11	4.827709e+00	6.776570e-02
2.330000e-06	6.309538e-07	-1.431521e-11	4.743965e+00	6.763312e-02
2.340000e-06	6.196180e-07	1.187177e-12	4.658735e+00	7.264516e-02
2.350000e-06	6.081039e-07	1.415177e-12	4.572163e+00	8.098852e-02
2.360000e-06	5.963972e-07	-7.456858e-12	4.484144e+00	8.928500e-02
2.370000e-06	5.845199e-07	-6.216084e-12	4.394842e+00	9.429108e-02
2.380000e-06	5.724867e-07	9.892327e-13	4.304368e+00	9.444430e-02
2.390000e-06	5.602942e-07	-1.635914e-12	4.212696e+00	9.044243e-02
2.400000e-06	5.479469e-07	-6.327696e-12	4.119860e+00	8.462726e-02
2.410000e-06	5.354318e-07	-4.265107e-12	4.025762e+00	7.962200e-02
2.420000e-06	5.227589e-07	-1.737952e-12	3.930479e+00	7.703878e-02
2.430000e-06	5.099454e-07	-1.959131e-12	3.834137e+00	7.693565e-02
2.440000e-06	4.969964e-07	-4.019893e-13	3.736777e+00	7.818735e-02
2.450000e-06	4.839199e-07	1.554923e-13	3.638459e+00	7.938651e-02
2.460000e-06	4.706831e-07	-3.233036e-12	3.538935e+00	7.964822e-02
2.470000e-06	4.572951e-07	-2.525205e-12	3.438274e+00	7.886806e-02
2.480000e-06	4.437993e-07	3.071021e-12	3.336803e+00	7.741750e-02
2.490000e-06	4.301866e-07	2.849426e-12	3.234453e+00	7.563734e-02
2.500000e-06	4.164427e-07	-2.948375e-12	3.131116e+00	7.356145e-02
2.510000e-06	4.025595e-07	-1.916393e-12	3.026732e+00	7.105274e-02
2.520000e-06	3.885266e-07	5.303455e-12	2.921223e+00	6.816947e-02
2.530000e-06	3.743651e-07	6.349447e-12	2.814747e+00	6.538356e-02
2.540000e-06	3.601062e-07	2.504905e-12	2.707538e+00	6.338953e-02
2.550000e-06	3.457453e-07	2.348613e-12	2.599563e+00	6.258472e-02
2.560000e-06	3.312808e-07	6.570830e-12	2.490808e+00	6.260779e-02
2.570000e-06	3.167403e-07	7.641703e-12	2.381482e+00	6.234922e-02
2.580000e-06	3.021401e-07	3.271929e-12	2.271707e+00	6.054799e-02
2.590000e-06	2.874689e-07	1.227676e-12	2.161398e+00	5.665583e-02
2.600000e-06	2.726871e-07	5.231849e-12	2.050259e+00	5.139278e-02
2.610000e-06	2.577861e-07	8.620544e-12	1.938222e+00	4.654222e-02
2.620000e-06	2.428136e-07	6.241270e-12	1.825648e+00	4.399515e-02
2.630000e-06	2.277949e-07	1.775375e-12	1.712727e+00	4.456456e-02
2.640000e-06	2.127161e-07	1.150554e-12	1.599353e+00	4.730784e-02
2.650000e-06	1.975723e-07	3.245444e-12	1.485491e+00	4.984582e-02
2.660000e-06	1.823807e-07	2.167557e-12	1.371270e+00	4.957969e-02
2.670000e-06	1.671508e-07	-5.176953e-13	1.256760e+00	4.513929e-02
2.680000e-06	1.518731e-07	2.099194e-13	1.141892e+00	3.721489e-02
2.690000e-06	1.365509e-07	4.345164e-12	1.026688e+00	2.826040e-02
2.700000e-06	1.212014e-07	6.323657e-12	9.112798e-01	2.121745e-02
2.710000e-06	1.058314e-07	3.891907e-12	7.957166e-01	1.799187e-02
2.720000e-06	9.043560e-08	2.665735e-12	6.799601e-01	1.855443e-02
2.730000e-06	7.501763e-08	4.796796e-12	5.640367e-01	2.115059e-02
2.740000e-06	5.959038e-08	6.729416e-12	4.480434e-01	2.343136e-02
2.750000e-06	4.416412e-08	5.342033e-12	3.320577e-01	2.378072e-02
2.760000e-06	2.873023e-08	2.360774e-12	2.160146e-01	2.204407e-02
2.770000e-06	1.327778e-08	1.563981e-12	9.983192e-02	1.928486e-02
2.780000e-06	-2.181165e-09	3.536284e-12	-1.639957e-02	1.682993e-02
2.790000e-06	-1.763201e-08	3.991040e-12	-1.325702e-01	1.529554e-02
2.800000e-06	-3.307122e-08	1.937580e-12	-2.486533e-01	1.424633e-02
2.810000e-06	-4.850459e-08	2.208271e-12	-3.646925e-01	1.267178e-02
2.820000e-06	-6.393478e-08	4.636073e-12	-4.807078e-01	9.892785e-03
2.830000e-06	-7.935278e-08	6.006391e-12	-5.966314e-01	6.219310e-03
2.840000e-06	-9.474932e-08	5.993104e-12	-7.123937e-01	2.861724e-03
2.850000e-06	-1.101264e-07	7.248626e-12	-8.280101e-01	1.126602e-03
2.860000e-06	-1.254864e-07	9.688642e-12	-9.434973e-01	1.441305e-03
2.870000e-06	-1.408088e-07	1.140742e-11	-1.058702e+00	2.899067e-03
2.880000e-06	-1.560827e-07	1.149548e-11	-1.173542e+00	3.688921e-03
2.890000e-06	-1.713077e-07	1.085047e-11	-1.288015e+00	2.183549e-03
2.900000e-06	-1.864817e-07	1.030231e-11	-1.402104e+00	-2.004193e-03
2.910000e-06	-2.016098e-07	9.051198e-12	-1.515848e+00	-7.703135e-03
2.920000e-06	-2.166874e-07	7.806003e-12	-1.629212e+00	-1.285754e-02
2.930000e-06	-2.317145e-07	8.540636e-12	-1.742197e+00	-1.580603e-02
2.940000e-06	-2.466918e-07	1.084528e-11	-1.854807e+00	-1.636684e-02
2.950000e-06	-2.615939e-07	1.161543e-11	-1.966851e+00	-1.602198e-02
