# Temperatura_=_20.0
# Concentracion g/m^3_=_10000.0
# C_Vs_to_Am_M_A/Vsm_=_65563218390.804596
# pendiente_HvsI_1/m_=_3716.3
# ordenada_HvsI_A/m_=_1297.0
# frecuencia_Hz_=_269720.7189485156

Tiempo_(s)	Campo_(V.s)	Magnetizacion_(V.s)	Campo_(kA/m)	Magnetizacion_(A/m)
0.000000e+00	-9.122411e-07	-1.406183e-09	-6.860158e+00	-9.088094e+01
1.000000e-08	-9.120495e-07	-1.409585e-09	-6.858717e+00	-9.095908e+01
2.000000e-08	-9.115823e-07	-1.408537e-09	-6.855204e+00	-9.099281e+01
3.000000e-08	-9.109117e-07	-1.410914e-09	-6.850161e+00	-9.097640e+01
4.000000e-08	-9.100072e-07	-1.424322e-09	-6.843359e+00	-9.091911e+01
5.000000e-08	-9.088727e-07	-1.426779e-09	-6.834827e+00	-9.083826e+01
6.000000e-08	-9.076547e-07	-1.378380e-09	-6.825668e+00	-9.074746e+01
7.000000e-08	-9.061756e-07	-1.391827e-09	-6.814545e+00	-9.064745e+01
8.000000e-08	-9.042398e-07	-1.398634e-09	-6.799987e+00	-9.052545e+01
9.000000e-08	-9.019681e-07	-1.386337e-09	-6.782904e+00	-9.036321e+01
1.000000e-07	-8.993370e-07	-1.415305e-09	-6.763118e+00	-9.014881e+01
1.100000e-07	-8.963667e-07	-1.381906e-09	-6.740781e+00	-8.988469e+01
1.200000e-07	-8.932658e-07	-1.368333e-09	-6.717461e+00	-8.958702e+01
1.300000e-07	-8.900854e-07	-1.377262e-09	-6.693545e+00	-8.927660e+01
1.400000e-07	-8.867039e-07	-1.386105e-09	-6.668115e+00	-8.896698e+01
1.500000e-07	-8.830135e-07	-1.379458e-09	-6.640363e+00	-8.865691e+01
1.600000e-07	-8.790353e-07	-1.338725e-09	-6.610447e+00	-8.833150e+01
1.700000e-07	-8.748473e-07	-1.340376e-09	-6.578953e+00	-8.797122e+01
1.800000e-07	-8.703976e-07	-1.354119e-09	-6.545490e+00	-8.756313e+01
1.900000e-07	-8.656584e-07	-1.353990e-09	-6.509851e+00	-8.710774e+01
2.000000e-07	-8.606953e-07	-1.319313e-09	-6.472528e+00	-8.661765e+01
2.100000e-07	-8.555054e-07	-1.300141e-09	-6.433499e+00	-8.610942e+01
2.200000e-07	-8.500071e-07	-1.312981e-09	-6.392151e+00	-8.559389e+01
2.300000e-07	-8.441828e-07	-1.318187e-09	-6.348352e+00	-8.507072e+01
2.400000e-07	-8.381189e-07	-1.304596e-09	-6.302751e+00	-8.453023e+01
2.500000e-07	-8.318870e-07	-1.276082e-09	-6.255886e+00	-8.396058e+01
2.600000e-07	-8.254277e-07	-1.270884e-09	-6.207312e+00	-8.335557e+01
2.700000e-07	-8.186723e-07	-1.267065e-09	-6.156510e+00	-8.271818e+01
2.800000e-07	-8.116803e-07	-1.254945e-09	-6.103930e+00	-8.205787e+01
2.900000e-07	-8.045104e-07	-1.234974e-09	-6.050011e+00	-8.138386e+01
3.000000e-07	-7.970922e-07	-1.227589e-09	-5.994225e+00	-8.069886e+01
3.100000e-07	-7.893628e-07	-1.221321e-09	-5.936099e+00	-7.999699e+01
3.200000e-07	-7.813617e-07	-1.214450e-09	-5.875930e+00	-7.926729e+01
3.300000e-07	-7.731509e-07	-1.197746e-09	-5.814184e+00	-7.850002e+01
3.400000e-07	-7.647502e-07	-1.178482e-09	-5.751009e+00	-7.769206e+01
3.500000e-07	-7.561196e-07	-1.158635e-09	-5.686107e+00	-7.684827e+01
3.600000e-07	-7.472934e-07	-1.150159e-09	-5.619732e+00	-7.597841e+01
3.700000e-07	-7.383081e-07	-1.146464e-09	-5.552162e+00	-7.509202e+01
3.800000e-07	-7.290960e-07	-1.132337e-09	-5.482886e+00	-7.419442e+01
3.900000e-07	-7.196172e-07	-1.106901e-09	-5.411604e+00	-7.328592e+01
4.000000e-07	-7.099409e-07	-1.089384e-09	-5.338837e+00	-7.236379e+01
4.100000e-07	-7.001188e-07	-1.087468e-09	-5.264974e+00	-7.142498e+01
4.200000e-07	-6.900958e-07	-1.074441e-09	-5.189600e+00	-7.046738e+01
4.300000e-07	-6.798226e-07	-1.047991e-09	-5.112344e+00	-6.948889e+01
4.400000e-07	-6.693466e-07	-1.027189e-09	-5.033563e+00	-6.848577e+01
4.500000e-07	-6.587221e-07	-1.023168e-09	-4.953666e+00	-6.745220e+01
4.600000e-07	-6.479230e-07	-1.008353e-09	-4.872456e+00	-6.638241e+01
4.700000e-07	-6.369239e-07	-9.772972e-10	-4.789741e+00	-6.527465e+01
4.800000e-07	-6.257352e-07	-9.525119e-10	-4.705601e+00	-6.413439e+01
4.900000e-07	-6.143669e-07	-9.442961e-10	-4.620110e+00	-6.297433e+01
5.000000e-07	-6.028061e-07	-9.332915e-10	-4.533171e+00	-6.181008e+01
5.100000e-07	-5.910510e-07	-9.104814e-10	-4.444771e+00	-6.065350e+01
5.200000e-07	-5.791287e-07	-8.891439e-10	-4.355114e+00	-5.950692e+01
5.300000e-07	-5.670576e-07	-8.721642e-10	-4.264338e+00	-5.836187e+01
5.400000e-07	-5.548325e-07	-8.548800e-10	-4.172404e+00	-5.720319e+01
5.500000e-07	-5.424288e-07	-8.352458e-10	-4.079127e+00	-5.601680e+01
5.600000e-07	-5.298629e-07	-8.160014e-10	-3.984630e+00	-5.479712e+01
5.700000e-07	-5.171548e-07	-7.950572e-10	-3.889063e+00	-5.355029e+01
5.800000e-07	-5.043176e-07	-7.769056e-10	-3.792527e+00	-5.229141e+01
5.900000e-07	-4.913634e-07	-7.616358e-10	-3.695109e+00	-5.103734e+01
6.000000e-07	-4.782500e-07	-7.425588e-10	-3.596495e+00	-4.979853e+01
6.100000e-07	-4.649658e-07	-7.182771e-10	-3.496596e+00	-4.857406e+01
6.200000e-07	-4.515482e-07	-6.983078e-10	-3.395694e+00	-4.735210e+01
6.300000e-07	-4.380262e-07	-6.859113e-10	-3.294007e+00	-4.611534e+01
6.400000e-07	-4.243882e-07	-6.693120e-10	-3.191448e+00	-4.484871e+01
6.500000e-07	-4.106187e-07	-6.436585e-10	-3.087900e+00	-4.354585e+01
6.600000e-07	-3.967117e-07	-6.182739e-10	-2.983318e+00	-4.221132e+01
6.700000e-07	-3.826706e-07	-6.010769e-10	-2.877727e+00	-4.085813e+01
6.800000e-07	-3.685217e-07	-5.845001e-10	-2.771326e+00	-3.950158e+01
6.900000e-07	-3.542514e-07	-5.616135e-10	-2.664011e+00	-3.815237e+01
7.000000e-07	-3.398391e-07	-5.373193e-10	-2.555629e+00	-3.681185e+01
7.100000e-07	-3.253007e-07	-5.190980e-10	-2.446299e+00	-3.547139e+01
7.200000e-07	-3.106833e-07	-5.023883e-10	-2.336374e+00	-3.411636e+01
7.300000e-07	-2.959910e-07	-4.787202e-10	-2.225886e+00	-3.273303e+01
7.400000e-07	-2.812027e-07	-4.511541e-10	-2.114676e+00	-3.131554e+01
7.500000e-07	-2.663378e-07	-4.282106e-10	-2.002891e+00	-2.986959e+01
7.600000e-07	-2.514248e-07	-4.102375e-10	-1.890744e+00	-2.841086e+01
7.700000e-07	-2.364637e-07	-3.889172e-10	-1.778234e+00	-2.695816e+01
7.800000e-07	-2.214370e-07	-3.617486e-10	-1.665232e+00	-2.552424e+01
7.900000e-07	-2.063560e-07	-3.357123e-10	-1.551821e+00	-2.410853e+01
8.000000e-07	-1.912177e-07	-3.164382e-10	-1.437979e+00	-2.269597e+01
8.100000e-07	-1.760209e-07	-2.975956e-10	-1.323697e+00	-2.126328e+01
8.200000e-07	-1.607777e-07	-2.729540e-10	-1.209067e+00	-1.979025e+01
8.300000e-07	-1.454982e-07	-2.470105e-10	-1.094163e+00	-1.827065e+01
8.400000e-07	-1.301915e-07	-2.249853e-10	-9.790552e-01	-1.671694e+01
8.500000e-07	-1.148610e-07	-2.046006e-10	-8.637680e-01	-1.515551e+01
8.600000e-07	-9.949187e-08	-1.801407e-10	-7.481903e-01	-1.361451e+01
8.700000e-07	-8.407263e-08	-1.531645e-10	-6.322359e-01	-1.210994e+01
8.800000e-07	-6.862300e-08	-1.298452e-10	-5.160529e-01	-1.063767e+01
8.900000e-07	-5.315640e-08	-1.105994e-10	-3.997423e-01	-9.175691e+00
9.000000e-07	-3.768334e-08	-9.105675e-11	-2.833830e-01	-7.695894e+00
9.100000e-07	-2.219692e-08	-6.696001e-11	-1.669234e-01	-6.178925e+00
9.200000e-07	-6.689796e-09	-4.060468e-11	-5.030803e-02	-4.624099e+00
9.300000e-07	8.818643e-09	-1.705425e-11	6.631721e-02	-3.048814e+00
9.400000e-07	2.431425e-08	5.566677e-12	1.828460e-01	-1.477938e+00
9.500000e-07	3.980008e-08	2.988094e-11	2.993012e-01	7.056756e-02
9.600000e-07	5.527498e-08	5.530449e-11	4.156742e-01	1.595322e+00
9.700000e-07	7.072974e-08	7.787688e-11	5.318958e-01	3.110815e+00
9.800000e-07	8.614744e-08	9.825630e-11	6.478386e-01	4.636903e+00
9.900000e-07	1.015212e-07	1.213233e-10	7.634510e-01	6.185056e+00
1.000000e-06	1.168636e-07	1.467365e-10	8.788275e-01	7.749972e+00
1.010000e-06	1.321789e-07	1.701456e-10	9.940002e-01	9.311936e+00
1.020000e-06	1.474665e-07	1.904375e-10	1.108965e+00	1.084868e+01
1.030000e-06	1.627146e-07	2.105863e-10	1.223633e+00	1.234953e+01
1.040000e-06	1.779137e-07	2.342108e-10	1.337932e+00	1.382287e+01
1.050000e-06	1.930612e-07	2.585995e-10	1.451843e+00	1.529209e+01
1.060000e-06	2.081600e-07	2.797896e-10	1.565387e+00	1.678197e+01
1.070000e-06	2.232056e-07	3.008045e-10	1.678532e+00	1.830372e+01
1.080000e-06	2.381932e-07	3.240845e-10	1.791240e+00	1.984782e+01
1.090000e-06	2.531278e-07	3.505846e-10	1.903550e+00	2.138923e+01
1.100000e-06	2.680105e-07	3.743937e-10	2.015470e+00	2.290204e+01
1.110000e-06	2.828215e-07	3.925794e-10	2.126851e+00	2.437460e+01
1.120000e-06	2.975337e-07	4.123354e-10	2.237488e+00	2.581583e+01
1.130000e-06	3.121543e-07	4.356139e-10	2.347436e+00	2.724879e+01
1.140000e-06	3.266906e-07	4.583830e-10	2.456751e+00	2.869527e+01
1.150000e-06	3.411263e-07	4.790786e-10	2.565309e+00	3.016129e+01
1.160000e-06	3.554477e-07	5.007384e-10	2.673008e+00	3.163257e+01
1.170000e-06	3.696614e-07	5.225884e-10	2.779896e+00	3.308318e+01
1.180000e-06	3.837807e-07	5.430553e-10	2.886075e+00	3.449234e+01
1.190000e-06	3.977802e-07	5.612005e-10	2.991353e+00	3.585889e+01
1.200000e-06	4.116269e-07	5.786300e-10	3.095482e+00	3.720411e+01
1.210000e-06	4.253383e-07	5.979655e-10	3.198593e+00	3.856060e+01
1.220000e-06	4.389251e-07	6.193142e-10	3.300768e+00	3.995341e+01
1.230000e-06	4.523846e-07	6.399111e-10	3.401984e+00	4.138467e+01
1.240000e-06	4.657369e-07	6.597793e-10	3.502395e+00	4.283105e+01
1.250000e-06	4.789715e-07	6.801312e-10	3.601921e+00	4.425577e+01
1.260000e-06	4.920448e-07	7.001017e-10	3.700234e+00	4.562827e+01
1.270000e-06	5.049663e-07	7.188233e-10	3.797405e+00	4.693984e+01
1.280000e-06	5.177552e-07	7.358627e-10	3.893579e+00	4.820627e+01
1.290000e-06	5.304049e-07	7.527304e-10	3.988706e+00	4.945626e+01
1.300000e-06	5.429286e-07	7.690920e-10	4.082885e+00	5.071305e+01
1.310000e-06	5.552960e-07	7.858671e-10	4.175890e+00	5.198073e+01
1.320000e-06	5.674859e-07	8.025465e-10	4.267559e+00	5.324329e+01
1.330000e-06	5.795231e-07	8.187862e-10	4.358080e+00	5.447665e+01
1.340000e-06	5.914041e-07	8.352821e-10	4.447427e+00	5.566558e+01
1.350000e-06	6.031059e-07	8.522652e-10	4.535426e+00	5.681439e+01
1.360000e-06	6.146013e-07	8.688220e-10	4.621872e+00	5.794461e+01
1.370000e-06	6.259028e-07	8.849533e-10	4.706861e+00	5.908099e+01
1.380000e-06	6.370484e-07	9.013107e-10	4.790678e+00	6.023478e+01
1.390000e-06	6.480399e-07	9.188655e-10	4.873335e+00	6.139522e+01
1.400000e-06	6.588496e-07	9.369696e-10	4.954624e+00	6.253511e+01
1.410000e-06	6.694542e-07	9.535300e-10	5.034372e+00	6.362737e+01
1.420000e-06	6.798641e-07	9.687102e-10	5.112656e+00	6.466255e+01
1.430000e-06	6.900925e-07	9.833296e-10	5.189575e+00	6.565632e+01
1.440000e-06	7.001204e-07	9.971042e-10	5.264986e+00	6.664175e+01
1.450000e-06	7.099308e-07	1.009585e-09	5.338761e+00	6.765069e+01
1.460000e-06	7.195355e-07	1.022388e-09	5.410990e+00	6.869513e+01
1.470000e-06	7.289514e-07	1.036413e-09	5.481799e+00	6.975963e+01
1.480000e-06	7.381599e-07	1.051657e-09	5.551047e+00	7.080952e+01
1.490000e-06	7.471414e-07	1.068018e-09	5.618590e+00	7.181005e+01
1.500000e-06	7.559127e-07	1.082887e-09	5.684550e+00	7.274534e+01
1.510000e-06	7.644969e-07	1.094970e-09	5.749105e+00	7.362611e+01
1.520000e-06	7.728729e-07	1.106088e-09	5.812093e+00	7.448213e+01
1.530000e-06	7.810123e-07	1.118537e-09	5.873302e+00	7.534416e+01
1.540000e-06	7.889314e-07	1.132306e-09	5.932855e+00	7.622625e+01
1.550000e-06	7.966185e-07	1.145777e-09	5.990663e+00	7.711855e+01
1.560000e-06	8.040513e-07	1.158835e-09	6.046559e+00	7.799413e+01
1.570000e-06	8.112490e-07	1.172326e-09	6.100686e+00	7.882481e+01
1.580000e-06	8.182358e-07	1.185670e-09	6.153227e+00	7.959647e+01
1.590000e-06	8.249897e-07	1.196974e-09	6.204017e+00	8.031470e+01
1.600000e-06	8.314968e-07	1.207138e-09	6.252952e+00	8.099874e+01
1.610000e-06	8.377801e-07	1.216969e-09	6.300203e+00	8.166836e+01
1.620000e-06	8.438411e-07	1.225630e-09	6.345782e+00	8.233242e+01
1.630000e-06	8.496629e-07	1.234220e-09	6.389563e+00	8.298595e+01
1.640000e-06	8.552395e-07	1.243327e-09	6.431499e+00	8.361660e+01
1.650000e-06	8.605535e-07	1.253474e-09	6.471461e+00	8.421520e+01
1.660000e-06	8.655782e-07	1.263868e-09	6.509248e+00	8.478293e+01
1.670000e-06	8.703423e-07	1.272961e-09	6.545074e+00	8.533040e+01
1.680000e-06	8.748862e-07	1.281904e-09	6.579245e+00	8.586946e+01
1.690000e-06	8.791838e-07	1.291597e-09	6.611564e+00	8.640382e+01
1.700000e-06	8.832168e-07	1.301447e-09	6.641892e+00	8.692504e+01
1.710000e-06	8.870194e-07	1.310311e-09	6.670488e+00	8.741685e+01
1.720000e-06	8.905845e-07	1.316872e-09	6.697298e+00	8.786511e+01
1.730000e-06	8.938918e-07	1.322162e-09	6.722169e+00	8.826667e+01
1.740000e-06	8.969635e-07	1.327457e-09	6.745269e+00	8.863124e+01
1.750000e-06	8.997965e-07	1.333075e-09	6.766573e+00	8.897462e+01
1.760000e-06	9.023598e-07	1.339311e-09	6.785850e+00	8.930785e+01
1.770000e-06	9.046647e-07	1.345001e-09	6.803183e+00	8.962905e+01
1.780000e-06	9.067386e-07	1.349491e-09	6.818779e+00	8.992380e+01
1.790000e-06	9.085555e-07	1.353640e-09	6.832442e+00	9.017386e+01
1.800000e-06	9.100952e-07	1.356588e-09	6.844021e+00	9.036903e+01
1.810000e-06	9.113553e-07	1.357784e-09	6.853497e+00	9.051459e+01
1.820000e-06	9.123349e-07	1.359347e-09	6.860863e+00	9.062930e+01
1.830000e-06	9.130579e-07	1.361742e-09	6.866301e+00	9.073502e+01
1.840000e-06	9.135317e-07	1.365651e-09	6.869863e+00	9.084422e+01
1.850000e-06	9.137427e-07	1.368882e-09	6.871450e+00	9.095295e+01
1.860000e-06	9.136872e-07	1.368394e-09	6.871033e+00	9.104357e+01
1.870000e-06	9.133612e-07	1.371923e-09	6.868581e+00	9.109560e+01
1.880000e-06	9.127931e-07	1.369297e-09	6.864309e+00	9.109779e+01
1.890000e-06	9.119756e-07	1.357944e-09	6.858162e+00	9.105414e+01
1.900000e-06	9.108194e-07	1.351727e-09	6.849467e+00	9.098021e+01
1.910000e-06	9.093761e-07	1.385636e-09	6.838613e+00	9.089239e+01
1.920000e-06	9.077571e-07	1.382409e-09	6.826438e+00	9.079684e+01
1.930000e-06	9.060036e-07	1.367334e-09	6.813251e+00	9.068533e+01
1.940000e-06	9.039993e-07	1.361561e-09	6.798178e+00	9.054031e+01
1.950000e-06	9.015432e-07	1.347174e-09	6.779709e+00	9.034619e+01
1.960000e-06	8.986595e-07	1.366501e-09	6.758023e+00	9.009957e+01
1.970000e-06	8.956364e-07	1.355477e-09	6.735289e+00	8.981218e+01
1.980000e-06	8.925947e-07	1.349532e-09	6.712415e+00	8.950446e+01
1.990000e-06	8.893323e-07	1.328629e-09	6.687881e+00	8.919396e+01
2.000000e-06	8.856576e-07	1.336490e-09	6.660247e+00	8.888535e+01
2.010000e-06	8.816258e-07	1.348172e-09	6.629927e+00	8.856813e+01
2.020000e-06	8.774834e-07	1.333226e-09	6.598776e+00	8.822316e+01
2.030000e-06	8.732247e-07	1.315391e-09	6.566750e+00	8.783386e+01
2.040000e-06	8.686392e-07	1.308822e-09	6.532267e+00	8.739540e+01
2.050000e-06	8.636482e-07	1.329222e-09	6.494734e+00	8.691651e+01
2.060000e-06	8.584428e-07	1.321606e-09	6.455589e+00	8.641347e+01
2.070000e-06	8.531153e-07	1.298228e-09	6.415525e+00	8.590022e+01
2.080000e-06	8.475043e-07	1.279623e-09	6.373330e+00	8.538080e+01
2.090000e-06	8.415250e-07	1.285371e-09	6.328365e+00	8.484842e+01
2.100000e-06	8.353099e-07	1.286354e-09	6.281626e+00	8.429101e+01
2.110000e-06	8.289803e-07	1.274190e-09	6.234028e+00	8.369956e+01
2.120000e-06	8.224073e-07	1.257924e-09	6.184597e+00	8.307357e+01
2.130000e-06	8.154744e-07	1.254310e-09	6.132461e+00	8.242073e+01
2.140000e-06	8.082831e-07	1.252804e-09	6.078382e+00	8.175124e+01
2.150000e-06	8.009694e-07	1.239788e-09	6.023382e+00	8.107075e+01
2.160000e-06	7.934385e-07	1.220043e-09	5.966749e+00	8.037649e+01
2.170000e-06	7.855656e-07	1.210241e-09	5.907544e+00	7.965873e+01
2.180000e-06	7.774344e-07	1.205820e-09	5.846396e+00	7.890649e+01
2.190000e-06	7.691705e-07	1.199487e-09	5.784251e+00	7.811376e+01
2.200000e-06	7.607039e-07	1.187996e-09	5.720581e+00	7.728257e+01
2.210000e-06	7.519276e-07	1.171123e-09	5.654582e+00	7.642138e+01
2.220000e-06	7.429301e-07	1.153340e-09	5.586920e+00	7.554043e+01
2.230000e-06	7.337959e-07	1.139899e-09	5.518230e+00	7.464689e+01
2.240000e-06	7.244541e-07	1.133131e-09	5.447978e+00	7.374284e+01
2.250000e-06	7.148526e-07	1.117343e-09	5.375774e+00	7.282635e+01
2.260000e-06	7.050669e-07	1.097062e-09	5.302184e+00	7.189424e+01
2.270000e-06	6.951239e-07	1.082847e-09	5.227412e+00	7.094404e+01
2.280000e-06	6.849480e-07	1.079374e-09	5.150888e+00	6.997384e+01
2.290000e-06	6.745205e-07	1.061620e-09	5.072472e+00	6.898070e+01
2.300000e-06	6.639279e-07	1.037856e-09	4.992814e+00	6.795944e+01
2.310000e-06	6.532099e-07	1.027111e-09	4.912214e+00	6.690389e+01
2.320000e-06	6.423081e-07	1.024731e-09	4.830231e+00	6.581030e+01
2.330000e-06	6.311747e-07	1.006104e-09	4.746506e+00	6.468122e+01
2.340000e-06	6.198448e-07	9.752019e-10	4.661304e+00	6.352692e+01
2.350000e-06	6.083394e-07	9.579145e-10	4.574782e+00	6.236264e+01
2.360000e-06	5.966368e-07	9.493582e-10	4.486777e+00	6.120245e+01
2.370000e-06	5.847607e-07	9.322915e-10	4.397468e+00	6.005271e+01
2.380000e-06	5.727292e-07	9.097882e-10	4.306990e+00	5.890880e+01
2.390000e-06	5.605369e-07	8.969178e-10	4.215302e+00	5.775727e+01
2.400000e-06	5.481807e-07	8.849052e-10	4.122382e+00	5.658265e+01
2.410000e-06	5.356577e-07	8.645236e-10	4.028208e+00	5.537551e+01
2.420000e-06	5.229878e-07	8.424948e-10	3.932929e+00	5.413759e+01
2.430000e-06	5.101820e-07	8.253700e-10	3.836627e+00	5.288130e+01
2.440000e-06	4.972430e-07	8.062660e-10	3.739324e+00	5.162385e+01
2.450000e-06	4.841798e-07	7.856760e-10	3.641088e+00	5.037890e+01
2.460000e-06	4.709541e-07	7.705285e-10	3.541629e+00	4.915008e+01
2.470000e-06	4.575729e-07	7.546460e-10	3.441001e+00	4.792922e+01
2.480000e-06	4.440833e-07	7.331018e-10	3.339557e+00	4.670020e+01
2.490000e-06	4.304753e-07	7.134075e-10	3.237224e+00	4.544623e+01
2.500000e-06	4.167396e-07	6.978697e-10	3.133930e+00	4.415714e+01
2.510000e-06	4.028635e-07	6.791060e-10	3.029580e+00	4.283345e+01
2.520000e-06	3.888380e-07	6.561098e-10	2.924106e+00	4.148558e+01
2.530000e-06	3.746824e-07	6.350131e-10	2.817655e+00	4.012879e+01
2.540000e-06	3.604246e-07	6.160335e-10	2.710435e+00	3.877625e+01
2.550000e-06	3.460637e-07	5.933434e-10	2.602439e+00	3.743314e+01
2.560000e-06	3.316012e-07	5.682791e-10	2.493680e+00	3.609432e+01
2.570000e-06	3.170659e-07	5.483744e-10	2.384372e+00	3.474671e+01
2.580000e-06	3.024712e-07	5.333133e-10	2.274618e+00	3.337538e+01
2.590000e-06	2.877978e-07	5.152173e-10	2.164273e+00	3.197083e+01
2.600000e-06	2.730135e-07	4.907212e-10	2.053093e+00	3.053429e+01
2.610000e-06	2.581169e-07	4.651344e-10	1.941069e+00	2.907826e+01
2.620000e-06	2.431409e-07	4.458347e-10	1.828448e+00	2.762143e+01
2.630000e-06	2.281142e-07	4.293945e-10	1.715445e+00	2.617985e+01
2.640000e-06	2.130315e-07	4.073940e-10	1.602021e+00	2.475850e+01
2.650000e-06	1.978935e-07	3.819776e-10	1.488182e+00	2.334740e+01
2.660000e-06	1.827140e-07	3.611988e-10	1.374031e+00	2.192521e+01
2.670000e-06	1.674871e-07	3.440150e-10	1.259522e+00	2.046912e+01
2.680000e-06	1.522052e-07	3.220861e-10	1.144601e+00	1.896668e+01
2.690000e-06	1.368916e-07	2.937398e-10	1.029441e+00	1.742335e+01
2.700000e-06	1.215557e-07	2.687517e-10	9.141131e-01	1.586143e+01
2.710000e-06	1.061897e-07	2.504932e-10	7.985590e-01	1.431012e+01
2.720000e-06	9.079471e-08	2.300131e-10	6.827867e-01	1.279137e+01
2.730000e-06	7.537658e-08	2.033485e-10	5.668406e-01	1.130892e+01
2.740000e-06	5.995022e-08	1.763705e-10	4.508326e-01	9.846521e+00
2.750000e-06	4.452876e-08	1.550833e-10	3.348614e-01	8.376592e+00
2.760000e-06	2.910050e-08	1.356736e-10	2.188391e-01	6.874896e+00
2.770000e-06	1.365028e-08	1.117829e-10	1.026517e-01	5.333197e+00
2.780000e-06	-1.806147e-09	8.426261e-11	-1.358243e-02	3.762901e+00
2.790000e-06	-1.724741e-08	6.067528e-11	-1.297025e-01	2.187743e+00
2.800000e-06	-3.267753e-08	4.150148e-11	-2.457388e-01	6.298340e-01
2.810000e-06	-4.811118e-08	1.869922e-11	-3.618016e-01	-9.026918e-01
2.820000e-06	-6.354504e-08	-8.851004e-12	-4.778660e-01	-2.419170e+00
2.830000e-06	-7.896162e-08	-3.492274e-11	-5.938004e-01	-3.939072e+00
2.840000e-06	-9.435202e-08	-5.693026e-11	-7.095381e-01	-5.478458e+00
2.850000e-06	-1.097287e-07	-7.976504e-11	-8.251721e-01	-7.038664e+00
2.860000e-06	-1.250931e-07	-1.070291e-10	-9.407145e-01	-8.604391e+00
2.870000e-06	-1.404190e-07	-1.355127e-10	-1.055967e+00	-1.015259e+01
2.880000e-06	-1.556919e-07	-1.590326e-10	-1.170821e+00	-1.166684e+01
2.890000e-06	-1.709125e-07	-1.787995e-10	-1.285282e+00	-1.314819e+01
2.900000e-06	-1.860946e-07	-2.012071e-10	-1.399453e+00	-1.461563e+01
2.910000e-06	-2.012331e-07	-2.254497e-10	-1.513296e+00	-1.609530e+01
2.920000e-06	-2.163108e-07	-2.485159e-10	-1.626682e+00	-1.760494e+01
2.930000e-06	-2.313377e-07	-2.719794e-10	-1.739686e+00	-1.914287e+01
2.940000e-06	-2.463276e-07	-2.969552e-10	-1.852412e+00	-2.068850e+01
2.950000e-06	-2.612486e-07	-3.221629e-10	-1.964619e+00	-2.221429e+01
