# Temperatura_=_20.0
# Concentracion g/m^3_=_10000.0
# C_Vs_to_Am_M_A/Vsm_=_65563218390.804596
# pendiente_HvsI_1/m_=_3716.3
# ordenada_HvsI_A/m_=_1297.0
# frecuencia_Hz_=_269728.4678014087

Tiempo_(s)	Campo_(V.s)	Magnetizacion_(V.s)	Campo_(kA/m)	Magnetizacion_(A/m)
0.000000e+00	-9.101958e-07	-7.243221e-12	-6.858805e+00	-6.954871e-03
1.000000e-08	-9.100027e-07	-1.094624e-11	-6.857350e+00	-7.319160e-03
2.000000e-08	-9.095413e-07	-8.403079e-12	-6.853873e+00	-8.158507e-03
3.000000e-08	-9.088713e-07	-5.823859e-12	-6.848824e+00	-9.394768e-03
4.000000e-08	-9.079624e-07	-1.659784e-11	-6.841975e+00	-1.076007e-02
5.000000e-08	-9.068382e-07	-9.515226e-12	-6.833503e+00	-1.195757e-02
6.000000e-08	-9.056038e-07	1.955224e-11	-6.824202e+00	-1.286166e-02
7.000000e-08	-9.040968e-07	-3.771057e-12	-6.812846e+00	-1.359976e-02
8.000000e-08	-9.021579e-07	-7.317752e-12	-6.798235e+00	-1.442681e-02
9.000000e-08	-8.998696e-07	-7.557336e-12	-6.780991e+00	-1.545499e-02
1.000000e-07	-8.972254e-07	-2.425871e-11	-6.761066e+00	-1.642989e-02
1.100000e-07	-8.942683e-07	9.547350e-12	-6.738783e+00	-1.674765e-02
1.200000e-07	-8.911811e-07	7.428500e-12	-6.715519e+00	-1.576494e-02
1.300000e-07	-8.880002e-07	-1.100791e-11	-6.691549e+00	-1.324960e-02
1.400000e-07	-8.846088e-07	-2.074937e-11	-6.665994e+00	-9.691311e-03
1.500000e-07	-8.809120e-07	-7.593800e-12	-6.638136e+00	-6.238295e-03
1.600000e-07	-8.769365e-07	2.256389e-11	-6.608179e+00	-4.236860e-03
1.700000e-07	-8.727435e-07	5.939205e-12	-6.576582e+00	-4.599478e-03
1.800000e-07	-8.682907e-07	-1.507678e-11	-6.543028e+00	-7.354835e-03
1.900000e-07	-8.635583e-07	-1.460058e-11	-6.507367e+00	-1.164680e-02
2.000000e-07	-8.585920e-07	1.330559e-11	-6.469943e+00	-1.619161e-02
2.100000e-07	-8.533906e-07	1.245876e-11	-6.430748e+00	-1.993000e-02
2.200000e-07	-8.478891e-07	-8.927872e-12	-6.389291e+00	-2.249595e-02
2.300000e-07	-8.420720e-07	-1.485599e-11	-6.345456e+00	-2.424308e-02
2.400000e-07	-8.360149e-07	6.999841e-13	-6.299813e+00	-2.584989e-02
2.500000e-07	-8.297824e-07	1.319090e-11	-6.252848e+00	-2.778843e-02
2.600000e-07	-8.233237e-07	2.649631e-14	-6.204178e+00	-3.001639e-02
2.700000e-07	-8.165832e-07	-7.485811e-12	-6.153385e+00	-3.208973e-02
2.800000e-07	-8.096090e-07	-2.244951e-12	-6.100831e+00	-3.359909e-02
2.900000e-07	-8.024343e-07	6.919088e-12	-6.046765e+00	-3.460199e-02
3.000000e-07	-7.950004e-07	-2.318060e-13	-5.990747e+00	-3.571388e-02
3.100000e-07	-7.872748e-07	-4.537156e-12	-5.932530e+00	-3.774707e-02
3.200000e-07	-7.792938e-07	-5.063921e-12	-5.872390e+00	-4.110389e-02
3.300000e-07	-7.711058e-07	3.266777e-12	-5.810689e+00	-4.532850e-02
3.400000e-07	-7.627253e-07	6.786465e-12	-5.747537e+00	-4.915864e-02
3.500000e-07	-7.541194e-07	7.392977e-12	-5.682687e+00	-5.111990e-02
3.600000e-07	-7.453128e-07	9.778151e-13	-5.616325e+00	-5.035318e-02
3.700000e-07	-7.363415e-07	-4.244788e-12	-5.548721e+00	-4.718662e-02
3.800000e-07	-7.271470e-07	-2.069103e-13	-5.479436e+00	-4.308253e-02
3.900000e-07	-7.176892e-07	6.268834e-12	-5.408166e+00	-3.994726e-02
4.000000e-07	-7.080388e-07	2.379200e-12	-5.335445e+00	-3.917448e-02
4.100000e-07	-6.982352e-07	-7.910359e-12	-5.261570e+00	-4.096296e-02
4.200000e-07	-6.882186e-07	-2.182167e-12	-5.186090e+00	-4.429824e-02
4.300000e-07	-6.779525e-07	8.867321e-12	-5.108729e+00	-4.760001e-02
4.400000e-07	-6.674906e-07	5.769665e-12	-5.029893e+00	-4.964621e-02
4.500000e-07	-6.568771e-07	-7.305404e-12	-4.949915e+00	-5.022713e-02
4.600000e-07	-6.460861e-07	-4.036340e-12	-4.868599e+00	-5.015269e-02
4.700000e-07	-6.351014e-07	8.273038e-12	-4.785824e+00	-5.062795e-02
4.800000e-07	-6.239361e-07	7.635205e-12	-4.701687e+00	-5.238762e-02
4.900000e-07	-6.125944e-07	-3.832779e-12	-4.616221e+00	-5.511541e-02
5.000000e-07	-6.010605e-07	-5.849669e-12	-4.529307e+00	-5.749431e-02
5.100000e-07	-5.893330e-07	8.513983e-13	-4.440935e+00	-5.785611e-02
5.200000e-07	-5.774381e-07	2.827655e-12	-4.351300e+00	-5.505339e-02
5.300000e-07	-5.653946e-07	2.031453e-12	-4.260546e+00	-4.906658e-02
5.400000e-07	-5.531899e-07	2.522392e-12	-4.168577e+00	-4.103211e-02
5.500000e-07	-5.408049e-07	3.490623e-12	-4.075250e+00	-3.271631e-02
5.600000e-07	-5.282611e-07	4.042266e-12	-3.980726e+00	-2.575294e-02
5.700000e-07	-5.155784e-07	5.955568e-12	-3.885155e+00	-2.104661e-02
5.800000e-07	-5.027666e-07	5.548092e-12	-3.788611e+00	-1.859504e-02
5.900000e-07	-4.898277e-07	2.824534e-12	-3.691110e+00	-1.771872e-02
6.000000e-07	-4.767285e-07	3.868437e-12	-3.592401e+00	-1.747987e-02
6.100000e-07	-4.634666e-07	8.842052e-12	-3.492465e+00	-1.703742e-02
6.200000e-07	-4.500732e-07	8.306264e-12	-3.391539e+00	-1.580905e-02
6.300000e-07	-4.365757e-07	1.717230e-12	-3.289828e+00	-1.348214e-02
6.400000e-07	-4.229682e-07	6.179612e-13	-3.187288e+00	-1.000171e-02
6.500000e-07	-4.092248e-07	7.121074e-12	-3.083724e+00	-5.616813e-03
6.600000e-07	-3.953376e-07	1.063118e-11	-2.979077e+00	-9.408745e-04
6.700000e-07	-3.813208e-07	7.211284e-12	-2.873453e+00	3.104659e-03
6.800000e-07	-3.671992e-07	5.788031e-12	-2.767039e+00	5.556314e-03
6.900000e-07	-3.529503e-07	1.025596e-11	-2.659667e+00	5.828045e-03
7.000000e-07	-3.385498e-07	1.234869e-11	-2.551151e+00	4.073511e-03
7.100000e-07	-3.240355e-07	6.834865e-12	-2.441778e+00	1.246206e-03
7.200000e-07	-3.094548e-07	1.008743e-12	-2.331905e+00	-1.250731e-03
7.300000e-07	-2.947961e-07	2.152552e-12	-2.221444e+00	-2.193465e-03
7.400000e-07	-2.800413e-07	7.260640e-12	-2.110259e+00	-1.121276e-03
7.500000e-07	-2.652099e-07	8.390904e-12	-1.998497e+00	1.458559e-03
7.600000e-07	-2.503303e-07	4.685864e-12	-1.886371e+00	4.380336e-03
7.700000e-07	-2.354027e-07	4.497064e-12	-1.773884e+00	6.482183e-03
7.800000e-07	-2.204149e-07	9.570607e-12	-1.660942e+00	7.243779e-03
7.900000e-07	-2.053681e-07	1.101705e-11	-1.547557e+00	7.027591e-03
8.000000e-07	-1.902595e-07	7.070392e-12	-1.433705e+00	6.783132e-03
8.100000e-07	-1.750931e-07	4.346617e-12	-1.319418e+00	7.395244e-03
8.200000e-07	-1.598839e-07	7.437134e-12	-1.204809e+00	9.073324e-03
8.300000e-07	-1.446440e-07	1.042942e-11	-1.089969e+00	1.115541e-02
8.400000e-07	-1.293802e-07	8.123805e-12	-9.749482e-01	1.245214e-02
8.500000e-07	-1.140917e-07	6.598653e-12	-8.597410e-01	1.193220e-02
8.600000e-07	-9.875178e-08	1.019359e-11	-7.441467e-01	9.349091e-03
8.700000e-07	-8.335800e-08	1.380871e-11	-6.281464e-01	5.447760e-03
8.800000e-07	-6.794130e-08	1.136098e-11	-5.119735e-01	1.639121e-03
8.900000e-07	-5.251300e-08	6.162724e-12	-3.957131e-01	-6.641427e-04
9.000000e-07	-3.706357e-08	5.432884e-12	-2.792935e-01	-6.794550e-04
9.100000e-07	-2.159521e-08	9.090553e-12	-1.627313e-01	1.471430e-03
9.200000e-07	-6.125390e-09	9.649422e-12	-4.615804e-02	4.944916e-03
9.300000e-07	9.352112e-09	6.017585e-12	7.047309e-02	8.655490e-03
9.400000e-07	2.483167e-08	6.002348e-12	1.871197e-01	1.175810e-02
9.500000e-07	4.029802e-08	1.120301e-11	3.036668e-01	1.389033e-02
9.600000e-07	5.574125e-08	1.319774e-11	4.200397e-01	1.511565e-02
9.700000e-07	7.115546e-08	8.986412e-12	5.361938e-01	1.569272e-02
9.800000e-07	8.654145e-08	5.834203e-12	6.521354e-01	1.586515e-02
9.900000e-07	1.018896e-07	8.870657e-12	7.677915e-01	1.579507e-02
1.000000e-06	1.172049e-07	1.303512e-11	8.832006e-01	1.562420e-02
1.010000e-06	1.324961e-07	1.200752e-11	9.984281e-01	1.554738e-02
1.020000e-06	1.477558e-07	7.511609e-12	1.113418e+00	1.579358e-02
1.030000e-06	1.629736e-07	6.085498e-12	1.228092e+00	1.650941e-02
1.040000e-06	1.781449e-07	8.476598e-12	1.342416e+00	1.764233e-02
1.050000e-06	1.932632e-07	9.151839e-12	1.456340e+00	1.894012e-02
1.060000e-06	2.083276e-07	8.235610e-12	1.569858e+00	2.009850e-02
1.070000e-06	2.233418e-07	9.303709e-12	1.682998e+00	2.096477e-02
1.080000e-06	2.383045e-07	1.169629e-11	1.795750e+00	2.164000e-02
1.090000e-06	2.532100e-07	1.292603e-11	1.908071e+00	2.237692e-02
1.100000e-06	2.680536e-07	1.020707e-11	2.019925e+00	2.331805e-02
1.110000e-06	2.828256e-07	5.742873e-12	2.131240e+00	2.425549e-02
1.120000e-06	2.975082e-07	5.221502e-12	2.241881e+00	2.461434e-02
1.130000e-06	3.120959e-07	7.141633e-12	2.351807e+00	2.373342e-02
1.140000e-06	3.265946e-07	6.940414e-12	2.461062e+00	2.131302e-02
1.150000e-06	3.409940e-07	6.391152e-12	2.569569e+00	1.775577e-02
1.160000e-06	3.552833e-07	7.624877e-12	2.677247e+00	1.415199e-02
1.170000e-06	3.694714e-07	8.818385e-12	2.784161e+00	1.185711e-02
1.180000e-06	3.835625e-07	7.369051e-12	2.890346e+00	1.186202e-02
1.190000e-06	3.975357e-07	2.955304e-12	2.995641e+00	1.430550e-02
1.200000e-06	4.113641e-07	-8.005143e-13	3.099845e+00	1.841606e-02
1.210000e-06	4.250497e-07	2.220321e-13	3.202974e+00	2.292599e-02
1.220000e-06	4.386081e-07	3.331221e-12	3.305143e+00	2.672035e-02
1.230000e-06	4.520443e-07	4.836214e-12	3.406392e+00	2.934376e-02
1.240000e-06	4.653691e-07	5.094680e-12	3.506801e+00	3.108183e-02
1.250000e-06	4.785689e-07	5.646160e-12	3.606268e+00	3.260369e-02
1.260000e-06	4.916089e-07	6.778456e-12	3.704532e+00	3.442725e-02
1.270000e-06	5.044968e-07	6.474389e-12	3.801649e+00	3.657112e-02
1.280000e-06	5.172544e-07	4.780818e-12	3.897784e+00	3.861867e-02
1.290000e-06	5.298773e-07	2.254190e-12	3.992905e+00	4.013132e-02
1.300000e-06	5.423688e-07	6.657236e-13	4.087034e+00	4.110043e-02
1.310000e-06	5.547072e-07	1.544232e-12	4.180011e+00	4.208846e-02
1.320000e-06	5.668688e-07	2.352940e-12	4.271655e+00	4.391456e-02
1.330000e-06	5.788739e-07	8.919438e-13	4.362120e+00	4.705694e-02
1.340000e-06	5.907258e-07	1.800264e-13	4.451430e+00	5.116580e-02
1.350000e-06	6.023918e-07	2.067406e-12	4.539340e+00	5.504917e-02
1.360000e-06	6.138513e-07	4.610454e-12	4.625693e+00	5.721528e-02
1.370000e-06	6.251227e-07	3.858962e-12	4.710629e+00	5.669730e-02
1.380000e-06	6.362321e-07	2.878168e-13	4.794344e+00	5.367774e-02
1.390000e-06	6.471903e-07	-1.307224e-12	4.876920e+00	4.951493e-02
1.400000e-06	6.579710e-07	1.855297e-13	4.958158e+00	4.611266e-02
1.410000e-06	6.685458e-07	9.144475e-13	5.037845e+00	4.496691e-02
1.420000e-06	6.789188e-07	-2.877117e-13	5.116011e+00	4.642726e-02
1.430000e-06	6.891081e-07	-1.397862e-13	5.192793e+00	4.959472e-02
1.440000e-06	6.991062e-07	9.391759e-13	5.268133e+00	5.290710e-02
1.450000e-06	7.088895e-07	1.338136e-12	5.341856e+00	5.505911e-02
1.460000e-06	7.184670e-07	2.527661e-13	5.414027e+00	5.571204e-02
1.470000e-06	7.278574e-07	-5.900466e-13	5.484789e+00	5.558192e-02
1.480000e-06	7.370462e-07	4.065088e-13	5.554031e+00	5.587271e-02
1.490000e-06	7.460108e-07	1.165583e-12	5.621585e+00	5.741137e-02
1.500000e-06	7.547629e-07	-5.952542e-13	5.687536e+00	6.001156e-02
1.510000e-06	7.633183e-07	-3.043065e-12	5.752005e+00	6.244617e-02
1.520000e-06	7.716619e-07	-1.685085e-12	5.814879e+00	6.304269e-02
1.530000e-06	7.797776e-07	2.651999e-12	5.876035e+00	6.055514e-02
1.540000e-06	7.876692e-07	4.760210e-12	5.935502e+00	5.482241e-02
1.550000e-06	7.953261e-07	3.362318e-12	5.993201e+00	4.686770e-02
1.560000e-06	8.027395e-07	2.717970e-12	6.049065e+00	3.842343e-02
1.570000e-06	8.099242e-07	3.668675e-12	6.103206e+00	3.117471e-02
1.580000e-06	8.168884e-07	2.456936e-12	6.155684e+00	2.612669e-02
1.590000e-06	8.236140e-07	-1.774485e-12	6.206365e+00	2.337480e-02
1.600000e-06	8.300938e-07	-4.052051e-12	6.255194e+00	2.229645e-02
1.610000e-06	8.363566e-07	-5.794881e-13	6.302387e+00	2.196238e-02
1.620000e-06	8.424042e-07	2.831795e-12	6.347960e+00	2.150851e-02
1.630000e-06	8.482049e-07	1.445549e-12	6.391671e+00	2.032084e-02
1.640000e-06	8.537568e-07	-1.340276e-12	6.433507e+00	1.805735e-02
1.650000e-06	8.590517e-07	-6.634231e-13	6.473407e+00	1.463267e-02
1.660000e-06	8.640612e-07	1.906567e-12	6.511156e+00	1.025751e-02
1.670000e-06	8.688069e-07	1.360402e-13	6.546918e+00	5.503326e-03
1.680000e-06	8.733261e-07	-4.163255e-12	6.580973e+00	1.265856e-03
1.690000e-06	8.775988e-07	-3.845727e-12	6.613170e+00	-1.476532e-03
1.700000e-06	8.816117e-07	1.137046e-12	6.643409e+00	-2.073247e-03
1.710000e-06	8.853967e-07	3.954923e-12	6.671930e+00	-5.834674e-04
1.720000e-06	8.889430e-07	2.458183e-12	6.698654e+00	2.120022e-03
1.730000e-06	8.922304e-07	2.056033e-12	6.723426e+00	4.656327e-03
1.740000e-06	8.952798e-07	4.099886e-12	6.746405e+00	5.747677e-03
1.750000e-06	8.980860e-07	4.480807e-12	6.767551e+00	4.826988e-03
1.760000e-06	9.006233e-07	1.894689e-12	6.786671e+00	2.297825e-03
1.770000e-06	9.029103e-07	2.459415e-13	6.803904e+00	-7.193202e-04
1.780000e-06	9.049667e-07	2.259374e-12	6.819401e+00	-3.025803e-03
1.790000e-06	9.067660e-07	4.343876e-12	6.832960e+00	-4.006423e-03
1.800000e-06	9.082893e-07	2.250633e-12	6.844439e+00	-3.928619e-03
1.810000e-06	9.095351e-07	-2.228080e-12	6.853826e+00	-3.704426e-03
1.820000e-06	9.105015e-07	-3.556856e-12	6.861108e+00	-4.261422e-03
1.830000e-06	9.112110e-07	-2.796767e-12	6.866455e+00	-5.905704e-03
1.840000e-06	9.116762e-07	-8.195704e-13	6.869960e+00	-8.066486e-03
1.850000e-06	9.118739e-07	-9.644367e-13	6.871450e+00	-9.583033e-03
1.860000e-06	9.118003e-07	-1.255412e-12	6.870896e+00	-9.369611e-03
1.870000e-06	9.114660e-07	1.516812e-12	6.868377e+00	-7.070119e-03
1.880000e-06	9.108916e-07	-6.416748e-13	6.864048e+00	-3.323937e-03
1.890000e-06	9.100538e-07	-8.109763e-12	6.857734e+00	5.035926e-04
1.900000e-06	9.088854e-07	-9.816617e-12	6.848930e+00	2.964111e-03
1.910000e-06	9.074383e-07	1.757274e-11	6.838026e+00	3.181027e-03
1.920000e-06	9.058114e-07	5.793097e-12	6.825766e+00	1.174540e-03
1.930000e-06	9.040372e-07	-4.152567e-12	6.812397e+00	-2.272741e-03
1.940000e-06	9.019988e-07	-4.509274e-12	6.797036e+00	-6.075890e-03
1.950000e-06	8.995164e-07	-1.172512e-12	6.778330e+00	-9.344519e-03
1.960000e-06	8.966304e-07	1.692880e-11	6.756583e+00	-1.165920e-02
1.970000e-06	8.936105e-07	1.826288e-12	6.733826e+00	-1.304511e-02
1.980000e-06	8.905523e-07	-3.438234e-12	6.710781e+00	-1.375124e-02
1.990000e-06	8.872693e-07	-1.404038e-11	6.686042e+00	-1.402934e-02
2.000000e-06	8.835871e-07	6.281798e-12	6.658294e+00	-1.404930e-02
2.010000e-06	8.795690e-07	1.361102e-11	6.628016e+00	-1.395051e-02
2.020000e-06	8.754292e-07	1.991275e-12	6.596820e+00	-1.392048e-02
2.030000e-06	8.711533e-07	-8.693253e-12	6.564599e+00	-1.418894e-02
2.040000e-06	8.665490e-07	-5.764668e-13	6.529903e+00	-1.491888e-02
2.050000e-06	8.615637e-07	2.088482e-11	6.492336e+00	-1.608336e-02
2.060000e-06	8.563784e-07	1.474097e-11	6.453262e+00	-1.744778e-02
2.070000e-06	8.510593e-07	1.325317e-12	6.413180e+00	-1.870323e-02
2.080000e-06	8.454511e-07	-1.864758e-12	6.370920e+00	-1.967142e-02
2.090000e-06	8.394793e-07	1.303234e-11	6.325919e+00	-2.042567e-02
2.100000e-06	8.332737e-07	1.451152e-11	6.279156e+00	-2.121288e-02
2.110000e-06	8.269367e-07	7.359733e-12	6.231404e+00	-2.220261e-02
2.120000e-06	8.203478e-07	9.291154e-13	6.181753e+00	-2.323315e-02
2.130000e-06	8.134120e-07	8.160320e-12	6.129488e+00	-2.376235e-02
2.140000e-06	8.062369e-07	1.212624e-11	6.075420e+00	-2.311727e-02
2.150000e-06	7.989245e-07	1.076711e-11	6.020317e+00	-2.093531e-02
2.160000e-06	7.913744e-07	7.114011e-12	5.963423e+00	-1.753197e-02
2.170000e-06	7.834959e-07	9.669575e-12	5.904055e+00	-1.393397e-02
2.180000e-06	7.753773e-07	1.345234e-11	5.842876e+00	-1.149731e-02
2.190000e-06	7.671165e-07	1.475659e-11	5.780627e+00	-1.128468e-02
2.200000e-06	7.586441e-07	1.341677e-11	5.716783e+00	-1.354417e-02
2.210000e-06	7.498785e-07	7.391501e-12	5.650730e+00	-1.759450e-02
2.220000e-06	7.408982e-07	4.892860e-12	5.583058e+00	-2.219288e-02
2.230000e-06	7.317671e-07	8.959600e-12	5.514250e+00	-2.617555e-02
2.240000e-06	7.224236e-07	1.611723e-11	5.443843e+00	-2.899884e-02
2.250000e-06	7.128266e-07	1.174183e-11	5.371524e+00	-3.087543e-02
2.260000e-06	7.030469e-07	6.009507e-12	5.297829e+00	-3.245773e-02
2.270000e-06	6.931147e-07	8.872813e-12	5.222985e+00	-3.430478e-02
2.280000e-06	6.829535e-07	1.660519e-11	5.146415e+00	-3.649701e-02
2.290000e-06	6.725418e-07	7.788046e-12	5.067957e+00	-3.865088e-02
2.300000e-06	6.619652e-07	-1.284645e-12	4.988257e+00	-4.030485e-02
2.310000e-06	6.512597e-07	7.277161e-12	4.907585e+00	-4.138610e-02
2.320000e-06	6.403667e-07	1.950194e-11	4.825500e+00	-4.239985e-02
2.330000e-06	6.292534e-07	1.387601e-11	4.741756e+00	-4.416392e-02
2.340000e-06	6.179452e-07	2.392860e-12	4.656543e+00	-4.722568e-02
2.350000e-06	6.064538e-07	7.094158e-12	4.569949e+00	-5.134109e-02
2.360000e-06	5.947675e-07	1.503355e-11	4.481887e+00	-5.539578e-02
2.370000e-06	5.829055e-07	1.092476e-11	4.392500e+00	-5.789185e-02
2.380000e-06	5.708888e-07	4.411337e-12	4.301948e+00	-5.776323e-02
2.390000e-06	5.587173e-07	8.475198e-12	4.210229e+00	-5.504724e-02
2.400000e-06	5.463859e-07	1.228403e-11	4.117306e+00	-5.098971e-02
2.410000e-06	5.338922e-07	8.414092e-12	4.023159e+00	-4.747891e-02
2.420000e-06	5.212442e-07	4.980806e-12	3.927850e+00	-4.610314e-02
2.430000e-06	5.084493e-07	5.717166e-12	3.831434e+00	-4.736138e-02
2.440000e-06	4.955294e-07	6.588007e-12	3.734075e+00	-5.047809e-02
2.450000e-06	4.824909e-07	8.004232e-12	3.635823e+00	-5.392170e-02
2.460000e-06	4.692917e-07	1.010566e-11	3.536360e+00	-5.631337e-02
2.470000e-06	4.559404e-07	7.484961e-12	3.435751e+00	-5.718652e-02
2.480000e-06	4.424733e-07	1.961584e-12	3.334270e+00	-5.715559e-02
2.490000e-06	4.288840e-07	2.717754e-12	3.231867e+00	-5.741163e-02
2.500000e-06	4.151672e-07	5.484414e-12	3.128504e+00	-5.886520e-02
2.510000e-06	4.013129e-07	1.258515e-12	3.024104e+00	-6.145958e-02
2.520000e-06	3.873071e-07	-3.245318e-12	2.918563e+00	-6.406560e-02
2.530000e-06	3.731712e-07	3.700012e-13	2.812042e+00	-6.501831e-02
2.540000e-06	3.589382e-07	4.190020e-12	2.704788e+00	-6.298205e-02
2.550000e-06	3.446061e-07	8.221584e-13	2.596788e+00	-5.765548e-02
2.560000e-06	3.301689e-07	-2.849774e-12	2.487996e+00	-4.994208e-02
2.570000e-06	3.156562e-07	-5.405562e-13	2.378635e+00	-4.153013e-02
2.580000e-06	3.010922e-07	2.777746e-12	2.268888e+00	-3.414758e-02
2.590000e-06	2.864464e-07	3.093885e-13	2.158525e+00	-2.889718e-02
2.600000e-06	2.716814e-07	-4.658199e-12	2.047263e+00	-2.597476e-02
2.610000e-06	2.568121e-07	-4.967775e-12	1.935215e+00	-2.482028e-02
2.620000e-06	2.418738e-07	-1.516086e-12	1.822646e+00	-2.451793e-02
2.630000e-06	2.268778e-07	-5.848749e-13	1.709644e+00	-2.418304e-02
2.640000e-06	2.118239e-07	-2.762844e-12	1.596205e+00	-2.316997e-02
2.650000e-06	1.967167e-07	-3.263992e-12	1.482364e+00	-2.110708e-02
2.660000e-06	1.815662e-07	-5.645372e-13	1.368197e+00	-1.787909e-02
2.670000e-06	1.663756e-07	7.821688e-13	1.253728e+00	-1.365938e-02
2.680000e-06	1.511336e-07	-3.411334e-12	1.138872e+00	-8.977082e-03
2.690000e-06	1.358486e-07	-8.821319e-12	1.023691e+00	-4.699086e-03
2.700000e-06	1.205394e-07	-9.529203e-12	9.083280e-01	-1.813120e-03
2.710000e-06	1.052056e-07	-8.400706e-12	7.927799e-01	-1.029097e-03
2.720000e-06	8.984248e-08	-9.558523e-12	6.770104e-01	-2.380822e-03
2.730000e-06	7.445798e-08	-1.005663e-11	5.610801e-01	-5.080276e-03
2.740000e-06	5.906074e-08	-7.368504e-12	4.450538e-01	-7.777059e-03
2.750000e-06	4.365894e-08	-4.791677e-12	3.289931e-01	-9.147709e-03
2.760000e-06	2.825309e-08	-4.263455e-12	2.129019e-01	-8.522329e-03
2.770000e-06	1.283626e-08	-4.588610e-12	9.672802e-02	-6.197352e-03
2.780000e-06	-2.582065e-09	-5.058360e-12	-1.945722e-02	-3.239389e-03
2.790000e-06	-1.799147e-08	-5.148464e-12	-1.355752e-01	-8.748687e-04
2.800000e-06	-3.339557e-08	-6.328828e-12	-2.516532e-01	1.901952e-04
2.810000e-06	-4.879847e-08	-8.649042e-12	-3.677222e-01	1.249715e-04
2.820000e-06	-6.419642e-08	-8.086106e-12	-4.837538e-01	-2.045494e-04
2.830000e-06	-7.958214e-08	-4.443788e-12	-5.996934e-01	1.632702e-04
2.840000e-06	-9.494255e-08	-2.492182e-12	-7.154422e-01	1.627744e-03
2.850000e-06	-1.102801e-07	-3.387203e-12	-8.310187e-01	3.713154e-03
2.860000e-06	-1.255969e-07	-4.657329e-12	-9.464384e-01	5.296435e-03
2.870000e-06	-1.408811e-07	-5.673094e-12	-1.061614e+00	5.246324e-03
2.880000e-06	-1.561182e-07	-7.814533e-12	-1.176433e+00	3.100704e-03
2.890000e-06	-1.713078e-07	-1.051566e-11	-1.290894e+00	-6.102666e-04
2.900000e-06	-1.864504e-07	-1.059814e-11	-1.405002e+00	-4.575546e-03
2.910000e-06	-2.015383e-07	-7.857022e-12	-1.518697e+00	-7.319944e-03
2.920000e-06	-2.165792e-07	-5.578630e-12	-1.632038e+00	-7.877197e-03
2.930000e-06	-2.315773e-07	-6.690705e-12	-1.745057e+00	-6.164059e-03
2.940000e-06	-2.465231e-07	-9.033293e-12	-1.857681e+00	-2.895868e-03
