# Temperatura_=_20.0
# Concentracion g/m^3_=_10000.0
# C_Vs_to_Am_M_A/Vsm_=_65563218390.804596
# pendiente_HvsI_1/m_=_3716.3
# ordenada_HvsI_A/m_=_1297.0
# frecuencia_Hz_=_269721.89560283936

Tiempo_(s)	Campo_(V.s)	Magnetizacion_(V.s)	Campo_(kA/m)	Magnetizacion_(A/m)
0.000000e+00	-9.119655e-07	-1.416781e-09	-6.859450e+00	-9.156854e+01
1.000000e-08	-9.117631e-07	-1.419226e-09	-6.857928e+00	-9.161497e+01
2.000000e-08	-9.112882e-07	-1.417324e-09	-6.854356e+00	-9.164585e+01
3.000000e-08	-9.106102e-07	-1.418904e-09	-6.849255e+00	-9.165736e+01
4.000000e-08	-9.096908e-07	-1.432851e-09	-6.842340e+00	-9.165083e+01
5.000000e-08	-9.085537e-07	-1.430200e-09	-6.833787e+00	-9.162776e+01
6.000000e-08	-9.073241e-07	-1.387971e-09	-6.824539e+00	-9.158254e+01
7.000000e-08	-9.058255e-07	-1.404708e-09	-6.813267e+00	-9.149937e+01
8.000000e-08	-9.038823e-07	-1.407086e-09	-6.798651e+00	-9.135738e+01
9.000000e-08	-9.015910e-07	-1.399056e-09	-6.781417e+00	-9.114213e+01
1.000000e-07	-8.989384e-07	-1.424700e-09	-6.761465e+00	-9.085703e+01
1.100000e-07	-8.959696e-07	-1.386698e-09	-6.739135e+00	-9.052668e+01
1.200000e-07	-8.928762e-07	-1.375773e-09	-6.715868e+00	-9.018871e+01
1.300000e-07	-8.896902e-07	-1.385775e-09	-6.691904e+00	-8.987680e+01
1.400000e-07	-8.862958e-07	-1.389557e-09	-6.666373e+00	-8.960386e+01
1.500000e-07	-8.825902e-07	-1.383088e-09	-6.638500e+00	-8.935459e+01
1.600000e-07	-8.786028e-07	-1.346709e-09	-6.608509e+00	-8.909206e+01
1.700000e-07	-8.744087e-07	-1.347972e-09	-6.576962e+00	-8.877561e+01
1.800000e-07	-8.699515e-07	-1.361872e-09	-6.543437e+00	-8.838066e+01
1.900000e-07	-8.652068e-07	-1.364995e-09	-6.507749e+00	-8.791013e+01
2.000000e-07	-8.602276e-07	-1.330150e-09	-6.470297e+00	-8.739172e+01
2.100000e-07	-8.550172e-07	-1.309926e-09	-6.431107e+00	-8.686263e+01
2.200000e-07	-8.495089e-07	-1.320245e-09	-6.389675e+00	-8.635020e+01
2.300000e-07	-8.436838e-07	-1.323558e-09	-6.345862e+00	-8.585848e+01
2.400000e-07	-8.376208e-07	-1.312225e-09	-6.300258e+00	-8.536715e+01
2.500000e-07	-8.313782e-07	-1.286189e-09	-6.253303e+00	-8.484253e+01
2.600000e-07	-8.249037e-07	-1.280763e-09	-6.204605e+00	-8.425429e+01
2.700000e-07	-8.181418e-07	-1.275937e-09	-6.153744e+00	-8.358907e+01
2.800000e-07	-8.111443e-07	-1.265057e-09	-6.101112e+00	-8.285507e+01
2.900000e-07	-8.039543e-07	-1.244583e-09	-6.047031e+00	-8.207651e+01
3.000000e-07	-7.965121e-07	-1.233752e-09	-5.991054e+00	-8.128223e+01
3.100000e-07	-7.887733e-07	-1.223967e-09	-5.932846e+00	-8.049438e+01
3.200000e-07	-7.807709e-07	-1.218888e-09	-5.872655e+00	-7.972201e+01
3.300000e-07	-7.725629e-07	-1.207189e-09	-5.810918e+00	-7.896103e+01
3.400000e-07	-7.641670e-07	-1.187977e-09	-5.747767e+00	-7.819846e+01
3.500000e-07	-7.555361e-07	-1.167765e-09	-5.682848e+00	-7.741821e+01
3.600000e-07	-7.467017e-07	-1.161091e-09	-5.616400e+00	-7.660585e+01
3.700000e-07	-7.377146e-07	-1.159826e-09	-5.548802e+00	-7.575186e+01
3.800000e-07	-7.285055e-07	-1.143872e-09	-5.479535e+00	-7.485376e+01
3.900000e-07	-7.190282e-07	-1.115945e-09	-5.408250e+00	-7.391718e+01
4.000000e-07	-7.093568e-07	-1.098762e-09	-5.335506e+00	-7.295543e+01
4.100000e-07	-6.995345e-07	-1.099595e-09	-5.261626e+00	-7.198630e+01
4.200000e-07	-6.895010e-07	-1.086202e-09	-5.186158e+00	-7.102592e+01
4.300000e-07	-6.792151e-07	-1.056496e-09	-5.108791e+00	-7.008145e+01
4.400000e-07	-6.687323e-07	-1.037188e-09	-5.029944e+00	-6.914573e+01
4.500000e-07	-6.581026e-07	-1.038035e-09	-4.949991e+00	-6.819763e+01
4.600000e-07	-6.472969e-07	-1.026441e-09	-4.868715e+00	-6.720893e+01
4.700000e-07	-6.362975e-07	-9.949611e-10	-4.785983e+00	-6.615590e+01
4.800000e-07	-6.251104e-07	-9.702260e-10	-4.701837e+00	-6.503020e+01
4.900000e-07	-6.137347e-07	-9.635900e-10	-4.616274e+00	-6.384392e+01
5.000000e-07	-6.021669e-07	-9.532676e-10	-4.529265e+00	-6.262564e+01
5.100000e-07	-5.904141e-07	-9.280514e-10	-4.440865e+00	-6.140879e+01
5.200000e-07	-5.784901e-07	-9.039088e-10	-4.351178e+00	-6.021778e+01
5.300000e-07	-5.664179e-07	-8.879107e-10	-4.260375e+00	-5.905820e+01
5.400000e-07	-5.541859e-07	-8.736474e-10	-4.168371e+00	-5.791570e+01
5.500000e-07	-5.417735e-07	-8.547310e-10	-4.075010e+00	-5.676399e+01
5.600000e-07	-5.292060e-07	-8.337744e-10	-3.980482e+00	-5.557774e+01
5.700000e-07	-5.164973e-07	-8.135180e-10	-3.884892e+00	-5.434425e+01
5.800000e-07	-5.036610e-07	-7.979363e-10	-3.788342e+00	-5.306856e+01
5.900000e-07	-4.906993e-07	-7.830616e-10	-3.690849e+00	-5.177012e+01
6.000000e-07	-4.775691e-07	-7.608438e-10	-3.592089e+00	-5.047319e+01
6.100000e-07	-4.642810e-07	-7.341897e-10	-3.492141e+00	-4.919583e+01
6.200000e-07	-4.508753e-07	-7.145495e-10	-3.391308e+00	-4.794245e+01
6.300000e-07	-4.373646e-07	-7.010862e-10	-3.289686e+00	-4.670280e+01
6.400000e-07	-4.237373e-07	-6.826014e-10	-3.187187e+00	-4.545715e+01
6.500000e-07	-4.099753e-07	-6.564306e-10	-3.083674e+00	-4.418477e+01
6.600000e-07	-3.960666e-07	-6.320981e-10	-2.979059e+00	-4.287185e+01
6.700000e-07	-3.820209e-07	-6.159793e-10	-2.873413e+00	-4.151573e+01
6.800000e-07	-3.678690e-07	-5.979520e-10	-2.766968e+00	-4.012444e+01
6.900000e-07	-3.535946e-07	-5.715203e-10	-2.659601e+00	-3.871232e+01
7.000000e-07	-3.391760e-07	-5.444025e-10	-2.551150e+00	-3.729415e+01
7.100000e-07	-3.246260e-07	-5.243118e-10	-2.441711e+00	-3.588024e+01
7.200000e-07	-3.100041e-07	-5.052475e-10	-2.331730e+00	-3.447416e+01
7.300000e-07	-2.953152e-07	-4.806162e-10	-2.221246e+00	-3.307342e+01
7.400000e-07	-2.805330e-07	-4.543328e-10	-2.110060e+00	-3.167217e+01
7.500000e-07	-2.656773e-07	-4.322324e-10	-1.998321e+00	-3.026423e+01
7.600000e-07	-2.507709e-07	-4.132461e-10	-1.886201e+00	-2.884498e+01
7.700000e-07	-2.358132e-07	-3.904022e-10	-1.773695e+00	-2.741157e+01
7.800000e-07	-2.207948e-07	-3.625098e-10	-1.660733e+00	-2.596199e+01
7.900000e-07	-2.057231e-07	-3.356959e-10	-1.547369e+00	-2.449431e+01
8.000000e-07	-1.905921e-07	-3.154258e-10	-1.433560e+00	-2.300722e+01
8.100000e-07	-1.753991e-07	-2.951335e-10	-1.319284e+00	-2.150187e+01
8.200000e-07	-1.601566e-07	-2.692528e-10	-1.204635e+00	-1.998380e+01
8.300000e-07	-1.448838e-07	-2.433678e-10	-1.089760e+00	-1.846311e+01
8.400000e-07	-1.295878e-07	-2.210910e-10	-9.747088e-01	-1.695152e+01
8.500000e-07	-1.142642e-07	-2.004768e-10	-8.594509e-01	-1.545694e+01
8.600000e-07	-9.889826e-08	-1.782433e-10	-7.438743e-01	-1.397810e+01
8.700000e-07	-8.348808e-08	-1.539125e-10	-6.279649e-01	-1.250277e+01
8.800000e-07	-6.804526e-08	-1.305223e-10	-5.118100e-01	-1.101179e+01
8.900000e-07	-5.258302e-08	-1.083639e-10	-3.955090e-01	-9.488188e+00
9.000000e-07	-3.711744e-08	-8.576216e-11	-2.791830e-01	-7.927336e+00
9.100000e-07	-2.163520e-08	-6.188016e-11	-1.627316e-01	-6.342418e+00
9.200000e-07	-6.132295e-09	-3.747997e-11	-4.612474e-02	-4.761143e+00
9.300000e-07	9.379476e-09	-1.406143e-11	7.054877e-02	-3.213867e+00
9.400000e-07	2.488545e-08	8.290219e-12	1.871787e-01	-1.718287e+00
9.500000e-07	4.037735e-08	3.058471e-11	3.037027e-01	-2.686501e-01
9.600000e-07	5.585346e-08	5.455790e-11	4.201080e-01	1.164014e+00
9.700000e-07	7.130279e-08	7.706508e-11	5.363119e-01	2.619469e+00
9.800000e-07	8.671185e-08	9.790674e-11	6.522128e-01	4.129093e+00
9.900000e-07	1.020795e-07	1.202092e-10	7.678019e-01	5.699614e+00
1.000000e-06	1.174184e-07	1.438867e-10	8.831759e-01	7.308648e+00
1.010000e-06	1.327322e-07	1.673907e-10	9.983602e-01	8.915054e+00
1.020000e-06	1.480121e-07	1.897384e-10	1.113289e+00	1.047933e+01
1.030000e-06	1.632492e-07	2.102456e-10	1.227897e+00	1.198362e+01
1.040000e-06	1.784471e-07	2.317283e-10	1.342210e+00	1.344078e+01
1.050000e-06	1.936008e-07	2.546803e-10	1.456190e+00	1.488771e+01
1.060000e-06	2.086987e-07	2.767960e-10	1.569750e+00	1.636641e+01
1.070000e-06	2.237405e-07	2.991590e-10	1.682889e+00	1.790295e+01
1.080000e-06	2.387273e-07	3.228338e-10	1.795614e+00	1.949522e+01
1.090000e-06	2.536579e-07	3.482574e-10	1.907916e+00	2.111536e+01
1.100000e-06	2.685297e-07	3.724875e-10	2.019776e+00	2.272481e+01
1.110000e-06	2.833317e-07	3.932150e-10	2.131111e+00	2.429296e+01
1.120000e-06	2.980438e-07	4.126883e-10	2.241770e+00	2.580938e+01
1.130000e-06	3.126645e-07	4.343712e-10	2.351741e+00	2.728402e+01
1.140000e-06	3.271980e-07	4.571250e-10	2.461056e+00	2.873704e+01
1.150000e-06	3.416238e-07	4.779488e-10	2.569561e+00	3.018552e+01
1.160000e-06	3.559370e-07	4.980035e-10	2.677219e+00	3.163551e+01
1.170000e-06	3.701491e-07	5.180922e-10	2.784118e+00	3.308306e+01
1.180000e-06	3.842576e-07	5.383893e-10	2.890236e+00	3.452210e+01
1.190000e-06	3.982500e-07	5.567566e-10	2.995482e+00	3.595223e+01
1.200000e-06	4.120954e-07	5.746744e-10	3.099621e+00	3.738036e+01
1.210000e-06	4.257964e-07	5.952979e-10	3.202675e+00	3.881486e+01
1.220000e-06	4.393739e-07	6.182510e-10	3.304800e+00	4.025654e+01
1.230000e-06	4.528310e-07	6.391055e-10	3.406019e+00	4.169363e+01
1.240000e-06	4.661786e-07	6.562966e-10	3.506414e+00	4.310565e+01
1.250000e-06	4.794005e-07	6.744499e-10	3.605864e+00	4.447497e+01
1.260000e-06	4.924681e-07	6.942713e-10	3.704154e+00	4.579912e+01
1.270000e-06	5.053815e-07	7.142425e-10	3.801283e+00	4.709541e+01
1.280000e-06	5.181540e-07	7.327488e-10	3.897353e+00	4.839333e+01
1.290000e-06	5.307932e-07	7.507642e-10	3.992420e+00	4.971793e+01
1.300000e-06	5.433077e-07	7.692519e-10	4.086549e+00	5.107348e+01
1.310000e-06	5.556732e-07	7.876167e-10	4.179557e+00	5.243762e+01
1.320000e-06	5.678555e-07	8.048589e-10	4.271188e+00	5.377094e+01
1.330000e-06	5.798753e-07	8.221549e-10	4.361597e+00	5.503749e+01
1.340000e-06	5.917450e-07	8.407871e-10	4.450876e+00	5.622532e+01
1.350000e-06	6.034371e-07	8.602688e-10	4.538819e+00	5.735487e+01
1.360000e-06	6.149260e-07	8.790923e-10	4.625234e+00	5.846967e+01
1.370000e-06	6.262209e-07	8.950288e-10	4.710190e+00	5.961367e+01
1.380000e-06	6.373506e-07	9.099031e-10	4.793903e+00	6.080744e+01
1.390000e-06	6.483274e-07	9.266904e-10	4.876466e+00	6.203649e+01
1.400000e-06	6.591318e-07	9.459519e-10	4.957733e+00	6.325833e+01
1.410000e-06	6.697277e-07	9.647701e-10	5.037431e+00	6.442452e+01
1.420000e-06	6.801205e-07	9.813174e-10	5.115602e+00	6.550581e+01
1.430000e-06	6.903330e-07	9.973685e-10	5.192416e+00	6.650654e+01
1.440000e-06	7.003518e-07	1.012392e-09	5.267774e+00	6.746127e+01
1.450000e-06	7.101498e-07	1.025850e-09	5.341470e+00	6.841585e+01
1.460000e-06	7.197389e-07	1.038637e-09	5.413596e+00	6.940415e+01
1.470000e-06	7.291460e-07	1.052360e-09	5.484353e+00	7.043264e+01
1.480000e-06	7.383508e-07	1.067258e-09	5.553587e+00	7.148035e+01
1.490000e-06	7.473326e-07	1.081931e-09	5.621145e+00	7.251257e+01
1.500000e-06	7.561021e-07	1.095342e-09	5.687106e+00	7.349930e+01
1.510000e-06	7.646754e-07	1.108207e-09	5.751591e+00	7.442824e+01
1.520000e-06	7.730374e-07	1.121785e-09	5.814487e+00	7.530630e+01
1.530000e-06	7.811640e-07	1.136241e-09	5.875611e+00	7.615099e+01
1.540000e-06	7.890615e-07	1.149927e-09	5.935014e+00	7.697849e+01
1.550000e-06	7.967271e-07	1.161513e-09	5.992671e+00	7.779601e+01
1.560000e-06	8.041474e-07	1.172793e-09	6.048484e+00	7.860178e+01
1.570000e-06	8.113356e-07	1.183515e-09	6.102551e+00	7.939068e+01
1.580000e-06	8.183109e-07	1.193218e-09	6.155016e+00	8.016000e+01
1.590000e-06	8.250518e-07	1.203344e-09	6.205718e+00	8.091069e+01
1.600000e-06	8.315404e-07	1.214857e-09	6.254523e+00	8.164378e+01
1.610000e-06	8.378047e-07	1.226484e-09	6.301641e+00	8.235556e+01
1.620000e-06	8.438571e-07	1.236727e-09	6.347165e+00	8.303656e+01
1.630000e-06	8.496710e-07	1.246209e-09	6.390895e+00	8.367642e+01
1.640000e-06	8.552354e-07	1.254772e-09	6.432748e+00	8.427213e+01
1.650000e-06	8.605394e-07	1.262757e-09	6.472643e+00	8.483374e+01
1.660000e-06	8.655644e-07	1.269952e-09	6.510439e+00	8.538245e+01
1.670000e-06	8.703268e-07	1.277386e-09	6.546260e+00	8.594037e+01
1.680000e-06	8.748593e-07	1.287235e-09	6.580351e+00	8.651725e+01
1.690000e-06	8.791482e-07	1.298082e-09	6.612611e+00	8.710206e+01
1.700000e-06	8.831762e-07	1.307665e-09	6.642908e+00	8.766555e+01
1.710000e-06	8.869744e-07	1.316154e-09	6.671477e+00	8.817369e+01
1.720000e-06	8.905378e-07	1.322861e-09	6.698279e+00	8.860515e+01
1.730000e-06	8.938428e-07	1.327367e-09	6.723138e+00	8.896314e+01
1.740000e-06	8.969053e-07	1.330878e-09	6.746173e+00	8.927459e+01
1.750000e-06	8.997265e-07	1.334090e-09	6.767393e+00	8.957655e+01
1.760000e-06	9.022805e-07	1.338792e-09	6.786603e+00	8.989710e+01
1.770000e-06	9.045775e-07	1.344673e-09	6.803880e+00	9.024107e+01
1.780000e-06	9.066416e-07	1.350278e-09	6.819406e+00	9.058837e+01
1.790000e-06	9.084460e-07	1.354449e-09	6.832977e+00	9.090522e+01
1.800000e-06	9.099712e-07	1.356854e-09	6.844450e+00	9.116172e+01
1.810000e-06	9.112202e-07	1.359163e-09	6.853844e+00	9.134580e+01
1.820000e-06	9.121894e-07	1.362171e-09	6.861134e+00	9.146664e+01
1.830000e-06	9.128979e-07	1.364742e-09	6.866463e+00	9.154679e+01
1.840000e-06	9.133595e-07	1.368116e-09	6.869935e+00	9.160888e+01
1.850000e-06	9.135609e-07	1.370199e-09	6.871450e+00	9.166523e+01
1.860000e-06	9.134946e-07	1.369439e-09	6.870951e+00	9.171566e+01
1.870000e-06	9.131624e-07	1.370256e-09	6.868452e+00	9.175319e+01
1.880000e-06	9.125859e-07	1.365505e-09	6.864116e+00	9.177210e+01
1.890000e-06	9.117478e-07	1.357440e-09	6.857813e+00	9.177209e+01
1.900000e-06	9.105802e-07	1.357204e-09	6.849030e+00	9.175544e+01
1.910000e-06	9.091335e-07	1.392245e-09	6.838149e+00	9.171992e+01
1.920000e-06	9.075067e-07	1.384744e-09	6.825913e+00	9.165343e+01
1.930000e-06	9.057410e-07	1.371078e-09	6.812632e+00	9.153590e+01
1.940000e-06	9.037082e-07	1.366550e-09	6.797342e+00	9.134894e+01
1.950000e-06	9.012184e-07	1.352479e-09	6.778615e+00	9.108831e+01
1.960000e-06	8.983218e-07	1.370833e-09	6.756827e+00	9.077098e+01
1.970000e-06	8.952979e-07	1.359276e-09	6.734082e+00	9.043137e+01
1.980000e-06	8.922436e-07	1.352064e-09	6.711110e+00	9.010683e+01
1.990000e-06	8.889577e-07	1.333660e-09	6.686394e+00	8.981963e+01
2.000000e-06	8.852615e-07	1.346137e-09	6.658593e+00	8.956503e+01
2.010000e-06	8.812247e-07	1.358706e-09	6.628230e+00	8.931257e+01
2.020000e-06	8.770756e-07	1.346779e-09	6.597021e+00	8.902054e+01
2.030000e-06	8.728005e-07	1.328813e-09	6.564866e+00	8.865633e+01
2.040000e-06	8.681993e-07	1.318474e-09	6.530258e+00	8.821207e+01
2.050000e-06	8.632068e-07	1.336708e-09	6.492706e+00	8.770742e+01
2.060000e-06	8.580118e-07	1.330742e-09	6.453631e+00	8.717827e+01
2.070000e-06	8.526822e-07	1.307000e-09	6.413544e+00	8.665778e+01
2.080000e-06	8.470588e-07	1.288213e-09	6.371247e+00	8.615958e+01
2.090000e-06	8.410699e-07	1.295638e-09	6.326201e+00	8.567174e+01
2.100000e-06	8.348478e-07	1.300325e-09	6.279401e+00	8.516378e+01
2.110000e-06	8.285008e-07	1.289577e-09	6.231661e+00	8.460216e+01
2.120000e-06	8.219087e-07	1.270298e-09	6.182078e+00	8.396606e+01
2.130000e-06	8.149695e-07	1.263315e-09	6.129883e+00	8.325573e+01
2.140000e-06	8.077832e-07	1.261541e-09	6.075831e+00	8.249054e+01
2.150000e-06	8.004662e-07	1.248801e-09	6.020796e+00	8.169908e+01
2.160000e-06	7.929103e-07	1.226646e-09	5.963963e+00	8.090706e+01
2.170000e-06	7.850117e-07	1.213270e-09	5.904552e+00	8.012880e+01
2.180000e-06	7.768665e-07	1.208198e-09	5.843288e+00	7.936479e+01
2.190000e-06	7.686015e-07	1.203718e-09	5.781121e+00	7.860473e+01
2.200000e-06	7.601399e-07	1.191982e-09	5.717477e+00	7.783305e+01
2.210000e-06	7.513636e-07	1.173494e-09	5.651465e+00	7.703423e+01
2.220000e-06	7.423648e-07	1.158692e-09	5.583780e+00	7.619664e+01
2.230000e-06	7.332212e-07	1.151536e-09	5.515004e+00	7.531494e+01
2.240000e-06	7.238571e-07	1.144052e-09	5.444571e+00	7.439168e+01
2.250000e-06	7.142368e-07	1.122119e-09	5.372212e+00	7.343749e+01
2.260000e-06	7.044406e-07	1.100471e-09	5.298528e+00	7.246906e+01
2.270000e-06	6.944965e-07	1.090790e-09	5.223732e+00	7.150400e+01
2.280000e-06	6.843211e-07	1.090228e-09	5.147197e+00	7.055364e+01
2.290000e-06	6.738908e-07	1.071102e-09	5.068744e+00	6.961653e+01
2.300000e-06	6.632954e-07	1.045817e-09	4.989050e+00	6.867629e+01
2.310000e-06	6.525713e-07	1.037606e-09	4.908387e+00	6.770619e+01
2.320000e-06	6.416613e-07	1.035937e-09	4.826327e+00	6.667935e+01
2.330000e-06	6.305264e-07	1.013569e-09	4.742574e+00	6.558066e+01
2.340000e-06	6.191962e-07	9.809412e-10	4.657353e+00	6.441453e+01
2.350000e-06	6.076837e-07	9.659143e-10	4.570760e+00	6.320435e+01
2.360000e-06	5.959778e-07	9.582318e-10	4.482713e+00	6.198341e+01
2.370000e-06	5.840982e-07	9.387159e-10	4.393360e+00	6.078099e+01
2.380000e-06	5.720602e-07	9.131775e-10	4.302814e+00	5.961040e+01
2.390000e-06	5.598663e-07	8.993354e-10	4.211096e+00	5.846426e+01
2.400000e-06	5.475174e-07	8.879801e-10	4.118213e+00	5.731940e+01
2.410000e-06	5.350018e-07	8.677744e-10	4.024076e+00	5.614854e+01
2.420000e-06	5.223315e-07	8.459471e-10	3.928775e+00	5.493322e+01
2.430000e-06	5.095223e-07	8.275216e-10	3.832429e+00	5.367176e+01
2.440000e-06	4.965772e-07	8.073601e-10	3.735061e+00	5.237909e+01
2.450000e-06	4.835118e-07	7.861691e-10	3.636788e+00	5.107899e+01
2.460000e-06	4.702888e-07	7.691826e-10	3.537330e+00	4.979303e+01
2.470000e-06	4.569055e-07	7.517262e-10	3.436665e+00	4.853120e+01
2.480000e-06	4.434091e-07	7.303785e-10	3.335151e+00	4.728845e+01
2.490000e-06	4.297964e-07	7.115875e-10	3.232761e+00	4.604769e+01
2.500000e-06	4.160566e-07	6.956155e-10	3.129416e+00	4.478754e+01
2.510000e-06	4.021783e-07	6.761633e-10	3.025029e+00	4.349085e+01
2.520000e-06	3.881525e-07	6.533168e-10	2.919532e+00	4.215057e+01
2.530000e-06	3.739971e-07	6.337146e-10	2.813060e+00	4.077108e+01
2.540000e-06	3.597444e-07	6.151890e-10	2.705858e+00	3.936501e+01
2.550000e-06	3.453932e-07	5.924683e-10	2.597914e+00	3.794765e+01
2.560000e-06	3.309424e-07	5.690077e-10	2.489220e+00	3.653143e+01
2.570000e-06	3.164097e-07	5.499231e-10	2.379911e+00	3.512250e+01
2.580000e-06	3.018080e-07	5.345193e-10	2.270082e+00	3.372040e+01
2.590000e-06	2.871365e-07	5.165960e-10	2.159729e+00	3.232018e+01
2.600000e-06	2.723615e-07	4.937749e-10	2.048597e+00	3.091547e+01
2.610000e-06	2.574702e-07	4.704695e-10	1.936590e+00	2.950096e+01
2.620000e-06	2.425011e-07	4.519726e-10	1.823999e+00	2.807319e+01
2.630000e-06	2.274807e-07	4.354124e-10	1.711021e+00	2.662997e+01
2.640000e-06	2.123947e-07	4.135480e-10	1.597550e+00	2.516936e+01
2.650000e-06	1.972469e-07	3.897033e-10	1.483614e+00	2.368968e+01
2.660000e-06	1.820616e-07	3.701774e-10	1.369396e+00	2.219086e+01
2.670000e-06	1.668419e-07	3.519028e-10	1.254920e+00	2.067667e+01
2.680000e-06	1.515649e-07	3.283614e-10	1.140012e+00	1.915565e+01
2.690000e-06	1.362473e-07	3.008473e-10	1.024799e+00	1.763946e+01
2.700000e-06	1.209068e-07	2.767884e-10	9.094136e-01	1.613814e+01
2.710000e-06	1.055339e-07	2.585012e-10	7.937850e-01	1.465433e+01
2.720000e-06	9.013316e-08	2.392657e-10	6.779466e-01	1.317979e+01
2.730000e-06	7.471762e-08	2.156661e-10	5.619969e-01	1.169710e+01
2.740000e-06	5.929526e-08	1.902321e-10	4.459959e-01	1.018720e+01
2.750000e-06	4.386834e-08	1.671021e-10	3.299606e-01	8.639836e+00
2.760000e-06	2.843445e-08	1.456085e-10	2.138728e-01	7.061366e+00
2.770000e-06	1.298267e-08	1.208313e-10	9.765058e-02	5.475052e+00
2.780000e-06	-2.474234e-09	9.265289e-11	-1.861022e-02	3.912027e+00
2.790000e-06	-1.791829e-08	6.846540e-11	-1.347744e-01	2.396420e+00
2.800000e-06	-3.335317e-08	5.053012e-11	-2.508696e-01	9.319325e-01
2.810000e-06	-4.878935e-08	3.107609e-11	-3.669745e-01	-5.025544e-01
2.820000e-06	-6.422467e-08	6.834575e-12	-4.830730e-01	-1.944829e+00
2.830000e-06	-7.964436e-08	-1.840790e-11	-5.990539e-01	-3.431702e+00
2.840000e-06	-9.503503e-08	-3.951865e-11	-7.148165e-01	-4.980449e+00
2.850000e-06	-1.104039e-07	-6.210184e-11	-8.304152e-01	-6.579161e+00
2.860000e-06	-1.257577e-07	-9.137011e-11	-9.459003e-01	-8.191690e+00
2.870000e-06	-1.410737e-07	-1.214564e-10	-1.061102e+00	-9.775298e+00
2.880000e-06	-1.563370e-07	-1.457644e-10	-1.175906e+00	-1.130217e+01
2.890000e-06	-1.715579e-07	-1.652944e-10	-1.290392e+00	-1.277358e+01
2.900000e-06	-1.867411e-07	-1.873204e-10	-1.404594e+00	-1.421913e+01
2.910000e-06	-2.018724e-07	-2.120656e-10	-1.518405e+00	-1.568152e+01
2.920000e-06	-2.169463e-07	-2.349185e-10	-1.631785e+00	-1.719493e+01
2.930000e-06	-2.319684e-07	-2.568762e-10	-1.744776e+00	-1.876833e+01
2.940000e-06	-2.469441e-07	-2.816315e-10	-1.857418e+00	-2.038231e+01
2.950000e-06	-2.618439e-07	-3.107843e-10	-1.969488e+00	-2.200009e+01
