# Temperatura_=_20.0
# Concentracion g/m^3_=_10000.0
# C_Vs_to_Am_M_A/Vsm_=_65563218390.804596
# pendiente_HvsI_1/m_=_3716.3
# ordenada_HvsI_A/m_=_1297.0
# frecuencia_Hz_=_269722.1484452703

Tiempo_(s)	Campo_(V.s)	Magnetizacion_(V.s)	Campo_(kA/m)	Magnetizacion_(A/m)
0.000000e+00	-9.126328e-07	-1.402599e-09	-6.860622e+00	-9.156271e+01
1.000000e-08	-9.124198e-07	-1.406338e-09	-6.859021e+00	-9.161329e+01
2.000000e-08	-9.119386e-07	-1.406544e-09	-6.855404e+00	-9.161190e+01
3.000000e-08	-9.112552e-07	-1.407425e-09	-6.850266e+00	-9.156771e+01
4.000000e-08	-9.103316e-07	-1.418221e-09	-6.843323e+00	-9.150421e+01
5.000000e-08	-9.091925e-07	-1.408925e-09	-6.834760e+00	-9.144789e+01
6.000000e-08	-9.079448e-07	-1.381878e-09	-6.825381e+00	-9.141237e+01
7.000000e-08	-9.064267e-07	-1.396074e-09	-6.813968e+00	-9.138722e+01
8.000000e-08	-9.044799e-07	-1.393455e-09	-6.799333e+00	-9.133898e+01
9.000000e-08	-9.021820e-07	-1.394540e-09	-6.782059e+00	-9.122540e+01
1.000000e-07	-8.995235e-07	-1.408052e-09	-6.762074e+00	-9.101629e+01
1.100000e-07	-8.965548e-07	-1.379439e-09	-6.739757e+00	-9.071022e+01
1.200000e-07	-8.934532e-07	-1.376345e-09	-6.716441e+00	-9.033767e+01
1.300000e-07	-8.902541e-07	-1.382112e-09	-6.692393e+00	-8.994842e+01
1.400000e-07	-8.868537e-07	-1.384128e-09	-6.666830e+00	-8.958894e+01
1.500000e-07	-8.831515e-07	-1.370908e-09	-6.638999e+00	-8.928102e+01
1.600000e-07	-8.791678e-07	-1.343508e-09	-6.609053e+00	-8.901217e+01
1.700000e-07	-8.749607e-07	-1.348931e-09	-6.577426e+00	-8.874227e+01
1.800000e-07	-8.704886e-07	-1.358579e-09	-6.543808e+00	-8.842276e+01
1.900000e-07	-8.657419e-07	-1.354204e-09	-6.508124e+00	-8.801871e+01
2.000000e-07	-8.607601e-07	-1.322868e-09	-6.470674e+00	-8.752342e+01
2.100000e-07	-8.555310e-07	-1.310964e-09	-6.431365e+00	-8.695935e+01
2.200000e-07	-8.500036e-07	-1.317968e-09	-6.389813e+00	-8.636610e+01
2.300000e-07	-8.441677e-07	-1.320898e-09	-6.345943e+00	-8.578212e+01
2.400000e-07	-8.380917e-07	-1.302707e-09	-6.300267e+00	-8.522865e+01
2.500000e-07	-8.318380e-07	-1.280014e-09	-6.253256e+00	-8.470250e+01
2.600000e-07	-8.253533e-07	-1.277925e-09	-6.204507e+00	-8.417941e+01
2.700000e-07	-8.185846e-07	-1.275579e-09	-6.153624e+00	-8.362537e+01
2.800000e-07	-8.115831e-07	-1.261766e-09	-6.100991e+00	-8.301046e+01
2.900000e-07	-8.043859e-07	-1.241758e-09	-6.046887e+00	-8.231982e+01
3.000000e-07	-7.969382e-07	-1.237001e-09	-5.990900e+00	-8.155852e+01
3.100000e-07	-7.891940e-07	-1.230579e-09	-5.932683e+00	-8.074927e+01
3.200000e-07	-7.811847e-07	-1.219488e-09	-5.872474e+00	-7.992421e+01
3.300000e-07	-7.729663e-07	-1.197837e-09	-5.810693e+00	-7.911372e+01
3.400000e-07	-7.645527e-07	-1.181009e-09	-5.747445e+00	-7.833534e+01
3.500000e-07	-7.559101e-07	-1.168105e-09	-5.682475e+00	-7.758661e+01
3.600000e-07	-7.470710e-07	-1.161431e-09	-5.616028e+00	-7.684451e+01
3.700000e-07	-7.380691e-07	-1.152507e-09	-5.548357e+00	-7.607266e+01
3.800000e-07	-7.288403e-07	-1.135239e-09	-5.478981e+00	-7.523446e+01
3.900000e-07	-7.193512e-07	-1.113749e-09	-5.407647e+00	-7.430780e+01
4.000000e-07	-7.096768e-07	-1.097771e-09	-5.334921e+00	-7.329521e+01
4.100000e-07	-6.998489e-07	-1.089024e-09	-5.261041e+00	-7.222472e+01
4.200000e-07	-6.898029e-07	-1.071129e-09	-5.185521e+00	-7.113984e+01
4.300000e-07	-6.795099e-07	-1.049119e-09	-5.108145e+00	-7.008220e+01
4.400000e-07	-6.690246e-07	-1.035398e-09	-5.029323e+00	-6.907411e+01
4.500000e-07	-6.583859e-07	-1.028565e-09	-4.949348e+00	-6.810876e+01
4.600000e-07	-6.475680e-07	-1.009961e-09	-4.868025e+00	-6.715302e+01
4.700000e-07	-6.365506e-07	-9.836467e-10	-4.785203e+00	-6.616188e+01
4.800000e-07	-6.253434e-07	-9.658630e-10	-4.700954e+00	-6.509829e+01
4.900000e-07	-6.139554e-07	-9.572898e-10	-4.615346e+00	-6.394931e+01
5.000000e-07	-6.023709e-07	-9.417522e-10	-4.528260e+00	-6.273136e+01
5.100000e-07	-5.906014e-07	-9.186810e-10	-4.439784e+00	-6.148220e+01
5.200000e-07	-5.786736e-07	-9.002830e-10	-4.350118e+00	-6.024380e+01
5.300000e-07	-5.665907e-07	-8.836269e-10	-4.259287e+00	-5.904412e+01
5.400000e-07	-5.543391e-07	-8.630036e-10	-4.167186e+00	-5.788619e+01
5.500000e-07	-5.419137e-07	-8.421148e-10	-4.073779e+00	-5.674911e+01
5.600000e-07	-5.293369e-07	-8.264945e-10	-3.979235e+00	-5.559974e+01
5.700000e-07	-5.166206e-07	-8.118280e-10	-3.883642e+00	-5.440908e+01
5.800000e-07	-5.037743e-07	-7.944724e-10	-3.787071e+00	-5.316538e+01
5.900000e-07	-4.907880e-07	-7.744660e-10	-3.689448e+00	-5.187830e+01
6.000000e-07	-4.776428e-07	-7.538170e-10	-3.590630e+00	-5.057291e+01
6.100000e-07	-4.643465e-07	-7.338744e-10	-3.490677e+00	-4.927712e+01
6.200000e-07	-4.509201e-07	-7.159602e-10	-3.389745e+00	-4.800898e+01
6.300000e-07	-4.373874e-07	-7.002491e-10	-3.288014e+00	-4.676972e+01
6.400000e-07	-4.237363e-07	-6.826295e-10	-3.185394e+00	-4.554502e+01
6.500000e-07	-4.099502e-07	-6.611806e-10	-3.081758e+00	-4.431314e+01
6.600000e-07	-3.960213e-07	-6.390308e-10	-2.977049e+00	-4.305497e+01
6.700000e-07	-3.819619e-07	-6.190419e-10	-2.871359e+00	-4.176106e+01
6.800000e-07	-3.677976e-07	-5.998928e-10	-2.764880e+00	-4.043261e+01
6.900000e-07	-3.535083e-07	-5.772443e-10	-2.657462e+00	-3.907686e+01
7.000000e-07	-3.390706e-07	-5.532840e-10	-2.548928e+00	-3.770042e+01
7.100000e-07	-3.245204e-07	-5.336608e-10	-2.439548e+00	-3.630499e+01
7.200000e-07	-3.099057e-07	-5.148678e-10	-2.329684e+00	-3.488793e+01
7.300000e-07	-2.952145e-07	-4.923169e-10	-2.219244e+00	-3.344731e+01
7.400000e-07	-2.804247e-07	-4.680675e-10	-2.108064e+00	-3.198768e+01
7.500000e-07	-2.655547e-07	-4.464620e-10	-1.996280e+00	-3.052221e+01
7.600000e-07	-2.506291e-07	-4.268716e-10	-1.884079e+00	-2.906870e+01
7.700000e-07	-2.356497e-07	-4.060662e-10	-1.771472e+00	-2.764049e+01
7.800000e-07	-2.206201e-07	-3.818132e-10	-1.658489e+00	-2.623729e+01
7.900000e-07	-2.055400e-07	-3.588917e-10	-1.545126e+00	-2.484153e+01
8.000000e-07	-1.903952e-07	-3.392998e-10	-1.431276e+00	-2.342399e+01
8.100000e-07	-1.751899e-07	-3.187472e-10	-1.316972e+00	-2.195732e+01
8.200000e-07	-1.599398e-07	-2.949062e-10	-1.202331e+00	-2.043101e+01
8.300000e-07	-1.446582e-07	-2.695157e-10	-1.087453e+00	-1.885989e+01
8.400000e-07	-1.293509e-07	-2.473177e-10	-9.723822e-01	-1.728012e+01
8.500000e-07	-1.140085e-07	-2.258144e-10	-8.570469e-01	-1.573318e+01
8.600000e-07	-9.861533e-08	-2.025167e-10	-7.413305e-01	-1.424508e+01
8.700000e-07	-8.317952e-08	-1.786982e-10	-6.252934e-01	-1.281140e+01
8.800000e-07	-6.772115e-08	-1.564041e-10	-5.090867e-01	-1.139698e+01
8.900000e-07	-5.224794e-08	-1.355750e-10	-3.927684e-01	-9.951770e+00
9.000000e-07	-3.675582e-08	-1.134904e-10	-2.763081e-01	-8.435937e+00
9.100000e-07	-2.123794e-08	-8.853088e-11	-1.596540e-01	-6.841496e+00
9.200000e-07	-5.704175e-09	-6.293468e-11	-4.288054e-02	-5.198784e+00
9.300000e-07	9.829324e-09	-3.982926e-11	7.389092e-02	-3.563340e+00
9.400000e-07	2.534788e-08	-1.605836e-11	1.905500e-01	-1.988965e+00
9.500000e-07	4.084218e-08	9.701702e-12	3.070268e-01	-5.003764e-01
9.600000e-07	5.632054e-08	3.399303e-11	4.233838e-01	9.203284e-01
9.700000e-07	7.178329e-08	5.447446e-11	5.396234e-01	2.325931e+00
9.800000e-07	8.721292e-08	7.549719e-11	6.556140e-01	3.778545e+00
9.900000e-07	1.026039e-07	1.003693e-10	7.713138e-01	5.319049e+00
1.000000e-06	1.179598e-07	1.260273e-10	8.867502e-01	6.946936e+00
1.010000e-06	1.332807e-07	1.497161e-10	1.001924e+00	8.620645e+00
1.020000e-06	1.485650e-07	1.720422e-10	1.116822e+00	1.027779e+01
1.030000e-06	1.638102e-07	1.951030e-10	1.231426e+00	1.186469e+01
1.040000e-06	1.790128e-07	2.195894e-10	1.345710e+00	1.336025e+01
1.050000e-06	1.941673e-07	2.423194e-10	1.459633e+00	1.478311e+01
1.060000e-06	2.092697e-07	2.617509e-10	1.573163e+00	1.617979e+01
1.070000e-06	2.243175e-07	2.827585e-10	1.686283e+00	1.760153e+01
1.080000e-06	2.393069e-07	3.074730e-10	1.798964e+00	1.908190e+01
1.090000e-06	2.542369e-07	3.332755e-10	1.911200e+00	2.062565e+01
1.100000e-06	2.691115e-07	3.571268e-10	2.023018e+00	2.221188e+01
1.110000e-06	2.839226e-07	3.776330e-10	2.134359e+00	2.380727e+01
1.120000e-06	2.986427e-07	3.996392e-10	2.245015e+00	2.538075e+01
1.130000e-06	3.132641e-07	4.247860e-10	2.354930e+00	2.691272e+01
1.140000e-06	3.278008e-07	4.475135e-10	2.464209e+00	2.839644e+01
1.150000e-06	3.422325e-07	4.678833e-10	2.572697e+00	2.983460e+01
1.160000e-06	3.565508e-07	4.889581e-10	2.680334e+00	3.123568e+01
1.170000e-06	3.707684e-07	5.102446e-10	2.787213e+00	3.261270e+01
1.180000e-06	3.848853e-07	5.291838e-10	2.893335e+00	3.398341e+01
1.190000e-06	3.988880e-07	5.467202e-10	2.998599e+00	3.536843e+01
1.200000e-06	4.127391e-07	5.663962e-10	3.102723e+00	3.678506e+01
1.210000e-06	4.264455e-07	5.884774e-10	3.205760e+00	3.823820e+01
1.220000e-06	4.400335e-07	6.097460e-10	3.307906e+00	3.971382e+01
1.230000e-06	4.535019e-07	6.288957e-10	3.409154e+00	4.118054e+01
1.240000e-06	4.668571e-07	6.480975e-10	3.509549e+00	4.260140e+01
1.250000e-06	4.800928e-07	6.684718e-10	3.609047e+00	4.395141e+01
1.260000e-06	4.931689e-07	6.874411e-10	3.707346e+00	4.523168e+01
1.270000e-06	5.060822e-07	7.039784e-10	3.804420e+00	4.647165e+01
1.280000e-06	5.188639e-07	7.207900e-10	3.900505e+00	4.771622e+01
1.290000e-06	5.315113e-07	7.392274e-10	3.995581e+00	4.900341e+01
1.300000e-06	5.440296e-07	7.577800e-10	4.089686e+00	5.034424e+01
1.310000e-06	5.564045e-07	7.758821e-10	4.182713e+00	5.171598e+01
1.320000e-06	5.686022e-07	7.933530e-10	4.274408e+00	5.307328e+01
1.330000e-06	5.806333e-07	8.104786e-10	4.364850e+00	5.437169e+01
1.340000e-06	5.925050e-07	8.280086e-10	4.454095e+00	5.559073e+01
1.350000e-06	6.042016e-07	8.454458e-10	4.542023e+00	5.674395e+01
1.360000e-06	6.156977e-07	8.623758e-10	4.628443e+00	5.787015e+01
1.370000e-06	6.269964e-07	8.778731e-10	4.713380e+00	5.901100e+01
1.380000e-06	6.381269e-07	8.934771e-10	4.797052e+00	6.018775e+01
1.390000e-06	6.490982e-07	9.111195e-10	4.879528e+00	6.139013e+01
1.400000e-06	6.598947e-07	9.298547e-10	4.960690e+00	6.258351e+01
1.410000e-06	6.704894e-07	9.474599e-10	5.040334e+00	6.372956e+01
1.420000e-06	6.808881e-07	9.634540e-10	5.118505e+00	6.480820e+01
1.430000e-06	6.911043e-07	9.791026e-10	5.195305e+00	6.582814e+01
1.440000e-06	7.011141e-07	9.940545e-10	5.270552e+00	6.682043e+01
1.450000e-06	7.109028e-07	1.008059e-09	5.344138e+00	6.781963e+01
1.460000e-06	7.204910e-07	1.022244e-09	5.416216e+00	6.884409e+01
1.470000e-06	7.298965e-07	1.036733e-09	5.486921e+00	6.988721e+01
1.480000e-06	7.390929e-07	1.051829e-09	5.556054e+00	7.092396e+01
1.490000e-06	7.480657e-07	1.067061e-09	5.623506e+00	7.192787e+01
1.500000e-06	7.568326e-07	1.080679e-09	5.689410e+00	7.288753e+01
1.510000e-06	7.654038e-07	1.093456e-09	5.753843e+00	7.381207e+01
1.520000e-06	7.737594e-07	1.106573e-09	5.816655e+00	7.472300e+01
1.530000e-06	7.818810e-07	1.121747e-09	5.877709e+00	7.563783e+01
1.540000e-06	7.897811e-07	1.136917e-09	5.937097e+00	7.655662e+01
1.550000e-06	7.974498e-07	1.149384e-09	5.994745e+00	7.746007e+01
1.560000e-06	8.048711e-07	1.161332e-09	6.050534e+00	7.832085e+01
1.570000e-06	8.120560e-07	1.174059e-09	6.104546e+00	7.912083e+01
1.580000e-06	8.190190e-07	1.186143e-09	6.156890e+00	7.986346e+01
1.590000e-06	8.257445e-07	1.196458e-09	6.207448e+00	8.057310e+01
1.600000e-06	8.322272e-07	1.208036e-09	6.256181e+00	8.128129e+01
1.610000e-06	8.384938e-07	1.221705e-09	6.303289e+00	8.200810e+01
1.620000e-06	8.445473e-07	1.234568e-09	6.348796e+00	8.274974e+01
1.630000e-06	8.503599e-07	1.245269e-09	6.392492e+00	8.348005e+01
1.640000e-06	8.559225e-07	1.254517e-09	6.434308e+00	8.416518e+01
1.650000e-06	8.612249e-07	1.264251e-09	6.474168e+00	8.478270e+01
1.660000e-06	8.662451e-07	1.274148e-09	6.511907e+00	8.533411e+01
1.670000e-06	8.709972e-07	1.282941e-09	6.547631e+00	8.584344e+01
1.680000e-06	8.755123e-07	1.291925e-09	6.581572e+00	8.634317e+01
1.690000e-06	8.797825e-07	1.302050e-09	6.613673e+00	8.685590e+01
1.700000e-06	8.838013e-07	1.313408e-09	6.643884e+00	8.738240e+01
1.710000e-06	8.875930e-07	1.323885e-09	6.672388e+00	8.790255e+01
1.720000e-06	8.911450e-07	1.330712e-09	6.699090e+00	8.838772e+01
1.730000e-06	8.944393e-07	1.336410e-09	6.723854e+00	8.881676e+01
1.740000e-06	8.974935e-07	1.342093e-09	6.746814e+00	8.918625e+01
1.750000e-06	9.003083e-07	1.346669e-09	6.767973e+00	8.950957e+01
1.760000e-06	9.028542e-07	1.350205e-09	6.787112e+00	8.980692e+01
1.770000e-06	9.051398e-07	1.354598e-09	6.804294e+00	9.009294e+01
1.780000e-06	9.071949e-07	1.361594e-09	6.819743e+00	9.036999e+01
1.790000e-06	9.089967e-07	1.367724e-09	6.833288e+00	9.063015e+01
1.800000e-06	9.105223e-07	1.370006e-09	6.844757e+00	9.086348e+01
1.810000e-06	9.117629e-07	1.371270e-09	6.854082e+00	9.106595e+01
1.820000e-06	9.127212e-07	1.374709e-09	6.861286e+00	9.124143e+01
1.830000e-06	9.134230e-07	1.378802e-09	6.866562e+00	9.139663e+01
1.840000e-06	9.138762e-07	1.382226e-09	6.869969e+00	9.153311e+01
1.850000e-06	9.140732e-07	1.381712e-09	6.871450e+00	9.164298e+01
1.860000e-06	9.140045e-07	1.381960e-09	6.870934e+00	9.171218e+01
1.870000e-06	9.136702e-07	1.383975e-09	6.868421e+00	9.173025e+01
1.880000e-06	9.130884e-07	1.381152e-09	6.864047e+00	9.170010e+01
1.890000e-06	9.122348e-07	1.372954e-09	6.857630e+00	9.164069e+01
1.900000e-06	9.110570e-07	1.371110e-09	6.848776e+00	9.157918e+01
1.910000e-06	9.096089e-07	1.397363e-09	6.837890e+00	9.153579e+01
1.920000e-06	9.079839e-07	1.389977e-09	6.825675e+00	9.150975e+01
1.930000e-06	9.062039e-07	1.383872e-09	6.812294e+00	9.147521e+01
1.940000e-06	9.041545e-07	1.377281e-09	6.796887e+00	9.139090e+01
1.950000e-06	9.016636e-07	1.373622e-09	6.778162e+00	9.121969e+01
1.960000e-06	8.987737e-07	1.383896e-09	6.756437e+00	9.094813e+01
1.970000e-06	8.957513e-07	1.368586e-09	6.733717e+00	9.059540e+01
1.980000e-06	8.926895e-07	1.359934e-09	6.710700e+00	9.020638e+01
1.990000e-06	8.893973e-07	1.346331e-09	6.685951e+00	8.983162e+01
2.000000e-06	8.857006e-07	1.361131e-09	6.658162e+00	8.950409e+01
2.010000e-06	8.816737e-07	1.363364e-09	6.627890e+00	8.922426e+01
2.020000e-06	8.775256e-07	1.350901e-09	6.596707e+00	8.896062e+01
2.030000e-06	8.732388e-07	1.334760e-09	6.564482e+00	8.866510e+01
2.040000e-06	8.686214e-07	1.337383e-09	6.529771e+00	8.829535e+01
2.050000e-06	8.636216e-07	1.348441e-09	6.492186e+00	8.783319e+01
2.060000e-06	8.584220e-07	1.333089e-09	6.453098e+00	8.729095e+01
2.070000e-06	8.530843e-07	1.310071e-09	6.412972e+00	8.670379e+01
2.080000e-06	8.474531e-07	1.297665e-09	6.370641e+00	8.611278e+01
2.090000e-06	8.414652e-07	1.302281e-09	6.325627e+00	8.554702e+01
2.100000e-06	8.352470e-07	1.296682e-09	6.278882e+00	8.501265e+01
2.110000e-06	8.288951e-07	1.282955e-09	6.231132e+00	8.449230e+01
2.120000e-06	8.222947e-07	1.269405e-09	6.181515e+00	8.395402e+01
2.130000e-06	8.153518e-07	1.269977e-09	6.129322e+00	8.336478e+01
2.140000e-06	8.081652e-07	1.262519e-09	6.075298e+00	8.270316e+01
2.150000e-06	8.008332e-07	1.243777e-09	6.020180e+00	8.196665e+01
2.160000e-06	7.932677e-07	1.223635e-09	5.963307e+00	8.117202e+01
2.170000e-06	7.853730e-07	1.216639e-09	5.903960e+00	8.034910e+01
2.180000e-06	7.772317e-07	1.212692e-09	5.842758e+00	7.953032e+01
2.190000e-06	7.689457e-07	1.203286e-09	5.780469e+00	7.873915e+01
2.200000e-06	7.604508e-07	1.191002e-09	5.716610e+00	7.798109e+01
2.210000e-06	7.516668e-07	1.179074e-09	5.650577e+00	7.724042e+01
2.220000e-06	7.426685e-07	1.168855e-09	5.582933e+00	7.648446e+01
2.230000e-06	7.335143e-07	1.157212e-09	5.514117e+00	7.567494e+01
2.240000e-06	7.241381e-07	1.146507e-09	5.443633e+00	7.478274e+01
2.250000e-06	7.145158e-07	1.130111e-09	5.371298e+00	7.380047e+01
2.260000e-06	7.047170e-07	1.113542e-09	5.297636e+00	7.274722e+01
2.270000e-06	6.947603e-07	1.098782e-09	5.222788e+00	7.166246e+01
2.280000e-06	6.845703e-07	1.087386e-09	5.146186e+00	7.059075e+01
2.290000e-06	6.741359e-07	1.067931e-09	5.067747e+00	6.956337e+01
2.300000e-06	6.635390e-07	1.051347e-09	4.988085e+00	6.858480e+01
2.310000e-06	6.528039e-07	1.045320e-09	4.907385e+00	6.763063e+01
2.320000e-06	6.418804e-07	1.037917e-09	4.825269e+00	6.665810e+01
2.330000e-06	6.307313e-07	1.016021e-09	4.741457e+00	6.562487e+01
2.340000e-06	6.193816e-07	9.901545e-10	4.656137e+00	6.450765e+01
2.350000e-06	6.078516e-07	9.763522e-10	4.569461e+00	6.331209e+01
2.360000e-06	5.961330e-07	9.639827e-10	4.481368e+00	6.206964e+01
2.370000e-06	5.842421e-07	9.435605e-10	4.391979e+00	6.082296e+01
2.380000e-06	5.721940e-07	9.221736e-10	4.301409e+00	5.960708e+01
2.390000e-06	5.599924e-07	9.094139e-10	4.209685e+00	5.843495e+01
2.400000e-06	5.476306e-07	8.966748e-10	4.116756e+00	5.729375e+01
2.410000e-06	5.351014e-07	8.760748e-10	4.022569e+00	5.615309e+01
2.420000e-06	5.224218e-07	8.539131e-10	3.927252e+00	5.498055e+01
2.430000e-06	5.096017e-07	8.358486e-10	3.830878e+00	5.375684e+01
2.440000e-06	4.966493e-07	8.170303e-10	3.733509e+00	5.248382e+01
2.450000e-06	4.835612e-07	7.963612e-10	3.635121e+00	5.118200e+01
2.460000e-06	4.703121e-07	7.773015e-10	3.535522e+00	4.987986e+01
2.470000e-06	4.569220e-07	7.583398e-10	3.434864e+00	4.860037e+01
2.480000e-06	4.434165e-07	7.383004e-10	3.333337e+00	4.735137e+01
2.490000e-06	4.297874e-07	7.195194e-10	3.230882e+00	4.612371e+01
2.500000e-06	4.160291e-07	7.017809e-10	3.127455e+00	4.489724e+01
2.510000e-06	4.021321e-07	6.833473e-10	3.022986e+00	4.365076e+01
2.520000e-06	3.880917e-07	6.646905e-10	2.917439e+00	4.237076e+01
2.530000e-06	3.739294e-07	6.469586e-10	2.810976e+00	4.105473e+01
2.540000e-06	3.596658e-07	6.268949e-10	2.703750e+00	3.970839e+01
2.550000e-06	3.452995e-07	6.036503e-10	2.595753e+00	3.833933e+01
2.560000e-06	3.308380e-07	5.812251e-10	2.487040e+00	3.695130e+01
2.570000e-06	3.162988e-07	5.610767e-10	2.377743e+00	3.554288e+01
2.580000e-06	3.016947e-07	5.424283e-10	2.267958e+00	3.411114e+01
2.590000e-06	2.870040e-07	5.205496e-10	2.157522e+00	3.265767e+01
2.600000e-06	2.722021e-07	4.952739e-10	2.046251e+00	3.119252e+01
2.610000e-06	2.573059e-07	4.713098e-10	1.934270e+00	2.973262e+01
2.620000e-06	2.423363e-07	4.519691e-10	1.821738e+00	2.829419e+01
2.630000e-06	2.273053e-07	4.327286e-10	1.708744e+00	2.688289e+01
2.640000e-06	2.122099e-07	4.090987e-10	1.595266e+00	2.548749e+01
2.650000e-06	1.970585e-07	3.855226e-10	1.481367e+00	2.408190e+01
2.660000e-06	1.818696e-07	3.651122e-10	1.367186e+00	2.263621e+01
2.670000e-06	1.666359e-07	3.443478e-10	1.252668e+00	2.113206e+01
2.680000e-06	1.513469e-07	3.182912e-10	1.137735e+00	1.957454e+01
2.690000e-06	1.360260e-07	2.908615e-10	1.022562e+00	1.799312e+01
2.700000e-06	1.206837e-07	2.674293e-10	9.072273e-01	1.642968e+01
2.710000e-06	1.053059e-07	2.468972e-10	7.916261e-01	1.491834e+01
2.720000e-06	8.989744e-08	2.244118e-10	6.757946e-01	1.346704e+01
2.730000e-06	7.446736e-08	2.003319e-10	5.598007e-01	1.205109e+01
2.740000e-06	5.902980e-08	1.771515e-10	4.437503e-01	1.062334e+01
2.750000e-06	4.359396e-08	1.534802e-10	3.277131e-01	9.137102e+00
2.760000e-06	2.814816e-08	1.283714e-10	2.116008e-01	7.570682e+00
2.770000e-06	1.268822e-08	1.023406e-10	9.538238e-02	5.940550e+00
2.780000e-06	-2.771069e-09	7.778334e-11	-2.083122e-02	4.295445e+00
2.790000e-06	-1.821918e-08	5.581415e-11	-1.369608e-01	2.693343e+00
2.800000e-06	-3.366362e-08	3.413267e-11	-2.530627e-01	1.172459e+00
2.810000e-06	-4.911048e-08	1.001728e-11	-3.691830e-01	-2.688483e-01
2.820000e-06	-6.454660e-08	-1.234894e-11	-4.852224e-01	-1.672522e+00
2.830000e-06	-7.996435e-08	-3.214184e-11	-6.011237e-01	-3.100837e+00
2.840000e-06	-9.536515e-08	-5.416290e-11	-7.168976e-01	-4.605864e+00
2.850000e-06	-1.107489e-07	-8.101560e-11	-8.325435e-01	-6.203786e+00
2.860000e-06	-1.261114e-07	-1.098479e-10	-9.480293e-01	-7.866991e+00
2.870000e-06	-1.414343e-07	-1.364527e-10	-1.063217e+00	-9.537629e+00
2.880000e-06	-1.567086e-07	-1.607796e-10	-1.178040e+00	-1.115533e+01
2.890000e-06	-1.719382e-07	-1.842343e-10	-1.292528e+00	-1.268489e+01
2.900000e-06	-1.871274e-07	-2.070737e-10	-1.406711e+00	-1.413049e+01
2.910000e-06	-2.022642e-07	-2.266557e-10	-1.520500e+00	-1.553055e+01
2.920000e-06	-2.173424e-07	-2.449507e-10	-1.633849e+00	-1.693749e+01
2.930000e-06	-2.323797e-07	-2.671754e-10	-1.746890e+00	-1.839357e+01
2.940000e-06	-2.473698e-07	-2.926648e-10	-1.859576e+00	-1.991472e+01
2.950000e-06	-2.622786e-07	-3.174084e-10	-1.971652e+00	-2.148848e+01
