# Temperatura_=_20.0
# Concentracion g/m^3_=_10000.0
# C_Vs_to_Am_M_A/Vsm_=_65563218390.804596
# pendiente_HvsI_1/m_=_3716.3
# ordenada_HvsI_A/m_=_1297.0
# frecuencia_Hz_=_301485.3662323573

Tiempo_(s)	Campo_(V.s)	Magnetizacion_(V.s)	Campo_(kA/m)	Magnetizacion_(A/m)
0.000000e+00	-8.189567e-06	-1.153901e-08	-5.690407e+01	-7.555226e+02
1.000000e-08	-8.187219e-06	-1.154395e-08	-5.688776e+01	-7.553946e+02
2.000000e-08	-8.182120e-06	-1.154058e-08	-5.685233e+01	-7.552966e+02
3.000000e-08	-8.174429e-06	-1.153831e-08	-5.679889e+01	-7.551495e+02
4.000000e-08	-8.163932e-06	-1.153549e-08	-5.672595e+01	-7.548244e+02
5.000000e-08	-8.150522e-06	-1.152657e-08	-5.663278e+01	-7.542305e+02
6.000000e-08	-8.134129e-06	-1.150691e-08	-5.651887e+01	-7.533909e+02
7.000000e-08	-8.115043e-06	-1.147345e-08	-5.638625e+01	-7.524479e+02
8.000000e-08	-8.093582e-06	-1.146725e-08	-5.623714e+01	-7.515830e+02
9.000000e-08	-8.069253e-06	-1.153879e-08	-5.606809e+01	-7.509011e+02
1.000000e-07	-8.041576e-06	-1.150672e-08	-5.587578e+01	-7.503538e+02
1.100000e-07	-8.010759e-06	-1.143843e-08	-5.566165e+01	-7.497599e+02
1.200000e-07	-7.977030e-06	-1.144566e-08	-5.542729e+01	-7.489153e+02
1.300000e-07	-7.940549e-06	-1.145142e-08	-5.517381e+01	-7.477235e+02
1.400000e-07	-7.901749e-06	-1.136963e-08	-5.490421e+01	-7.462625e+02
1.500000e-07	-7.860750e-06	-1.132117e-08	-5.461933e+01	-7.447403e+02
1.600000e-07	-7.817041e-06	-1.142076e-08	-5.431563e+01	-7.433674e+02
1.700000e-07	-7.770392e-06	-1.126490e-08	-5.399150e+01	-7.422262e+02
1.800000e-07	-7.720993e-06	-1.129700e-08	-5.364825e+01	-7.412208e+02
1.900000e-07	-7.668561e-06	-1.135622e-08	-5.328393e+01	-7.401348e+02
2.000000e-07	-7.613145e-06	-1.124377e-08	-5.289889e+01	-7.387578e+02
2.100000e-07	-7.554967e-06	-1.125278e-08	-5.249464e+01	-7.369959e+02
2.200000e-07	-7.494059e-06	-1.118152e-08	-5.207143e+01	-7.349008e+02
2.300000e-07	-7.430558e-06	-1.120149e-08	-5.163020e+01	-7.326085e+02
2.400000e-07	-7.364243e-06	-1.114605e-08	-5.116942e+01	-7.302377e+02
2.500000e-07	-7.295118e-06	-1.108478e-08	-5.068912e+01	-7.278206e+02
2.600000e-07	-7.223394e-06	-1.106978e-08	-5.019076e+01	-7.253059e+02
2.700000e-07	-7.148895e-06	-1.100838e-08	-4.967311e+01	-7.226230e+02
2.800000e-07	-7.071582e-06	-1.099138e-08	-4.913591e+01	-7.197518e+02
2.900000e-07	-6.991459e-06	-1.092415e-08	-4.857919e+01	-7.167443e+02
3.000000e-07	-6.908697e-06	-1.088983e-08	-4.800413e+01	-7.136852e+02
3.100000e-07	-6.823662e-06	-1.083642e-08	-4.741327e+01	-7.106224e+02
3.200000e-07	-6.736394e-06	-1.078433e-08	-4.680690e+01	-7.075215e+02
3.300000e-07	-6.646747e-06	-1.076644e-08	-4.618400e+01	-7.042779e+02
3.400000e-07	-6.554713e-06	-1.067525e-08	-4.554452e+01	-7.007775e+02
3.500000e-07	-6.460350e-06	-1.061840e-08	-4.488885e+01	-6.969645e+02
3.600000e-07	-6.363630e-06	-1.056107e-08	-4.421681e+01	-6.928694e+02
3.700000e-07	-6.264559e-06	-1.051130e-08	-4.352842e+01	-6.885822e+02
3.800000e-07	-6.163259e-06	-1.044361e-08	-4.282455e+01	-6.841918e+02
3.900000e-07	-6.059775e-06	-1.035730e-08	-4.210551e+01	-6.797338e+02
4.000000e-07	-5.954031e-06	-1.028833e-08	-4.137076e+01	-6.751790e+02
4.100000e-07	-5.846135e-06	-1.021495e-08	-4.062106e+01	-6.704612e+02
4.200000e-07	-5.736257e-06	-1.015146e-08	-3.985759e+01	-6.655202e+02
4.300000e-07	-5.624306e-06	-1.006112e-08	-3.907971e+01	-6.603277e+02
4.400000e-07	-5.510121e-06	-9.980694e-09	-3.828631e+01	-6.548825e+02
4.500000e-07	-5.393715e-06	-9.901355e-09	-3.747748e+01	-6.491883e+02
4.600000e-07	-5.275216e-06	-9.818745e-09	-3.665411e+01	-6.432370e+02
4.700000e-07	-5.154833e-06	-9.722240e-09	-3.581764e+01	-6.370137e+02
4.800000e-07	-5.032621e-06	-9.604306e-09	-3.496847e+01	-6.305167e+02
4.900000e-07	-4.908581e-06	-9.497910e-09	-3.410660e+01	-6.237728e+02
5.000000e-07	-4.782790e-06	-9.397923e-09	-3.323256e+01	-6.168279e+02
5.100000e-07	-4.655289e-06	-9.298744e-09	-3.234663e+01	-6.097140e+02
5.200000e-07	-4.526148e-06	-9.182992e-09	-3.144931e+01	-6.024139e+02
5.300000e-07	-4.395373e-06	-9.063057e-09	-3.054064e+01	-5.948516e+02
5.400000e-07	-4.262954e-06	-8.944772e-09	-2.962054e+01	-5.869190e+02
5.500000e-07	-4.128986e-06	-8.819760e-09	-2.868969e+01	-5.785292e+02
5.600000e-07	-3.993572e-06	-8.681589e-09	-2.774878e+01	-5.696624e+02
5.700000e-07	-3.856726e-06	-8.525776e-09	-2.679792e+01	-5.603763e+02
5.800000e-07	-3.718361e-06	-8.377059e-09	-2.583652e+01	-5.507712e+02
5.900000e-07	-3.578436e-06	-8.234641e-09	-2.486427e+01	-5.409290e+02
6.000000e-07	-3.437065e-06	-8.089660e-09	-2.388197e+01	-5.308603e+02
6.100000e-07	-3.294406e-06	-7.928535e-09	-2.289072e+01	-5.204908e+02
6.200000e-07	-3.150432e-06	-7.756018e-09	-2.189034e+01	-5.096918e+02
6.300000e-07	-3.005265e-06	-7.582040e-09	-2.088167e+01	-4.983389e+02
6.400000e-07	-2.859042e-06	-7.402932e-09	-1.986566e+01	-4.863651e+02
6.500000e-07	-2.711754e-06	-7.212079e-09	-1.884225e+01	-4.737816e+02
6.600000e-07	-2.563592e-06	-7.002803e-09	-1.781277e+01	-4.606583e+02
6.700000e-07	-2.414654e-06	-6.792884e-09	-1.677789e+01	-4.470773e+02
6.800000e-07	-2.264928e-06	-6.584932e-09	-1.573754e+01	-4.330844e+02
6.900000e-07	-2.114460e-06	-6.372570e-09	-1.469204e+01	-4.186630e+02
7.000000e-07	-1.963254e-06	-6.141416e-09	-1.364140e+01	-4.037373e+02
7.100000e-07	-1.811279e-06	-5.896938e-09	-1.258542e+01	-3.882015e+02
7.200000e-07	-1.658628e-06	-5.648825e-09	-1.152475e+01	-3.719558e+02
7.300000e-07	-1.505440e-06	-5.393414e-09	-1.046034e+01	-3.549342e+02
7.400000e-07	-1.351723e-06	-5.122928e-09	-9.392262e+00	-3.371115e+02
7.500000e-07	-1.197436e-06	-4.832592e-09	-8.320215e+00	-3.184920e+02
7.600000e-07	-1.042643e-06	-4.533056e-09	-7.244659e+00	-2.990854e+02
7.700000e-07	-8.874703e-07	-4.225722e-09	-6.166464e+00	-2.788826e+02
7.800000e-07	-7.319738e-07	-3.911408e-09	-5.086019e+00	-2.578410e+02
7.900000e-07	-5.762251e-07	-3.575130e-09	-4.003821e+00	-2.358821e+02
8.000000e-07	-4.202484e-07	-3.217421e-09	-2.920038e+00	-2.129025e+02
8.100000e-07	-2.640984e-07	-2.847343e-09	-1.835051e+00	-1.887923e+02
8.200000e-07	-1.078908e-07	-2.464607e-09	-7.496645e-01	-1.634532e+02
8.300000e-07	4.835824e-08	-2.058791e-09	3.360105e-01	-1.368101e+02
8.400000e-07	2.046467e-07	-1.624702e-09	1.421959e+00	-1.088135e+02
8.500000e-07	3.609089e-07	-1.172740e-09	2.507725e+00	-7.943514e+01
8.600000e-07	5.170359e-07	-7.049282e-10	3.592553e+00	-4.866347e+01
8.700000e-07	6.729556e-07	-2.209584e-10	4.675939e+00	-1.650834e+01
8.800000e-07	8.286063e-07	2.909538e-10	5.757457e+00	1.697784e+01
8.900000e-07	9.839142e-07	8.247805e-10	6.836592e+00	5.166520e+01
9.000000e-07	1.138831e-06	1.369127e-09	7.913013e+00	8.730936e+01
9.100000e-07	1.293275e-06	1.917050e-09	8.986145e+00	1.235316e+02
9.200000e-07	1.447170e-06	2.467340e-09	1.005546e+01	1.598338e+02
9.300000e-07	1.600524e-06	3.017429e-09	1.112102e+01	1.956529e+02
9.400000e-07	1.753317e-06	3.551551e-09	1.218268e+01	2.304433e+02
9.500000e-07	1.905522e-06	4.057611e-09	1.324026e+01	2.637586e+02
9.600000e-07	2.057075e-06	4.529091e-09	1.429330e+01	2.953048e+02
9.700000e-07	2.207867e-06	4.975776e-09	1.534106e+01	3.249458e+02
9.800000e-07	2.357827e-06	5.399380e-09	1.638304e+01	3.526673e+02
9.900000e-07	2.506956e-06	5.794120e-09	1.741924e+01	3.785217e+02
1.000000e-06	2.655245e-06	6.157083e-09	1.844960e+01	4.025820e+02
1.010000e-06	2.802568e-06	6.491585e-09	1.947326e+01	4.249239e+02
1.020000e-06	2.948856e-06	6.808734e-09	2.048972e+01	4.456310e+02
1.030000e-06	3.094100e-06	7.104101e-09	2.149892e+01	4.648082e+02
1.040000e-06	3.238205e-06	7.374686e-09	2.250022e+01	4.825826e+02
1.050000e-06	3.381091e-06	7.619678e-09	2.349304e+01	4.990871e+02
1.060000e-06	3.522688e-06	7.849604e-09	2.447691e+01	5.144372e+02
1.070000e-06	3.662930e-06	8.067441e-09	2.545136e+01	5.287205e+02
1.080000e-06	3.801723e-06	8.270250e-09	2.641575e+01	5.420068e+02
1.090000e-06	3.939075e-06	8.457576e-09	2.737012e+01	5.543743e+02
1.100000e-06	4.075017e-06	8.630138e-09	2.831469e+01	5.659280e+02
1.110000e-06	4.209499e-06	8.796940e-09	2.924912e+01	5.767934e+02
1.120000e-06	4.342535e-06	8.958338e-09	3.017350e+01	5.870844e+02
1.130000e-06	4.474014e-06	9.108840e-09	3.108707e+01	5.968640e+02
1.140000e-06	4.603791e-06	9.244208e-09	3.198880e+01	6.061287e+02
1.150000e-06	4.731903e-06	9.373042e-09	3.287897e+01	6.148311e+02
1.160000e-06	4.858402e-06	9.497060e-09	3.375793e+01	6.229330e+02
1.170000e-06	4.983292e-06	9.615520e-09	3.462572e+01	6.304559e+02
1.180000e-06	5.106413e-06	9.722605e-09	3.548121e+01	6.374967e+02
1.190000e-06	5.227615e-06	9.822934e-09	3.632336e+01	6.441946e+02
1.200000e-06	5.346914e-06	9.922243e-09	3.715229e+01	6.506684e+02
1.210000e-06	5.464223e-06	1.002052e-08	3.796740e+01	6.569617e+02
1.220000e-06	5.579367e-06	1.011429e-08	3.876746e+01	6.630311e+02
1.230000e-06	5.692360e-06	1.019923e-08	3.955258e+01	6.687838e+02
1.240000e-06	5.803323e-06	1.027779e-08	4.032358e+01	6.741432e+02
1.250000e-06	5.912330e-06	1.035092e-08	4.108101e+01	6.791006e+02
1.260000e-06	6.019289e-06	1.042098e-08	4.182420e+01	6.837266e+02
1.270000e-06	6.124047e-06	1.048673e-08	4.255209e+01	6.881365e+02
1.280000e-06	6.226615e-06	1.055055e-08	4.326477e+01	6.924340e+02
1.290000e-06	6.326884e-06	1.061311e-08	4.396148e+01	6.966668e+02
1.300000e-06	6.424742e-06	1.067546e-08	4.464143e+01	7.008145e+02
1.310000e-06	6.520292e-06	1.073674e-08	4.530534e+01	7.048107e+02
1.320000e-06	6.613620e-06	1.079338e-08	4.595382e+01	7.085825e+02
1.330000e-06	6.704617e-06	1.084479e-08	4.658610e+01	7.120840e+02
1.340000e-06	6.793187e-06	1.089256e-08	4.720152e+01	7.153130e+02
1.350000e-06	6.879436e-06	1.093776e-08	4.780081e+01	7.183076e+02
1.360000e-06	6.963353e-06	1.097988e-08	4.838390e+01	7.211303e+02
1.370000e-06	7.044773e-06	1.101989e-08	4.894963e+01	7.238460e+02
1.380000e-06	7.123639e-06	1.105942e-08	4.949762e+01	7.264999e+02
1.390000e-06	7.199847e-06	1.110053e-08	5.002714e+01	7.291010e+02
1.400000e-06	7.273316e-06	1.114136e-08	5.053763e+01	7.316186e+02
1.410000e-06	7.344195e-06	1.117822e-08	5.103013e+01	7.339959e+02
1.420000e-06	7.412535e-06	1.120943e-08	5.150498e+01	7.361793e+02
1.430000e-06	7.478161e-06	1.123764e-08	5.196097e+01	7.381496e+02
1.440000e-06	7.541145e-06	1.126632e-08	5.239861e+01	7.399375e+02
1.450000e-06	7.601624e-06	1.129341e-08	5.281883e+01	7.416100e+02
1.460000e-06	7.659363e-06	1.131785e-08	5.322003e+01	7.432337e+02
1.470000e-06	7.714287e-06	1.134157e-08	5.360166e+01	7.448363e+02
1.480000e-06	7.766213e-06	1.136535e-08	5.396246e+01	7.463914e+02
1.490000e-06	7.815006e-06	1.138729e-08	5.430149e+01	7.478392e+02
1.500000e-06	7.860976e-06	1.140577e-08	5.462090e+01	7.491287e+02
1.510000e-06	7.904151e-06	1.142043e-08	5.492090e+01	7.502535e+02
1.520000e-06	7.944443e-06	1.143428e-08	5.520086e+01	7.512553e+02
1.530000e-06	7.982013e-06	1.145003e-08	5.546192e+01	7.521912e+02
1.540000e-06	8.016825e-06	1.146517e-08	5.570380e+01	7.530912e+02
1.550000e-06	8.048780e-06	1.147798e-08	5.592583e+01	7.539351e+02
1.560000e-06	8.078006e-06	1.148827e-08	5.612891e+01	7.546698e+02
1.570000e-06	8.104326e-06	1.149726e-08	5.631179e+01	7.552527e+02
1.580000e-06	8.127700e-06	1.150548e-08	5.647420e+01	7.556884e+02
1.590000e-06	8.148366e-06	1.151093e-08	5.661779e+01	7.560295e+02
1.600000e-06	8.166181e-06	1.151369e-08	5.674158e+01	7.563386e+02
1.610000e-06	8.180947e-06	1.151631e-08	5.684418e+01	7.566404e+02
1.620000e-06	8.192532e-06	1.152009e-08	5.692467e+01	7.569026e+02
1.630000e-06	8.200962e-06	1.152347e-08	5.698325e+01	7.570616e+02
1.640000e-06	8.206573e-06	1.152531e-08	5.702224e+01	7.570778e+02
1.650000e-06	8.209345e-06	1.152631e-08	5.704150e+01	7.569743e+02
1.660000e-06	8.209254e-06	1.152898e-08	5.704087e+01	7.568265e+02
1.670000e-06	8.206547e-06	1.152124e-08	5.702206e+01	7.567039e+02
1.680000e-06	8.201077e-06	1.151815e-08	5.698405e+01	7.566054e+02
1.690000e-06	8.192822e-06	1.151165e-08	5.692669e+01	7.564407e+02
1.700000e-06	8.181784e-06	1.150096e-08	5.684999e+01	7.560804e+02
1.710000e-06	8.167818e-06	1.149760e-08	5.675296e+01	7.554465e+02
1.720000e-06	8.151244e-06	1.150963e-08	5.663779e+01	7.545811e+02
1.730000e-06	8.132347e-06	1.152258e-08	5.650649e+01	7.536383e+02
1.740000e-06	8.110733e-06	1.140912e-08	5.635630e+01	7.527960e+02
1.750000e-06	8.085637e-06	1.139717e-08	5.618193e+01	7.521398e+02
1.760000e-06	8.056638e-06	1.144673e-08	5.598044e+01	7.515987e+02
1.770000e-06	8.024221e-06	1.141408e-08	5.575519e+01	7.509800e+02
1.780000e-06	7.989372e-06	1.138275e-08	5.551304e+01	7.500876e+02
1.790000e-06	7.952202e-06	1.147427e-08	5.525478e+01	7.488483e+02
1.800000e-06	7.912931e-06	1.137951e-08	5.498191e+01	7.473638e+02
1.810000e-06	7.871632e-06	1.129484e-08	5.469495e+01	7.458516e+02
1.820000e-06	7.827513e-06	1.144538e-08	5.438839e+01	7.445106e+02
1.830000e-06	7.780637e-06	1.128318e-08	5.406268e+01	7.433984e+02
1.840000e-06	7.730872e-06	1.133972e-08	5.371689e+01	7.423957e+02
1.850000e-06	7.677770e-06	1.129872e-08	5.334792e+01	7.412790e+02
1.860000e-06	7.621824e-06	1.122146e-08	5.295919e+01	7.398489e+02
1.870000e-06	7.563178e-06	1.132732e-08	5.255169e+01	7.380330e+02
1.880000e-06	7.501817e-06	1.116760e-08	5.212534e+01	7.359004e+02
1.890000e-06	7.437715e-06	1.122461e-08	5.167994e+01	7.335909e+02
1.900000e-06	7.370834e-06	1.113366e-08	5.121522e+01	7.312137e+02
1.910000e-06	7.301266e-06	1.109543e-08	5.073184e+01	7.287867e+02
1.920000e-06	7.228796e-06	1.111980e-08	5.022829e+01	7.262515e+02
1.930000e-06	7.153600e-06	1.099381e-08	4.970580e+01	7.235409e+02
1.940000e-06	7.075639e-06	1.103280e-08	4.916410e+01	7.206453e+02
1.950000e-06	6.995059e-06	1.089505e-08	4.860420e+01	7.176251e+02
1.960000e-06	6.912151e-06	1.092677e-08	4.802813e+01	7.145639e+02
1.970000e-06	6.826617e-06	1.085980e-08	4.743380e+01	7.114996e+02
1.980000e-06	6.738544e-06	1.077487e-08	4.682184e+01	7.083855e+02
1.990000e-06	6.648150e-06	1.077237e-08	4.619375e+01	7.051111e+02
2.000000e-06	6.555506e-06	1.067522e-08	4.555003e+01	7.015672e+02
2.010000e-06	6.460491e-06	1.068408e-08	4.488983e+01	6.977099e+02
2.020000e-06	6.363174e-06	1.055743e-08	4.421364e+01	6.935809e+02
2.030000e-06	6.263700e-06	1.052258e-08	4.352245e+01	6.892741e+02
2.040000e-06	6.161870e-06	1.042837e-08	4.281490e+01	6.848731e+02
2.050000e-06	6.057728e-06	1.038283e-08	4.209129e+01	6.804041e+02
2.060000e-06	5.951500e-06	1.032557e-08	4.135317e+01	6.758301e+02
2.070000e-06	5.843263e-06	1.023348e-08	4.060110e+01	6.710832e+02
2.080000e-06	5.732847e-06	1.017480e-08	3.983389e+01	6.661069e+02
2.090000e-06	5.620205e-06	1.007198e-08	3.905121e+01	6.608777e+02
2.100000e-06	5.505386e-06	1.001469e-08	3.825341e+01	6.553966e+02
2.110000e-06	5.388421e-06	9.899161e-09	3.744070e+01	6.496662e+02
2.120000e-06	5.269376e-06	9.815275e-09	3.661353e+01	6.436767e+02
2.130000e-06	5.148491e-06	9.710853e-09	3.577358e+01	6.374135e+02
2.140000e-06	5.025840e-06	9.633360e-09	3.492135e+01	6.308786e+02
2.150000e-06	4.901352e-06	9.534812e-09	3.405637e+01	6.241028e+02
2.160000e-06	4.775048e-06	9.422423e-09	3.317876e+01	6.171324e+02
2.170000e-06	4.646971e-06	9.306620e-09	3.228884e+01	6.099940e+02
2.180000e-06	4.517264e-06	9.190577e-09	3.138758e+01	6.026621e+02
2.190000e-06	4.386006e-06	9.084993e-09	3.047556e+01	5.950534e+02
2.200000e-06	4.253227e-06	8.959979e-09	2.955296e+01	5.870593e+02
2.210000e-06	4.118815e-06	8.832228e-09	2.861902e+01	5.786004e+02
2.220000e-06	3.982887e-06	8.695034e-09	2.767454e+01	5.696683e+02
2.230000e-06	3.845509e-06	8.564265e-09	2.671998e+01	5.603300e+02
2.240000e-06	3.706725e-06	8.419656e-09	2.575566e+01	5.506870e+02
2.250000e-06	3.566622e-06	8.264306e-09	2.478218e+01	5.408135e+02
2.260000e-06	3.425078e-06	8.102383e-09	2.379868e+01	5.307079e+02
2.270000e-06	3.282172e-06	7.944066e-09	2.280572e+01	5.202852e+02
2.280000e-06	3.138091e-06	7.783036e-09	2.180459e+01	5.094135e+02
2.290000e-06	2.992930e-06	7.613376e-09	2.079596e+01	4.979739e+02
2.300000e-06	2.846694e-06	7.426896e-09	1.977986e+01	4.859103e+02
2.310000e-06	2.699453e-06	7.235785e-09	1.875678e+01	4.732443e+02
2.320000e-06	2.551358e-06	7.035996e-09	1.772776e+01	4.600507e+02
2.330000e-06	2.402405e-06	6.831146e-09	1.669278e+01	4.464091e+02
2.340000e-06	2.252547e-06	6.613854e-09	1.565151e+01	4.323573e+02
2.350000e-06	2.101832e-06	6.388415e-09	1.460429e+01	4.178693e+02
2.360000e-06	1.950332e-06	6.159807e-09	1.355161e+01	4.028629e+02
2.370000e-06	1.798185e-06	5.925885e-09	1.249444e+01	3.872309e+02
2.380000e-06	1.645496e-06	5.679809e-09	1.143350e+01	3.708772e+02
2.390000e-06	1.492199e-06	5.415526e-09	1.036834e+01	3.537415e+02
2.400000e-06	1.338323e-06	5.142258e-09	9.299154e+00	3.358041e+02
2.410000e-06	1.183991e-06	4.858608e-09	8.226795e+00	3.170714e+02
2.420000e-06	1.029202e-06	4.565584e-09	7.151265e+00	2.975520e+02
2.430000e-06	8.739971e-07	4.253797e-09	6.072848e+00	2.772327e+02
2.440000e-06	7.185503e-07	3.927812e-09	4.992747e+00	2.560653e+02
2.450000e-06	5.628988e-07	3.591692e-09	3.911224e+00	2.339669e+02
2.460000e-06	4.070247e-07	3.242392e-09	2.828155e+00	2.108322e+02
2.470000e-06	2.509976e-07	2.874723e-09	1.744022e+00	1.865518e+02
2.480000e-06	9.492826e-08	2.485086e-09	6.595959e-01	1.610301e+02
2.490000e-06	-6.112781e-08	2.075903e-09	-4.247381e-01	1.341958e+02
2.500000e-06	-2.171687e-07	1.648497e-09	-1.508966e+00	1.060028e+02
2.510000e-06	-3.731638e-07	1.201704e-09	-2.592877e+00	7.642548e+01
2.520000e-06	-5.290299e-07	7.302150e-10	-3.675891e+00	4.545460e+01
2.530000e-06	-6.846827e-07	2.335731e-10	-4.757423e+00	1.310446e+01
2.540000e-06	-8.400904e-07	-2.832755e-10	-5.837252e+00	-2.056386e+01
2.550000e-06	-9.951384e-07	-8.128502e-10	-6.914581e+00	-5.540619e+01
2.560000e-06	-1.149758e-06	-1.355295e-09	-7.988931e+00	-9.115954e+01
2.570000e-06	-1.303951e-06	-1.909735e-09	-9.060322e+00	-1.274263e+02
2.580000e-06	-1.457658e-06	-2.466375e-09	-1.012833e+01	-1.636948e+02
2.590000e-06	-1.610808e-06	-3.012211e-09	-1.119248e+01	-1.993991e+02
2.600000e-06	-1.763355e-06	-3.537255e-09	-1.225243e+01	-2.340032e+02
2.610000e-06	-1.915287e-06	-4.041585e-09	-1.330810e+01	-2.670802e+02
2.620000e-06	-2.066579e-06	-4.524812e-09	-1.435934e+01	-2.983594e+02
2.630000e-06	-2.217122e-06	-4.979461e-09	-1.540537e+01	-3.277252e+02
2.640000e-06	-2.366770e-06	-5.400480e-09	-1.644518e+01	-3.551762e+02
2.650000e-06	-2.515508e-06	-5.791427e-09	-1.747866e+01	-3.807699e+02
2.660000e-06	-2.663448e-06	-6.156672e-09	-1.850660e+01	-4.045804e+02
2.670000e-06	-2.810502e-06	-6.497777e-09	-1.952838e+01	-4.266835e+02
2.680000e-06	-2.956547e-06	-6.811494e-09	-2.054316e+01	-4.471653e+02
2.690000e-06	-3.101520e-06	-7.098447e-09	-2.155049e+01	-4.661342e+02
2.700000e-06	-3.245410e-06	-7.366434e-09	-2.255028e+01	-4.837195e+02
2.710000e-06	-3.388136e-06	-7.618660e-09	-2.354199e+01	-5.000529e+02
2.720000e-06	-3.529499e-06	-7.856846e-09	-2.452424e+01	-5.152462e+02
2.730000e-06	-3.669470e-06	-8.075877e-09	-2.549681e+01	-5.293832e+02
2.740000e-06	-3.808037e-06	-8.273979e-09	-2.645962e+01	-5.425332e+02
2.750000e-06	-3.945168e-06	-8.459739e-09	-2.741246e+01	-5.547776e+02
2.760000e-06	-4.080902e-06	-8.637792e-09	-2.835559e+01	-5.662254e+02
2.770000e-06	-4.215130e-06	-8.804484e-09	-2.928825e+01	-5.770028e+02
2.780000e-06	-4.347805e-06	-8.957217e-09	-3.021012e+01	-5.872187e+02
2.790000e-06	-4.478991e-06	-9.101570e-09	-3.112165e+01	-5.969267e+02
2.800000e-06	-4.608640e-06	-9.243949e-09	-3.202250e+01	-6.061147e+02
2.810000e-06	-4.736709e-06	-9.381270e-09	-3.291236e+01	-6.147330e+02
2.820000e-06	-4.863066e-06	-9.505601e-09	-3.379034e+01	-6.227494e+02
2.830000e-06	-4.987648e-06	-9.616140e-09	-3.465599e+01	-6.301962e+02
2.840000e-06	-5.110501e-06	-9.719478e-09	-3.550961e+01	-6.371795e+02
2.850000e-06	-5.231573e-06	-9.822239e-09	-3.635086e+01	-6.438397e+02
2.860000e-06	-5.350693e-06	-9.922528e-09	-3.717855e+01	-6.502875e+02
2.870000e-06	-5.467637e-06	-1.001747e-08	-3.799112e+01	-6.565535e+02
2.880000e-06	-5.582315e-06	-1.010737e-08	-3.878795e+01	-6.625839e+02
2.890000e-06	-5.694731e-06	-1.019424e-08	-3.956905e+01	-6.682843e+02
2.900000e-06	-5.804987e-06	-1.027907e-08	-4.033515e+01	-6.735851e+02
2.910000e-06	-5.913204e-06	-1.035825e-08	-4.108708e+01	-6.784895e+02
2.920000e-06	-6.019454e-06	-1.042926e-08	-4.182534e+01	-6.830775e+02
2.930000e-06	-6.123651e-06	-1.049506e-08	-4.254934e+01	-6.874662e+02
2.940000e-06	-6.225552e-06	-1.056199e-08	-4.325738e+01	-6.917535e+02
