# Temperatura_=_20.0
# Concentracion g/m^3_=_10000.0
# C_Vs_to_Am_M_A/Vsm_=_65563218390.804596
# pendiente_HvsI_1/m_=_3716.3
# ordenada_HvsI_A/m_=_1297.0
# frecuencia_Hz_=_301478.20331722894

Tiempo_(s)	Campo_(V.s)	Magnetizacion_(V.s)	Campo_(kA/m)	Magnetizacion_(A/m)
0.000000e+00	-8.186372e-06	-1.133849e-08	-5.690737e+01	-7.416796e+02
1.000000e-08	-8.184472e-06	-1.133668e-08	-5.689417e+01	-7.415552e+02
2.000000e-08	-8.179728e-06	-1.133587e-08	-5.686119e+01	-7.414861e+02
3.000000e-08	-8.172402e-06	-1.133555e-08	-5.681026e+01	-7.414187e+02
4.000000e-08	-8.162388e-06	-1.133415e-08	-5.674065e+01	-7.412373e+02
5.000000e-08	-8.149400e-06	-1.132939e-08	-5.665036e+01	-7.408268e+02
6.000000e-08	-8.133438e-06	-1.131911e-08	-5.653940e+01	-7.401444e+02
7.000000e-08	-8.114751e-06	-1.130463e-08	-5.640950e+01	-7.392557e+02
8.000000e-08	-8.093641e-06	-1.128952e-08	-5.626276e+01	-7.383080e+02
9.000000e-08	-8.069763e-06	-1.127263e-08	-5.609677e+01	-7.374513e+02
1.000000e-07	-8.042597e-06	-1.126949e-08	-5.590793e+01	-7.367540e+02
1.100000e-07	-8.012234e-06	-1.126997e-08	-5.569685e+01	-7.361642e+02
1.200000e-07	-7.978925e-06	-1.125725e-08	-5.546531e+01	-7.355406e+02
1.300000e-07	-7.942864e-06	-1.123884e-08	-5.521463e+01	-7.347353e+02
1.400000e-07	-7.904452e-06	-1.121991e-08	-5.494761e+01	-7.336783e+02
1.500000e-07	-7.863812e-06	-1.118019e-08	-5.466511e+01	-7.324120e+02
1.600000e-07	-7.820499e-06	-1.114732e-08	-5.436401e+01	-7.310574e+02
1.700000e-07	-7.774282e-06	-1.114246e-08	-5.404274e+01	-7.297359e+02
1.800000e-07	-7.725335e-06	-1.111348e-08	-5.370248e+01	-7.284958e+02
1.900000e-07	-7.673377e-06	-1.109212e-08	-5.334130e+01	-7.272863e+02
2.000000e-07	-7.618389e-06	-1.107741e-08	-5.295905e+01	-7.259903e+02
2.100000e-07	-7.560666e-06	-1.104583e-08	-5.255779e+01	-7.244899e+02
2.200000e-07	-7.500236e-06	-1.102922e-08	-5.213771e+01	-7.227214e+02
2.300000e-07	-7.437156e-06	-1.100127e-08	-5.169921e+01	-7.206918e+02
2.400000e-07	-7.371309e-06	-1.095732e-08	-5.124148e+01	-7.184545e+02
2.500000e-07	-7.302693e-06	-1.091585e-08	-5.076450e+01	-7.160694e+02
2.600000e-07	-7.231395e-06	-1.087383e-08	-5.026887e+01	-7.135760e+02
2.700000e-07	-7.157282e-06	-1.083738e-08	-4.975368e+01	-7.109928e+02
2.800000e-07	-7.080351e-06	-1.079665e-08	-4.921889e+01	-7.083305e+02
2.900000e-07	-7.000705e-06	-1.076265e-08	-4.866524e+01	-7.056008e+02
3.000000e-07	-6.918431e-06	-1.072464e-08	-4.809331e+01	-7.028078e+02
3.100000e-07	-6.833750e-06	-1.068534e-08	-4.750465e+01	-6.999290e+02
3.200000e-07	-6.746769e-06	-1.063980e-08	-4.690000e+01	-6.969073e+02
3.300000e-07	-6.657439e-06	-1.057458e-08	-4.627903e+01	-6.936680e+02
3.400000e-07	-6.565719e-06	-1.051754e-08	-4.564144e+01	-6.901579e+02
3.500000e-07	-6.471662e-06	-1.045864e-08	-4.498760e+01	-6.863811e+02
3.600000e-07	-6.375327e-06	-1.040483e-08	-4.431793e+01	-6.824051e+02
3.700000e-07	-6.276653e-06	-1.035103e-08	-4.363200e+01	-6.783268e+02
3.800000e-07	-6.175663e-06	-1.029304e-08	-4.292998e+01	-6.742153e+02
3.900000e-07	-6.072443e-06	-1.022801e-08	-4.221244e+01	-6.700676e+02
4.000000e-07	-5.967085e-06	-1.015849e-08	-4.148005e+01	-6.658043e+02
4.100000e-07	-5.859586e-06	-1.008656e-08	-4.073277e+01	-6.613113e+02
4.200000e-07	-5.749961e-06	-1.000290e-08	-3.997072e+01	-6.565012e+02
4.300000e-07	-5.638233e-06	-9.924438e-09	-3.919404e+01	-6.513567e+02
4.400000e-07	-5.524322e-06	-9.848591e-09	-3.840219e+01	-6.459308e+02
4.500000e-07	-5.408234e-06	-9.772067e-09	-3.759521e+01	-6.403062e+02
4.600000e-07	-5.290074e-06	-9.685455e-09	-3.677383e+01	-6.345425e+02
4.700000e-07	-5.170015e-06	-9.592626e-09	-3.593923e+01	-6.286433e+02
4.800000e-07	-5.048136e-06	-9.497602e-09	-3.509200e+01	-6.225617e+02
4.900000e-07	-4.924368e-06	-9.402597e-09	-3.423163e+01	-6.162347e+02
5.000000e-07	-4.798763e-06	-9.302054e-09	-3.335849e+01	-6.096194e+02
5.100000e-07	-4.671517e-06	-9.191582e-09	-3.247394e+01	-6.027084e+02
5.200000e-07	-4.542679e-06	-9.080577e-09	-3.157833e+01	-5.955163e+02
5.300000e-07	-4.412199e-06	-8.969318e-09	-3.067130e+01	-5.880523e+02
5.400000e-07	-4.280066e-06	-8.853872e-09	-2.975278e+01	-5.803017e+02
5.500000e-07	-4.146387e-06	-8.727600e-09	-2.882351e+01	-5.722280e+02
5.600000e-07	-4.011216e-06	-8.594676e-09	-2.788387e+01	-5.637931e+02
5.700000e-07	-3.874552e-06	-8.456282e-09	-2.693386e+01	-5.549787e+02
5.800000e-07	-3.736467e-06	-8.317569e-09	-2.597396e+01	-5.457927e+02
5.900000e-07	-3.596895e-06	-8.172942e-09	-2.500373e+01	-5.362562e+02
6.000000e-07	-3.455806e-06	-8.020005e-09	-2.402295e+01	-5.263817e+02
6.100000e-07	-3.313339e-06	-7.864326e-09	-2.303260e+01	-5.161570e+02
6.200000e-07	-3.169650e-06	-7.704543e-09	-2.203374e+01	-5.055458e+02
6.300000e-07	-3.024792e-06	-7.538786e-09	-2.102677e+01	-4.945022e+02
6.400000e-07	-2.878769e-06	-7.362997e-09	-2.001169e+01	-4.829870e+02
6.500000e-07	-2.731678e-06	-7.176732e-09	-1.898920e+01	-4.709774e+02
6.600000e-07	-2.583740e-06	-6.981709e-09	-1.796081e+01	-4.584644e+02
6.700000e-07	-2.435010e-06	-6.782635e-09	-1.692691e+01	-4.454449e+02
6.800000e-07	-2.285481e-06	-6.576606e-09	-1.588747e+01	-4.319145e+02
6.900000e-07	-2.135212e-06	-6.362632e-09	-1.484287e+01	-4.178650e+02
7.000000e-07	-1.984200e-06	-6.140304e-09	-1.379312e+01	-4.032839e+02
7.100000e-07	-1.832473e-06	-5.910979e-09	-1.273839e+01	-3.881508e+02
7.200000e-07	-1.680035e-06	-5.674640e-09	-1.167872e+01	-3.724310e+02
7.300000e-07	-1.526984e-06	-5.422786e-09	-1.061479e+01	-3.560705e+02
7.400000e-07	-1.373428e-06	-5.157178e-09	-9.547354e+00	-3.389997e+02
7.500000e-07	-1.219376e-06	-4.882239e-09	-8.476462e+00	-3.211477e+02
7.600000e-07	-1.064816e-06	-4.597370e-09	-7.402046e+00	-3.024602e+02
7.700000e-07	-9.097984e-07	-4.297956e-09	-6.324442e+00	-2.829090e+02
7.800000e-07	-7.543772e-07	-3.984664e-09	-5.244036e+00	-2.624850e+02
7.900000e-07	-5.986677e-07	-3.659449e-09	-4.161625e+00	-2.411750e+02
8.000000e-07	-4.427997e-07	-3.322051e-09	-3.078112e+00	-2.189378e+02
8.100000e-07	-2.867493e-07	-2.969246e-09	-1.993331e+00	-1.956926e+02
8.200000e-07	-1.305205e-07	-2.594812e-09	-9.073104e-01	-1.713298e+02
8.300000e-07	2.578669e-08	-2.200455e-09	1.792555e-01	-1.457371e+02
8.400000e-07	1.820801e-07	-1.787496e-09	1.265726e+00	-1.188268e+02
8.500000e-07	3.383115e-07	-1.354999e-09	2.351764e+00	-9.054929e+01
8.600000e-07	4.944753e-07	-9.015891e-10	3.437334e+00	-6.089133e+01
8.700000e-07	6.504831e-07	-4.266672e-10	4.521818e+00	-2.986901e+01
8.800000e-07	8.061668e-07	6.890265e-11	5.604049e+00	2.467826e+00
8.900000e-07	9.614947e-07	5.795521e-10	6.683808e+00	3.601241e+01
9.000000e-07	1.116399e-06	1.102851e-09	7.760622e+00	7.056687e+01
9.100000e-07	1.270718e-06	1.640317e-09	8.833364e+00	1.058174e+02
9.200000e-07	1.424461e-06	2.184430e-09	9.902105e+00	1.413395e+02
9.300000e-07	1.577697e-06	2.723949e-09	1.096732e+01	1.766390e+02
9.400000e-07	1.730460e-06	3.249674e-09	1.202925e+01	2.112188e+02
9.500000e-07	1.882665e-06	3.757792e-09	1.308730e+01	2.446435e+02
9.600000e-07	2.034215e-06	4.243004e-09	1.414080e+01	2.765813e+02
9.700000e-07	2.185013e-06	4.701786e-09	1.518907e+01	3.068137e+02
9.800000e-07	2.334960e-06	5.131442e-09	1.623142e+01	3.352201e+02
9.900000e-07	2.484089e-06	5.530517e-09	1.726808e+01	3.617561e+02
1.000000e-06	2.632417e-06	5.903915e-09	1.829918e+01	3.864373e+02
1.010000e-06	2.779855e-06	6.252787e-09	1.932410e+01	4.093318e+02
1.020000e-06	2.926265e-06	6.577910e-09	2.034186e+01	4.305522e+02
1.030000e-06	3.071634e-06	6.878321e-09	2.135239e+01	4.502396e+02
1.040000e-06	3.215824e-06	7.153996e-09	2.235473e+01	4.685372e+02
1.050000e-06	3.358717e-06	7.412520e-09	2.334804e+01	4.855655e+02
1.060000e-06	3.500422e-06	7.655227e-09	2.433310e+01	5.014106e+02
1.070000e-06	3.640877e-06	7.878977e-09	2.530947e+01	5.161351e+02
1.080000e-06	3.779909e-06	8.083369e-09	2.627595e+01	5.298025e+02
1.090000e-06	3.917472e-06	8.272107e-09	2.723221e+01	5.425004e+02
1.100000e-06	4.053568e-06	8.452817e-09	2.817828e+01	5.543444e+02
1.110000e-06	4.188182e-06	8.626037e-09	2.911405e+01	5.654588e+02
1.120000e-06	4.321338e-06	8.787815e-09	3.003968e+01	5.759444e+02
1.130000e-06	4.452959e-06	8.938150e-09	3.095464e+01	5.858539e+02
1.140000e-06	4.582916e-06	9.078666e-09	3.185803e+01	5.951920e+02
1.150000e-06	4.711222e-06	9.211533e-09	3.274995e+01	6.039416e+02
1.160000e-06	4.837896e-06	9.335814e-09	3.363052e+01	6.121004e+02
1.170000e-06	4.962919e-06	9.451684e-09	3.449962e+01	6.197080e+02
1.180000e-06	5.086187e-06	9.560409e-09	3.535651e+01	6.268456e+02
1.190000e-06	5.207618e-06	9.664721e-09	3.620064e+01	6.336090e+02
1.200000e-06	5.327160e-06	9.765896e-09	3.703162e+01	6.400728e+02
1.210000e-06	5.444723e-06	9.862303e-09	3.784886e+01	6.462663e+02
1.220000e-06	5.560208e-06	9.953298e-09	3.865166e+01	6.521753e+02
1.230000e-06	5.673505e-06	1.003676e-08	3.943923e+01	6.577685e+02
1.240000e-06	5.784679e-06	1.011450e-08	4.021206e+01	6.630303e+02
1.250000e-06	5.893895e-06	1.018646e-08	4.097128e+01	6.679813e+02
1.260000e-06	6.001101e-06	1.025441e-08	4.171652e+01	6.726745e+02
1.270000e-06	6.106085e-06	1.032217e-08	4.244630e+01	6.771711e+02
1.280000e-06	6.208842e-06	1.038740e-08	4.316062e+01	6.815115e+02
1.290000e-06	6.309354e-06	1.044916e-08	4.385933e+01	6.856986e+02
1.300000e-06	6.407502e-06	1.050891e-08	4.454160e+01	6.897028e+02
1.310000e-06	6.503305e-06	1.056510e-08	4.520757e+01	6.934847e+02
1.320000e-06	6.596871e-06	1.061784e-08	4.585799e+01	6.970218e+02
1.330000e-06	6.688201e-06	1.066756e-08	4.649287e+01	7.003239e+02
1.340000e-06	6.777190e-06	1.071514e-08	4.711148e+01	7.034303e+02
1.350000e-06	6.863756e-06	1.076074e-08	4.771324e+01	7.063909e+02
1.360000e-06	6.947922e-06	1.080470e-08	4.829832e+01	7.092429e+02
1.370000e-06	7.029635e-06	1.084603e-08	4.886634e+01	7.119941e+02
1.380000e-06	7.108797e-06	1.088323e-08	4.941664e+01	7.146222e+02
1.390000e-06	7.185345e-06	1.092048e-08	4.994876e+01	7.170891e+02
1.400000e-06	7.259192e-06	1.095832e-08	5.046210e+01	7.193636e+02
1.410000e-06	7.330447e-06	1.099151e-08	5.095743e+01	7.214414e+02
1.420000e-06	7.399185e-06	1.101877e-08	5.143526e+01	7.233525e+02
1.430000e-06	7.465181e-06	1.104416e-08	5.189403e+01	7.251518e+02
1.440000e-06	7.528451e-06	1.107171e-08	5.233385e+01	7.268962e+02
1.450000e-06	7.589229e-06	1.109962e-08	5.275634e+01	7.286184e+02
1.460000e-06	7.647368e-06	1.112393e-08	5.316050e+01	7.303097e+02
1.470000e-06	7.702775e-06	1.114667e-08	5.354566e+01	7.319225e+02
1.480000e-06	7.755196e-06	1.117046e-08	5.391006e+01	7.333938e+02
1.490000e-06	7.804378e-06	1.119274e-08	5.425195e+01	7.346773e+02
1.500000e-06	7.850673e-06	1.120923e-08	5.457377e+01	7.357697e+02
1.510000e-06	7.894280e-06	1.121943e-08	5.487690e+01	7.367144e+02
1.520000e-06	7.935031e-06	1.122878e-08	5.516018e+01	7.375796e+02
1.530000e-06	7.973002e-06	1.124185e-08	5.542414e+01	7.384231e+02
1.540000e-06	8.008225e-06	1.125602e-08	5.566898e+01	7.392632e+02
1.550000e-06	8.040550e-06	1.126678e-08	5.589369e+01	7.400733e+02
1.560000e-06	8.070171e-06	1.127570e-08	5.609960e+01	7.408042e+02
1.570000e-06	8.096961e-06	1.128645e-08	5.628583e+01	7.414170e+02
1.580000e-06	8.120731e-06	1.129757e-08	5.645107e+01	7.419079e+02
1.590000e-06	8.141763e-06	1.130458e-08	5.659727e+01	7.423055e+02
1.600000e-06	8.160019e-06	1.130622e-08	5.672418e+01	7.426443e+02
1.610000e-06	8.175201e-06	1.130718e-08	5.682972e+01	7.429351e+02
1.620000e-06	8.187205e-06	1.131053e-08	5.691316e+01	7.431540e+02
1.630000e-06	8.196108e-06	1.131288e-08	5.697505e+01	7.432613e+02
1.640000e-06	8.202151e-06	1.131220e-08	5.701706e+01	7.432385e+02
1.650000e-06	8.205361e-06	1.130794e-08	5.703937e+01	7.431148e+02
1.660000e-06	8.205667e-06	1.130590e-08	5.704150e+01	7.429603e+02
1.670000e-06	8.203258e-06	1.130811e-08	5.702476e+01	7.428436e+02
1.680000e-06	8.198158e-06	1.130754e-08	5.698930e+01	7.427796e+02
1.690000e-06	8.190312e-06	1.130412e-08	5.693476e+01	7.427035e+02
1.700000e-06	8.179678e-06	1.129837e-08	5.686084e+01	7.424952e+02
1.710000e-06	8.166119e-06	1.129257e-08	5.676658e+01	7.420458e+02
1.720000e-06	8.149897e-06	1.128345e-08	5.665381e+01	7.413271e+02
1.730000e-06	8.131307e-06	1.126702e-08	5.652459e+01	7.404196e+02
1.740000e-06	8.110155e-06	1.125272e-08	5.637755e+01	7.394765e+02
1.750000e-06	8.085732e-06	1.123661e-08	5.620778e+01	7.386408e+02
1.760000e-06	8.057365e-06	1.121619e-08	5.601058e+01	7.379645e+02
1.770000e-06	8.025440e-06	1.120983e-08	5.578866e+01	7.373794e+02
1.780000e-06	7.990904e-06	1.120429e-08	5.554858e+01	7.367375e+02
1.790000e-06	7.954111e-06	1.119713e-08	5.529282e+01	7.358977e+02
1.800000e-06	7.915206e-06	1.119762e-08	5.502237e+01	7.348055e+02
1.810000e-06	7.874229e-06	1.117836e-08	5.473752e+01	7.335179e+02
1.820000e-06	7.830649e-06	1.115232e-08	5.443457e+01	7.321614e+02
1.830000e-06	7.784252e-06	1.114940e-08	5.411204e+01	7.308506e+02
1.840000e-06	7.734932e-06	1.112407e-08	5.376920e+01	7.296198e+02
1.850000e-06	7.682324e-06	1.110811e-08	5.340349e+01	7.284056e+02
1.860000e-06	7.626721e-06	1.110088e-08	5.301697e+01	7.270866e+02
1.870000e-06	7.568420e-06	1.106019e-08	5.261169e+01	7.255497e+02
1.880000e-06	7.507519e-06	1.104375e-08	5.218834e+01	7.237418e+02
1.890000e-06	7.443901e-06	1.100934e-08	5.174610e+01	7.216784e+02
1.900000e-06	7.377427e-06	1.097635e-08	5.128401e+01	7.194163e+02
1.910000e-06	7.308271e-06	1.094675e-08	5.080327e+01	7.170135e+02
1.920000e-06	7.236278e-06	1.089653e-08	5.030282e+01	7.145063e+02
1.930000e-06	7.161519e-06	1.087131e-08	4.978313e+01	7.119109e+02
1.940000e-06	7.084028e-06	1.082108e-08	4.924445e+01	7.092379e+02
1.950000e-06	7.003859e-06	1.077724e-08	4.868716e+01	7.064990e+02
1.960000e-06	6.921304e-06	1.072499e-08	4.811328e+01	7.036956e+02
1.970000e-06	6.836266e-06	1.067931e-08	4.752214e+01	7.008004e+02
1.980000e-06	6.748677e-06	1.064755e-08	4.691327e+01	6.977519e+02
1.990000e-06	6.658640e-06	1.059398e-08	4.628738e+01	6.944759e+02
2.000000e-06	6.566336e-06	1.055672e-08	4.564573e+01	6.909255e+02
2.010000e-06	6.471750e-06	1.048763e-08	4.498822e+01	6.871146e+02
2.020000e-06	6.374778e-06	1.042428e-08	4.431412e+01	6.831177e+02
2.030000e-06	6.275575e-06	1.035359e-08	4.362451e+01	6.790315e+02
2.040000e-06	6.174134e-06	1.028727e-08	4.291935e+01	6.749168e+02
2.050000e-06	6.070394e-06	1.022529e-08	4.219820e+01	6.707586e+02
2.060000e-06	5.964527e-06	1.015972e-08	4.146227e+01	6.664691e+02
2.070000e-06	5.856647e-06	1.010500e-08	4.071234e+01	6.619346e+02
2.080000e-06	5.746595e-06	1.003135e-08	3.994732e+01	6.570756e+02
2.090000e-06	5.634318e-06	9.956000e-09	3.916683e+01	6.518861e+02
2.100000e-06	5.519884e-06	9.861713e-09	3.837134e+01	6.464264e+02
2.110000e-06	5.403396e-06	9.772832e-09	3.756158e+01	6.407792e+02
2.120000e-06	5.284868e-06	9.680589e-09	3.673764e+01	6.349970e+02
2.130000e-06	5.164306e-06	9.591221e-09	3.589955e+01	6.290752e+02
2.140000e-06	5.041871e-06	9.499842e-09	3.504845e+01	6.229620e+02
2.150000e-06	4.917682e-06	9.405617e-09	3.418515e+01	6.165953e+02
2.160000e-06	4.791734e-06	9.308540e-09	3.330963e+01	6.099372e+02
2.170000e-06	4.663973e-06	9.203867e-09	3.242150e+01	6.029847e+02
2.180000e-06	4.534570e-06	9.093200e-09	3.152196e+01	5.957532e+02
2.190000e-06	4.403660e-06	8.974879e-09	3.061194e+01	5.882496e+02
2.200000e-06	4.271243e-06	8.856352e-09	2.969145e+01	5.804551e+02
2.210000e-06	4.137264e-06	8.733738e-09	2.876009e+01	5.723316e+02
2.220000e-06	4.001629e-06	8.607832e-09	2.781723e+01	5.638426e+02
2.230000e-06	3.864441e-06	8.471361e-09	2.686357e+01	5.549738e+02
2.240000e-06	3.725910e-06	8.332341e-09	2.590058e+01	5.457361e+02
2.250000e-06	3.586065e-06	8.187583e-09	2.492845e+01	5.361508e+02
2.260000e-06	3.444876e-06	8.039723e-09	2.394697e+01	5.262273e+02
2.270000e-06	3.302317e-06	7.882505e-09	2.295598e+01	5.159498e+02
2.280000e-06	3.158450e-06	7.716779e-09	2.195589e+01	5.052794e+02
2.290000e-06	3.013509e-06	7.544684e-09	2.094834e+01	4.941701e+02
2.300000e-06	2.867545e-06	7.370130e-09	1.993367e+01	4.825850e+02
2.310000e-06	2.720575e-06	7.191132e-09	1.891201e+01	4.705035e+02
2.320000e-06	2.572693e-06	7.001010e-09	1.788401e+01	4.579181e+02
2.330000e-06	2.423933e-06	6.800291e-09	1.684991e+01	4.448257e+02
2.340000e-06	2.274326e-06	6.590973e-09	1.580992e+01	4.312214e+02
2.350000e-06	2.123886e-06	6.377446e-09	1.476415e+01	4.170966e+02
2.360000e-06	1.972619e-06	6.154753e-09	1.371262e+01	4.024378e+02
2.370000e-06	1.820567e-06	5.921759e-09	1.265563e+01	3.872232e+02
2.380000e-06	1.667858e-06	5.678582e-09	1.159407e+01	3.714153e+02
2.390000e-06	1.514592e-06	5.429825e-09	1.052865e+01	3.549575e+02
2.400000e-06	1.360869e-06	5.172131e-09	9.460048e+00	3.377790e+02
2.410000e-06	1.206708e-06	4.897494e-09	8.388402e+00	3.198101e+02
2.420000e-06	1.052081e-06	4.606548e-09	7.313515e+00	3.010000e+02
2.430000e-06	8.970050e-07	4.305440e-09	6.235509e+00	2.813242e+02
2.440000e-06	7.415730e-07	3.997476e-09	5.155027e+00	2.607745e+02
2.450000e-06	5.859396e-07	3.675019e-09	4.073145e+00	2.393353e+02
2.460000e-06	4.301379e-07	3.334089e-09	2.990093e+00	2.169596e+02
2.470000e-06	2.741564e-07	2.976737e-09	1.905792e+00	1.935616e+02
2.480000e-06	1.180698e-07	2.606936e-09	8.207597e-01	1.690293e+02
2.490000e-06	-3.800528e-08	2.218494e-09	-2.641928e-01	1.432526e+02
2.500000e-06	-1.940246e-07	1.803185e-09	-1.348758e+00	1.161488e+02
2.510000e-06	-3.499618e-07	1.363764e-09	-2.432751e+00	8.767393e+01
2.520000e-06	-5.057955e-07	9.072806e-10	-3.516025e+00	5.781914e+01
2.530000e-06	-6.614256e-07	4.355547e-10	-4.597884e+00	2.660469e+01
2.540000e-06	-8.167876e-07	-5.699976e-11	-5.677880e+00	-5.913250e+00
2.550000e-06	-9.718637e-07	-5.699561e-10	-6.755887e+00	-3.961704e+01
2.560000e-06	-1.126529e-06	-1.097358e-09	-7.831038e+00	-7.429326e+01
2.570000e-06	-1.280742e-06	-1.634092e-09	-8.903048e+00	-1.096111e+02
2.580000e-06	-1.434502e-06	-2.176658e-09	-9.971907e+00	-1.451327e+02
2.590000e-06	-1.587695e-06	-2.717786e-09	-1.103682e+01	-1.803594e+02
2.600000e-06	-1.740304e-06	-3.247121e-09	-1.209768e+01	-2.147990e+02
2.610000e-06	-1.892374e-06	-3.755582e-09	-1.315479e+01	-2.480292e+02
2.620000e-06	-2.043791e-06	-4.238318e-09	-1.420736e+01	-2.797346e+02
2.630000e-06	-2.194442e-06	-4.695543e-09	-1.525461e+01	-3.097117e+02
2.640000e-06	-2.344184e-06	-5.127823e-09	-1.629554e+01	-3.378524e+02
2.650000e-06	-2.492960e-06	-5.533232e-09	-1.732975e+01	-3.641215e+02
2.660000e-06	-2.640934e-06	-5.908033e-09	-1.835839e+01	-3.885424e+02
2.670000e-06	-2.788060e-06	-6.254167e-09	-1.938113e+01	-4.111902e+02
2.680000e-06	-2.934154e-06	-6.576503e-09	-2.039670e+01	-4.321830e+02
2.690000e-06	-3.079168e-06	-6.877122e-09	-2.140477e+01	-4.516636e+02
2.700000e-06	-3.223131e-06	-7.155871e-09	-2.240552e+01	-4.697736e+02
2.710000e-06	-3.365972e-06	-7.413206e-09	-2.339848e+01	-4.866286e+02
2.720000e-06	-3.507492e-06	-7.653357e-09	-2.438225e+01	-5.023104e+02
2.730000e-06	-3.647655e-06	-7.878297e-09	-2.535658e+01	-5.168799e+02
2.740000e-06	-3.786371e-06	-8.085220e-09	-2.632087e+01	-5.304030e+02
2.750000e-06	-3.923588e-06	-8.274826e-09	-2.727473e+01	-5.429716e+02
2.760000e-06	-4.059486e-06	-8.454299e-09	-2.821942e+01	-5.547042e+02
2.770000e-06	-4.193984e-06	-8.623552e-09	-2.915438e+01	-5.657239e+02
2.780000e-06	-4.326894e-06	-8.780311e-09	-3.007830e+01	-5.761254e+02
2.790000e-06	-4.458225e-06	-8.928138e-09	-3.099125e+01	-5.859542e+02
2.800000e-06	-4.588034e-06	-9.070734e-09	-3.189361e+01	-5.952097e+02
2.810000e-06	-4.716267e-06	-9.206969e-09	-3.278502e+01	-6.038745e+02
2.820000e-06	-4.842825e-06	-9.332919e-09	-3.366478e+01	-6.119513e+02
2.830000e-06	-4.967644e-06	-9.446432e-09	-3.453246e+01	-6.194864e+02
2.840000e-06	-5.090643e-06	-9.550250e-09	-3.538748e+01	-6.265651e+02
2.850000e-06	-5.211857e-06	-9.650441e-09	-3.623010e+01	-6.332823e+02
2.860000e-06	-5.331231e-06	-9.747799e-09	-3.705992e+01	-6.397072e+02
2.870000e-06	-5.448490e-06	-9.841542e-09	-3.787505e+01	-6.458619e+02
2.880000e-06	-5.563510e-06	-9.930593e-09	-3.867461e+01	-6.517280e+02
2.890000e-06	-5.676263e-06	-1.001550e-08	-3.945841e+01	-6.572744e+02
2.900000e-06	-5.786741e-06	-1.009742e-08	-4.022640e+01	-6.624899e+02
2.910000e-06	-5.895133e-06	-1.017596e-08	-4.097988e+01	-6.674005e+02
2.920000e-06	-6.001600e-06	-1.024924e-08	-4.171998e+01	-6.720624e+02
2.930000e-06	-6.106078e-06	-1.031819e-08	-4.244626e+01	-6.765353e+02
2.940000e-06	-6.208345e-06	-1.038504e-08	-4.315716e+01	-6.808548e+02
