# Temperatura_=_20.0
# Concentracion g/m^3_=_10000.0
# C_Vs_to_Am_M_A/Vsm_=_65563218390.804596
# pendiente_HvsI_1/m_=_3716.3
# ordenada_HvsI_A/m_=_1297.0
# frecuencia_Hz_=_301483.4016353684

Tiempo_(s)	Campo_(V.s)	Magnetizacion_(V.s)	Campo_(kA/m)	Magnetizacion_(A/m)
0.000000e+00	-8.182334e-06	-1.149502e-08	-5.689158e+01	-7.523362e+02
1.000000e-08	-8.177863e-06	-1.149590e-08	-5.686050e+01	-7.523383e+02
2.000000e-08	-8.170815e-06	-1.149488e-08	-5.681149e+01	-7.523094e+02
3.000000e-08	-8.161072e-06	-1.149027e-08	-5.674375e+01	-7.520882e+02
4.000000e-08	-8.148446e-06	-1.147958e-08	-5.665596e+01	-7.515529e+02
5.000000e-08	-8.132782e-06	-1.146693e-08	-5.654705e+01	-7.507059e+02
6.000000e-08	-8.114316e-06	-1.145362e-08	-5.641865e+01	-7.496895e+02
7.000000e-08	-8.093476e-06	-1.143299e-08	-5.627375e+01	-7.487141e+02
8.000000e-08	-8.069930e-06	-1.143002e-08	-5.611004e+01	-7.479382e+02
9.000000e-08	-8.043070e-06	-1.144475e-08	-5.592328e+01	-7.473731e+02
1.000000e-07	-8.012953e-06	-1.143059e-08	-5.571388e+01	-7.468753e+02
1.100000e-07	-7.979951e-06	-1.140712e-08	-5.548442e+01	-7.462328e+02
1.200000e-07	-7.944170e-06	-1.139490e-08	-5.523563e+01	-7.452933e+02
1.300000e-07	-7.905946e-06	-1.137250e-08	-5.496986e+01	-7.440520e+02
1.400000e-07	-7.865528e-06	-1.130265e-08	-5.468883e+01	-7.426458e+02
1.500000e-07	-7.822552e-06	-1.129245e-08	-5.439002e+01	-7.412593e+02
1.600000e-07	-7.776705e-06	-1.130588e-08	-5.407125e+01	-7.400078e+02
1.700000e-07	-7.728064e-06	-1.123545e-08	-5.373305e+01	-7.388690e+02
1.800000e-07	-7.676427e-06	-1.125291e-08	-5.337402e+01	-7.377064e+02
1.900000e-07	-7.621758e-06	-1.123829e-08	-5.299391e+01	-7.363577e+02
2.000000e-07	-7.564297e-06	-1.118748e-08	-5.259438e+01	-7.347270e+02
2.100000e-07	-7.504128e-06	-1.118115e-08	-5.217603e+01	-7.328201e+02
2.200000e-07	-7.441375e-06	-1.114192e-08	-5.173971e+01	-7.307093e+02
2.300000e-07	-7.375833e-06	-1.111716e-08	-5.128400e+01	-7.284620e+02
2.400000e-07	-7.307408e-06	-1.106331e-08	-5.080824e+01	-7.260927e+02
2.500000e-07	-7.236360e-06	-1.102374e-08	-5.031425e+01	-7.235710e+02
2.600000e-07	-7.162598e-06	-1.098246e-08	-4.980138e+01	-7.208728e+02
2.700000e-07	-7.086082e-06	-1.093595e-08	-4.926937e+01	-7.180290e+02
2.800000e-07	-7.006835e-06	-1.090606e-08	-4.871836e+01	-7.151244e+02
2.900000e-07	-6.924835e-06	-1.085544e-08	-4.814822e+01	-7.122427e+02
3.000000e-07	-6.840424e-06	-1.082694e-08	-4.756131e+01	-7.093943e+02
3.100000e-07	-6.753802e-06	-1.077856e-08	-4.695903e+01	-7.064830e+02
3.200000e-07	-6.664865e-06	-1.072064e-08	-4.634065e+01	-7.033440e+02
3.300000e-07	-6.573508e-06	-1.066163e-08	-4.570545e+01	-6.998341e+02
3.400000e-07	-6.479790e-06	-1.059199e-08	-4.505383e+01	-6.959192e+02
3.500000e-07	-6.383790e-06	-1.053308e-08	-4.438634e+01	-6.917001e+02
3.600000e-07	-6.285460e-06	-1.047412e-08	-4.370266e+01	-6.873576e+02
3.700000e-07	-6.184832e-06	-1.041953e-08	-4.300300e+01	-6.830476e+02
3.800000e-07	-6.082030e-06	-1.035228e-08	-4.228821e+01	-6.788120e+02
3.900000e-07	-5.976968e-06	-1.028739e-08	-4.155772e+01	-6.745555e+02
4.000000e-07	-5.869678e-06	-1.021744e-08	-4.081174e+01	-6.701022e+02
4.100000e-07	-5.760372e-06	-1.013750e-08	-4.005174e+01	-6.652927e+02
4.200000e-07	-5.649032e-06	-1.005312e-08	-3.927759e+01	-6.600631e+02
4.300000e-07	-5.535503e-06	-9.965211e-09	-3.848823e+01	-6.544640e+02
4.400000e-07	-5.419711e-06	-9.879316e-09	-3.768312e+01	-6.486144e+02
4.500000e-07	-5.301796e-06	-9.793206e-09	-3.686327e+01	-6.426268e+02
4.600000e-07	-5.181983e-06	-9.704834e-09	-3.603021e+01	-6.365481e+02
4.700000e-07	-5.060334e-06	-9.609911e-09	-3.518439e+01	-6.303465e+02
4.800000e-07	-4.936826e-06	-9.515767e-09	-3.432564e+01	-6.239431e+02
4.900000e-07	-4.811560e-06	-9.415531e-09	-3.345467e+01	-6.172592e+02
5.000000e-07	-4.684607e-06	-9.303208e-09	-3.257197e+01	-6.102507e+02
5.100000e-07	-4.556043e-06	-9.181708e-09	-3.167807e+01	-6.029124e+02
5.200000e-07	-4.425856e-06	-9.060363e-09	-3.077288e+01	-5.952575e+02
5.300000e-07	-4.293966e-06	-8.941280e-09	-2.985585e+01	-5.872927e+02
5.400000e-07	-4.160463e-06	-8.821340e-09	-2.892760e+01	-5.790053e+02
5.500000e-07	-4.025509e-06	-8.695596e-09	-2.798927e+01	-5.703694e+02
5.600000e-07	-3.889179e-06	-8.559211e-09	-2.704137e+01	-5.613626e+02
5.700000e-07	-3.751355e-06	-8.415738e-09	-2.608309e+01	-5.519809e+02
5.800000e-07	-3.611957e-06	-8.265640e-09	-2.511386e+01	-5.422395e+02
5.900000e-07	-3.471087e-06	-8.104775e-09	-2.413439e+01	-5.321603e+02
6.000000e-07	-3.328867e-06	-7.936742e-09	-2.314553e+01	-5.217511e+02
6.100000e-07	-3.185334e-06	-7.767585e-09	-2.214756e+01	-5.109889e+02
6.200000e-07	-3.040545e-06	-7.599286e-09	-2.114084e+01	-4.998173e+02
6.300000e-07	-2.894637e-06	-7.430534e-09	-2.012634e+01	-4.881607e+02
6.400000e-07	-2.747718e-06	-7.248723e-09	-1.910482e+01	-4.759493e+02
6.500000e-07	-2.599869e-06	-7.052482e-09	-1.807683e+01	-4.631458e+02
6.600000e-07	-2.451267e-06	-6.847641e-09	-1.704360e+01	-4.497585e+02
6.700000e-07	-2.301960e-06	-6.636379e-09	-1.600548e+01	-4.358335e+02
6.800000e-07	-2.151800e-06	-6.416122e-09	-1.496141e+01	-4.214259e+02
6.900000e-07	-2.000807e-06	-6.183937e-09	-1.391156e+01	-4.065635e+02
7.000000e-07	-1.849099e-06	-5.945000e-09	-1.285674e+01	-3.912192e+02
7.100000e-07	-1.696749e-06	-5.703176e-09	-1.179746e+01	-3.753082e+02
7.200000e-07	-1.543823e-06	-5.452408e-09	-1.073416e+01	-3.587127e+02
7.300000e-07	-1.390314e-06	-5.185405e-09	-9.666820e+00	-3.413223e+02
7.400000e-07	-1.236236e-06	-4.905587e-09	-8.595517e+00	-3.230696e+02
7.500000e-07	-1.081637e-06	-4.614709e-09	-7.520600e+00	-3.039414e+02
7.600000e-07	-9.265903e-07	-4.311795e-09	-6.442561e+00	-2.839596e+02
7.700000e-07	-7.711922e-07	-3.995492e-09	-5.362082e+00	-2.631429e+02
7.800000e-07	-6.155161e-07	-3.663386e-09	-4.279670e+00	-2.414703e+02
7.900000e-07	-4.595814e-07	-3.315225e-09	-3.195459e+00	-2.188648e+02
8.000000e-07	-3.034567e-07	-2.952823e-09	-2.109927e+00	-1.952064e+02
8.100000e-07	-1.472402e-07	-2.572958e-09	-1.023758e+00	-1.703627e+02
8.200000e-07	9.019046e-09	-2.173309e-09	6.270922e-02	-1.442223e+02
8.300000e-07	1.652929e-07	-1.753602e-09	1.149278e+00	-1.167121e+02
8.400000e-07	3.215113e-07	-1.311811e-09	2.235461e+00	-8.779742e+01
8.500000e-07	4.775524e-07	-8.506394e-10	3.320411e+00	-5.747179e+01
8.600000e-07	6.334099e-07	-3.670991e-10	4.404085e+00	-2.575306e+01
8.700000e-07	7.890063e-07	1.405432e-10	5.485943e+00	7.302811e+00
8.800000e-07	9.442173e-07	6.677263e-10	6.565121e+00	4.157148e+01
8.900000e-07	1.099048e-06	1.206018e-09	7.641659e+00	7.682687e+01
9.000000e-07	1.253484e-06	1.751501e-09	8.715446e+00	1.127242e+02
9.100000e-07	1.407457e-06	2.301878e-09	9.786016e+00	1.488136e+02
9.200000e-07	1.560863e-06	2.847560e-09	1.085265e+01	1.845863e+02
9.300000e-07	1.713672e-06	3.379189e-09	1.191512e+01	2.195384e+02
9.400000e-07	1.865837e-06	3.889746e-09	1.297312e+01	2.532326e+02
9.500000e-07	2.017351e-06	4.375076e-09	1.402659e+01	2.853380e+02
9.600000e-07	2.168143e-06	4.834755e-09	1.507505e+01	3.156405e+02
9.700000e-07	2.318105e-06	5.266744e-09	1.611773e+01	3.440295e+02
9.800000e-07	2.467299e-06	5.668142e-09	1.715507e+01	3.704762e+02
9.900000e-07	2.615665e-06	6.038850e-09	1.818666e+01	3.950152e+02
1.000000e-06	2.763116e-06	6.381402e-09	1.921188e+01	4.177350e+02
1.010000e-06	2.909606e-06	6.700659e-09	2.023042e+01	4.387695e+02
1.020000e-06	3.054985e-06	6.997532e-09	2.124124e+01	4.582817e+02
1.030000e-06	3.199259e-06	7.272021e-09	2.224438e+01	4.764357e+02
1.040000e-06	3.342388e-06	7.527441e-09	2.323955e+01	4.933643e+02
1.050000e-06	3.484251e-06	7.768679e-09	2.422592e+01	5.091507e+02
1.060000e-06	3.624805e-06	7.993218e-09	2.520319e+01	5.238353e+02
1.070000e-06	3.763938e-06	8.198157e-09	2.617057e+01	5.374488e+02
1.080000e-06	3.901601e-06	8.387139e-09	2.712774e+01	5.500537e+02
1.090000e-06	4.037775e-06	8.564350e-09	2.807456e+01	5.617654e+02
1.100000e-06	4.172489e-06	8.733319e-09	2.901122e+01	5.727390e+02
1.110000e-06	4.305773e-06	8.892350e-09	2.993794e+01	5.831239e+02
1.120000e-06	4.437500e-06	9.041296e-09	3.085384e+01	5.930126e+02
1.130000e-06	4.567603e-06	9.183514e-09	3.175844e+01	6.024172e+02
1.140000e-06	4.696059e-06	9.318767e-09	3.265159e+01	6.112907e+02
1.150000e-06	4.822865e-06	9.445173e-09	3.353327e+01	6.195813e+02
1.160000e-06	4.948058e-06	9.562158e-09	3.440373e+01	6.272879e+02
1.170000e-06	5.071547e-06	9.669396e-09	3.526235e+01	6.344812e+02
1.180000e-06	5.193179e-06	9.772569e-09	3.610805e+01	6.412774e+02
1.190000e-06	5.312896e-06	9.874669e-09	3.694044e+01	6.477817e+02
1.200000e-06	5.430667e-06	9.972527e-09	3.775930e+01	6.540402e+02
1.210000e-06	5.546329e-06	1.006383e-08	3.856350e+01	6.600312e+02
1.220000e-06	5.659768e-06	1.014854e-08	3.935224e+01	6.657017e+02
1.230000e-06	5.771108e-06	1.022947e-08	4.012638e+01	6.710224e+02
1.240000e-06	5.880511e-06	1.030463e-08	4.088706e+01	6.760240e+02
1.250000e-06	5.987873e-06	1.037377e-08	4.163355e+01	6.807885e+02
1.260000e-06	6.093048e-06	1.044022e-08	4.236483e+01	6.854033e+02
1.270000e-06	6.196066e-06	1.050557e-08	4.308110e+01	6.899084e+02
1.280000e-06	6.296879e-06	1.057001e-08	4.378205e+01	6.942753e+02
1.290000e-06	6.395306e-06	1.063227e-08	4.446641e+01	6.984302e+02
1.300000e-06	6.491321e-06	1.068959e-08	4.513401e+01	7.023074e+02
1.310000e-06	6.585131e-06	1.074243e-08	4.578626e+01	7.058959e+02
1.320000e-06	6.676708e-06	1.079401e-08	4.642300e+01	7.092501e+02
1.330000e-06	6.765900e-06	1.084457e-08	4.704315e+01	7.124584e+02
1.340000e-06	6.852737e-06	1.089311e-08	4.764692e+01	7.155911e+02
1.350000e-06	6.937225e-06	1.093893e-08	4.823437e+01	7.186631e+02
1.360000e-06	7.019261e-06	1.098231e-08	4.880476e+01	7.216314e+02
1.370000e-06	7.098746e-06	1.102390e-08	4.935742e+01	7.244262e+02
1.380000e-06	7.175588e-06	1.106423e-08	4.989170e+01	7.269942e+02
1.390000e-06	7.249693e-06	1.110131e-08	5.040695e+01	7.293274e+02
1.400000e-06	7.321158e-06	1.113333e-08	5.090384e+01	7.314628e+02
1.410000e-06	7.390098e-06	1.116195e-08	5.138318e+01	7.334613e+02
1.420000e-06	7.456376e-06	1.119099e-08	5.184401e+01	7.353785e+02
1.430000e-06	7.519963e-06	1.122173e-08	5.228613e+01	7.372450e+02
1.440000e-06	7.580992e-06	1.125005e-08	5.271047e+01	7.390621e+02
1.450000e-06	7.639360e-06	1.127535e-08	5.311630e+01	7.408080e+02
1.460000e-06	7.694989e-06	1.130119e-08	5.350308e+01	7.424497e+02
1.470000e-06	7.747696e-06	1.132721e-08	5.386955e+01	7.439559e+02
1.480000e-06	7.797208e-06	1.134924e-08	5.421381e+01	7.453085e+02
1.490000e-06	7.843815e-06	1.136573e-08	5.453786e+01	7.465114e+02
1.500000e-06	7.887785e-06	1.137863e-08	5.484359e+01	7.475907e+02
1.510000e-06	7.928903e-06	1.139278e-08	5.512948e+01	7.485846e+02
1.520000e-06	7.967166e-06	1.140929e-08	5.539553e+01	7.495244e+02
1.530000e-06	8.002679e-06	1.142424e-08	5.564244e+01	7.504175e+02
1.540000e-06	8.035339e-06	1.143665e-08	5.586953e+01	7.512442e+02
1.550000e-06	8.065229e-06	1.144777e-08	5.607735e+01	7.519734e+02
1.560000e-06	8.092299e-06	1.145922e-08	5.626557e+01	7.525859e+02
1.570000e-06	8.116391e-06	1.146847e-08	5.643308e+01	7.530899e+02
1.580000e-06	8.137699e-06	1.147366e-08	5.658124e+01	7.535133e+02
1.590000e-06	8.156253e-06	1.147620e-08	5.671024e+01	7.538780e+02
1.600000e-06	8.171785e-06	1.147894e-08	5.681824e+01	7.541756e+02
1.610000e-06	8.184157e-06	1.148206e-08	5.690425e+01	7.543682e+02
1.620000e-06	8.193408e-06	1.148345e-08	5.696858e+01	7.544179e+02
1.630000e-06	8.199736e-06	1.148203e-08	5.701258e+01	7.543285e+02
1.640000e-06	8.203224e-06	1.148015e-08	5.703683e+01	7.541636e+02
1.650000e-06	8.203896e-06	1.148258e-08	5.704150e+01	7.540197e+02
1.660000e-06	8.201881e-06	1.148438e-08	5.702749e+01	7.539627e+02
1.670000e-06	8.197103e-06	1.148170e-08	5.699427e+01	7.539696e+02
1.680000e-06	8.189497e-06	1.147747e-08	5.694138e+01	7.539183e+02
1.690000e-06	8.179164e-06	1.147165e-08	5.686954e+01	7.536471e+02
1.700000e-06	8.165979e-06	1.146417e-08	5.677786e+01	7.530515e+02
1.710000e-06	8.150023e-06	1.145451e-08	5.666692e+01	7.521604e+02
1.720000e-06	8.131662e-06	1.144800e-08	5.653926e+01	7.511356e+02
1.730000e-06	8.110771e-06	1.143255e-08	5.639401e+01	7.501875e+02
1.740000e-06	8.086652e-06	1.139356e-08	5.622630e+01	7.494532e+02
1.750000e-06	8.058669e-06	1.138532e-08	5.603174e+01	7.489141e+02
1.760000e-06	8.027092e-06	1.138681e-08	5.581219e+01	7.484058e+02
1.770000e-06	7.992862e-06	1.136766e-08	5.557419e+01	7.477178e+02
1.780000e-06	7.956326e-06	1.136765e-08	5.532015e+01	7.467199e+02
1.790000e-06	7.917633e-06	1.138919e-08	5.505112e+01	7.454360e+02
1.800000e-06	7.876911e-06	1.132207e-08	5.476798e+01	7.440202e+02
1.810000e-06	7.833555e-06	1.131033e-08	5.446653e+01	7.426529e+02
1.820000e-06	7.787429e-06	1.133002e-08	5.414581e+01	7.414270e+02
1.830000e-06	7.738487e-06	1.127309e-08	5.380552e+01	7.402961e+02
1.840000e-06	7.686248e-06	1.129642e-08	5.344231e+01	7.391111e+02
1.850000e-06	7.630980e-06	1.125399e-08	5.305803e+01	7.377160e+02
1.860000e-06	7.573054e-06	1.122872e-08	5.265527e+01	7.360327e+02
1.870000e-06	7.512499e-06	1.121800e-08	5.223423e+01	7.340832e+02
1.880000e-06	7.449203e-06	1.115555e-08	5.179414e+01	7.319441e+02
1.890000e-06	7.383063e-06	1.114222e-08	5.133427e+01	7.296756e+02
1.900000e-06	7.314199e-06	1.108693e-08	5.085546e+01	7.272819e+02
1.910000e-06	7.242489e-06	1.107077e-08	5.035686e+01	7.247291e+02
1.920000e-06	7.168012e-06	1.103478e-08	4.983903e+01	7.220007e+02
1.930000e-06	7.090825e-06	1.097775e-08	4.930235e+01	7.191387e+02
1.940000e-06	7.010972e-06	1.093970e-08	4.874713e+01	7.162332e+02
1.950000e-06	6.928730e-06	1.086513e-08	4.817530e+01	7.133596e+02
1.960000e-06	6.843936e-06	1.084720e-08	4.758573e+01	7.105097e+02
1.970000e-06	6.756539e-06	1.079191e-08	4.697806e+01	7.075705e+02
1.980000e-06	6.666759e-06	1.074547e-08	4.635382e+01	7.043735e+02
1.990000e-06	6.574759e-06	1.070072e-08	4.571415e+01	7.007896e+02
2.000000e-06	6.480461e-06	1.064094e-08	4.505849e+01	6.968094e+02
2.010000e-06	6.383761e-06	1.058782e-08	4.438614e+01	6.925541e+02
2.020000e-06	6.284831e-06	1.050353e-08	4.369829e+01	6.882082e+02
2.030000e-06	6.183637e-06	1.043887e-08	4.299469e+01	6.839125e+02
2.040000e-06	6.080127e-06	1.036225e-08	4.227498e+01	6.796835e+02
2.050000e-06	5.974471e-06	1.030967e-08	4.154036e+01	6.754055e+02
2.060000e-06	5.866759e-06	1.024203e-08	4.079144e+01	6.708982e+02
2.070000e-06	5.756951e-06	1.016516e-08	4.002795e+01	6.660147e+02
2.080000e-06	5.645044e-06	1.008704e-08	3.924986e+01	6.607125e+02
2.090000e-06	5.530966e-06	1.000203e-08	3.845668e+01	6.550590e+02
2.100000e-06	5.414693e-06	9.920570e-09	3.764824e+01	6.491777e+02
2.110000e-06	5.296283e-06	9.821486e-09	3.682494e+01	6.431727e+02
2.120000e-06	5.175919e-06	9.722497e-09	3.598805e+01	6.370762e+02
2.130000e-06	5.053778e-06	9.620454e-09	3.513880e+01	6.308449e+02
2.140000e-06	4.929790e-06	9.529948e-09	3.427672e+01	6.243963e+02
2.150000e-06	4.803947e-06	9.432149e-09	3.340173e+01	6.176563e+02
2.160000e-06	4.676363e-06	9.328894e-09	3.251464e+01	6.105883e+02
2.170000e-06	4.547186e-06	9.216781e-09	3.161648e+01	6.031923e+02
2.180000e-06	4.416485e-06	9.100829e-09	3.070772e+01	5.954819e+02
2.190000e-06	4.284227e-06	8.979437e-09	2.978813e+01	5.874609e+02
2.200000e-06	4.150335e-06	8.846388e-09	2.885718e+01	5.791132e+02
2.210000e-06	4.014835e-06	8.707172e-09	2.791505e+01	5.704122e+02
2.220000e-06	3.877849e-06	8.564510e-09	2.696260e+01	5.613380e+02
2.230000e-06	3.739455e-06	8.425825e-09	2.600034e+01	5.518904e+02
2.240000e-06	3.599694e-06	8.283833e-09	2.502859e+01	5.420871e+02
2.250000e-06	3.458561e-06	8.134966e-09	2.404730e+01	5.319491e+02
2.260000e-06	3.316067e-06	7.976624e-09	2.305654e+01	5.214794e+02
2.270000e-06	3.172343e-06	7.811940e-09	2.205723e+01	5.106489e+02
2.280000e-06	3.027545e-06	7.639713e-09	2.105045e+01	4.993964e+02
2.290000e-06	2.881734e-06	7.457334e-09	2.003663e+01	4.876451e+02
2.300000e-06	2.734931e-06	7.263683e-09	1.901591e+01	4.753293e+02
2.310000e-06	2.587197e-06	7.063444e-09	1.798872e+01	4.624195e+02
2.320000e-06	2.438603e-06	6.861135e-09	1.695555e+01	4.489320e+02
2.330000e-06	2.289075e-06	6.653192e-09	1.591589e+01	4.349169e+02
2.340000e-06	2.138568e-06	6.434920e-09	1.486941e+01	4.204272e+02
2.350000e-06	1.987310e-06	6.206542e-09	1.381772e+01	4.054825e+02
2.360000e-06	1.835466e-06	5.971060e-09	1.276196e+01	3.900445e+02
2.370000e-06	1.683008e-06	5.727873e-09	1.170192e+01	3.740202e+02
2.380000e-06	1.529889e-06	5.472892e-09	1.063728e+01	3.572898e+02
2.390000e-06	1.376190e-06	5.203083e-09	9.568621e+00	3.397487e+02
2.400000e-06	1.222057e-06	4.919167e-09	8.496937e+00	3.213391e+02
2.410000e-06	1.067500e-06	4.624626e-09	7.422304e+00	3.020563e+02
2.420000e-06	9.126064e-07	4.319053e-09	6.345331e+00	2.819247e+02
2.430000e-06	7.574339e-07	4.001178e-09	5.266420e+00	2.609581e+02
2.440000e-06	6.019766e-07	3.669403e-09	4.185529e+00	2.391260e+02
2.450000e-06	4.462730e-07	3.324575e-09	3.102926e+00	2.163420e+02
2.460000e-06	2.903750e-07	2.965346e-09	2.018971e+00	1.924813e+02
2.470000e-06	1.343903e-07	2.586470e-09	9.344125e-01	1.674131e+02
2.480000e-06	-2.163261e-08	2.182413e-09	-1.504111e-01	1.410321e+02
2.490000e-06	-1.775865e-07	1.753616e-09	-1.234755e+00	1.132726e+02
2.500000e-06	-3.333451e-07	1.305644e-09	-2.317741e+00	8.410567e+01
2.510000e-06	-4.890028e-07	8.394717e-10	-3.400025e+00	5.352904e+01
2.520000e-06	-6.444906e-07	3.524837e-10	-4.481128e+00	2.156581e+01
2.530000e-06	-7.996528e-07	-1.549231e-10	-5.559967e+00	-1.171840e+01
2.540000e-06	-9.545324e-07	-6.768092e-10	-6.636842e+00	-4.618332e+01
2.550000e-06	-1.109098e-06	-1.210559e-09	-7.711535e+00	-8.158214e+01
2.560000e-06	-1.263328e-06	-1.755637e-09	-8.783892e+00	-1.175493e+02
2.570000e-06	-1.417130e-06	-2.309607e-09	-9.853272e+00	-1.536204e+02
2.580000e-06	-1.570315e-06	-2.862210e-09	-1.091837e+01	-1.892824e+02
2.590000e-06	-1.722932e-06	-3.398646e-09	-1.197951e+01	-2.240394e+02
2.600000e-06	-1.875047e-06	-3.909814e-09	-1.303716e+01	-2.574708e+02
2.610000e-06	-2.026458e-06	-4.394498e-09	-1.408991e+01	-2.892668e+02
2.620000e-06	-2.177012e-06	-4.853400e-09	-1.513671e+01	-3.192332e+02
2.630000e-06	-2.326771e-06	-5.283392e-09	-1.617798e+01	-3.472756e+02
2.640000e-06	-2.475725e-06	-5.681706e-09	-1.721366e+01	-3.733776e+02
2.650000e-06	-2.623784e-06	-6.050101e-09	-1.824311e+01	-3.975839e+02
2.660000e-06	-2.770945e-06	-6.393988e-09	-1.926631e+01	-4.199919e+02
2.670000e-06	-2.917197e-06	-6.715944e-09	-2.028320e+01	-4.407423e+02
2.680000e-06	-3.062379e-06	-7.014355e-09	-2.129265e+01	-4.600006e+02
2.690000e-06	-3.206449e-06	-7.289856e-09	-2.229437e+01	-4.779274e+02
2.700000e-06	-3.349360e-06	-7.547283e-09	-2.328802e+01	-4.946476e+02
2.710000e-06	-3.490998e-06	-7.788530e-09	-2.427283e+01	-5.102352e+02
2.720000e-06	-3.631257e-06	-8.010510e-09	-2.524805e+01	-5.247259e+02
2.730000e-06	-3.770055e-06	-8.211583e-09	-2.621310e+01	-5.381535e+02
2.740000e-06	-3.907473e-06	-8.396524e-09	-2.716857e+01	-5.505889e+02
2.750000e-06	-4.043546e-06	-8.573445e-09	-2.811468e+01	-5.621570e+02
2.760000e-06	-4.178138e-06	-8.742683e-09	-2.905050e+01	-5.730158e+02
2.770000e-06	-4.311169e-06	-8.901360e-09	-2.997546e+01	-5.833076e+02
2.780000e-06	-4.442658e-06	-9.051008e-09	-3.088970e+01	-5.931113e+02
2.790000e-06	-4.572570e-06	-9.195119e-09	-3.179298e+01	-6.024257e+02
2.800000e-06	-4.700951e-06	-9.333126e-09	-3.268560e+01	-6.111981e+02
2.810000e-06	-4.827671e-06	-9.458320e-09	-3.356669e+01	-6.193826e+02
2.820000e-06	-4.952584e-06	-9.569634e-09	-3.443520e+01	-6.269905e+02
2.830000e-06	-5.075723e-06	-9.674030e-09	-3.529138e+01	-6.341040e+02
2.840000e-06	-5.197139e-06	-9.776024e-09	-3.613559e+01	-6.408417e+02
2.850000e-06	-5.316666e-06	-9.875462e-09	-3.696666e+01	-6.473010e+02
2.860000e-06	-5.434094e-06	-9.971975e-09	-3.778313e+01	-6.535150e+02
2.870000e-06	-5.549353e-06	-1.006445e-08	-3.858452e+01	-6.594528e+02
2.880000e-06	-5.662285e-06	-1.015121e-08	-3.936973e+01	-6.650616e+02
2.890000e-06	-5.772901e-06	-1.023231e-08	-4.013885e+01	-6.703213e+02
2.900000e-06	-5.881482e-06	-1.030985e-08	-4.089381e+01	-6.752738e+02
2.910000e-06	-5.988165e-06	-1.038331e-08	-4.163558e+01	-6.800061e+02
2.920000e-06	-6.092876e-06	-1.045324e-08	-4.236363e+01	-6.846004e+02
2.930000e-06	-6.195360e-06	-1.052221e-08	-4.307620e+01	-6.890849e+02
2.940000e-06	-6.295501e-06	-1.059079e-08	-4.377247e+01	-6.934200e+02
