# Temperatura_=_20.0
# Concentracion g/m^3_=_10000.0
# C_Vs_to_Am_M_A/Vsm_=_65563218390.804596
# pendiente_HvsI_1/m_=_3716.3
# ordenada_HvsI_A/m_=_1297.0
# frecuencia_Hz_=_301495.50704890996

Tiempo_(s)	Campo_(V.s)	Magnetizacion_(V.s)	Campo_(kA/m)	Magnetizacion_(A/m)
0.000000e+00	-8.183951e-06	-9.976654e-10	-5.690404e+01	-6.510267e+01
1.000000e-08	-8.181927e-06	-1.001790e-09	-5.688997e+01	-6.514352e+01
2.000000e-08	-8.177135e-06	-1.004618e-09	-5.685665e+01	-6.531766e+01
3.000000e-08	-8.169785e-06	-1.008349e-09	-5.680554e+01	-6.550502e+01
4.000000e-08	-8.159692e-06	-1.010126e-09	-5.673536e+01	-6.557042e+01
5.000000e-08	-8.146727e-06	-1.006909e-09	-5.664522e+01	-6.544565e+01
6.000000e-08	-8.130794e-06	-9.990651e-10	-5.653444e+01	-6.517205e+01
7.000000e-08	-8.112128e-06	-9.906398e-10	-5.640465e+01	-6.487304e+01
8.000000e-08	-8.091081e-06	-1.019608e-09	-5.625830e+01	-6.467188e+01
9.000000e-08	-8.067228e-06	-1.059468e-09	-5.609245e+01	-6.460755e+01
1.000000e-07	-8.040045e-06	-9.977258e-10	-5.590345e+01	-6.460551e+01
1.100000e-07	-8.009631e-06	-9.576296e-10	-5.569197e+01	-6.452498e+01
1.200000e-07	-7.976252e-06	-9.855826e-10	-5.545989e+01	-6.425246e+01
1.300000e-07	-7.940110e-06	-9.767677e-10	-5.520858e+01	-6.377858e+01
1.400000e-07	-7.901674e-06	-9.301183e-10	-5.494133e+01	-6.320539e+01
1.500000e-07	-7.861060e-06	-9.765501e-10	-5.465894e+01	-6.267808e+01
1.600000e-07	-7.817753e-06	-1.008765e-09	-5.435782e+01	-6.228728e+01
1.700000e-07	-7.771541e-06	-8.908069e-10	-5.403650e+01	-6.200913e+01
1.800000e-07	-7.722477e-06	-9.805403e-10	-5.369536e+01	-6.172489e+01
1.900000e-07	-7.670357e-06	-9.581549e-10	-5.333296e+01	-6.130672e+01
2.000000e-07	-7.615345e-06	-8.943552e-10	-5.295046e+01	-6.071034e+01
2.100000e-07	-7.557581e-06	-9.378433e-10	-5.254881e+01	-6.000958e+01
2.200000e-07	-7.497078e-06	-8.802568e-10	-5.212813e+01	-5.934819e+01
2.300000e-07	-7.434024e-06	-9.212901e-10	-5.168970e+01	-5.884127e+01
2.400000e-07	-7.368232e-06	-9.027408e-10	-5.123225e+01	-5.849399e+01
2.500000e-07	-7.299617e-06	-8.899235e-10	-5.075516e+01	-5.819395e+01
2.600000e-07	-7.228274e-06	-8.833672e-10	-5.025910e+01	-5.778322e+01
2.700000e-07	-7.154158e-06	-8.651856e-10	-4.974376e+01	-5.716225e+01
2.800000e-07	-7.077230e-06	-8.569195e-10	-4.920887e+01	-5.635634e+01
2.900000e-07	-6.997493e-06	-8.229183e-10	-4.865445e+01	-5.550115e+01
3.000000e-07	-6.915161e-06	-8.502478e-10	-4.808199e+01	-5.475755e+01
3.100000e-07	-6.830474e-06	-8.278273e-10	-4.749315e+01	-5.421173e+01
3.200000e-07	-6.743529e-06	-8.279577e-10	-4.688861e+01	-5.382396e+01
3.300000e-07	-6.654249e-06	-8.430763e-10	-4.626783e+01	-5.345558e+01
3.400000e-07	-6.562536e-06	-8.059772e-10	-4.563014e+01	-5.295289e+01
3.500000e-07	-6.468508e-06	-7.966986e-10	-4.497635e+01	-5.223318e+01
3.600000e-07	-6.372197e-06	-7.801801e-10	-4.430669e+01	-5.132180e+01
3.700000e-07	-6.273570e-06	-7.655045e-10	-4.362093e+01	-5.032443e+01
3.800000e-07	-6.172617e-06	-7.478839e-10	-4.291898e+01	-4.935970e+01
3.900000e-07	-6.069368e-06	-7.435371e-10	-4.220108e+01	-4.849692e+01
4.000000e-07	-5.963974e-06	-7.362791e-10	-4.146827e+01	-4.773323e+01
4.100000e-07	-5.856495e-06	-7.275086e-10	-4.072095e+01	-4.701399e+01
4.200000e-07	-5.746951e-06	-7.232921e-10	-3.995927e+01	-4.627391e+01
4.300000e-07	-5.635288e-06	-7.022504e-10	-3.918287e+01	-4.546954e+01
4.400000e-07	-5.521439e-06	-6.828097e-10	-3.839126e+01	-4.458744e+01
4.500000e-07	-5.405474e-06	-6.624450e-10	-3.758494e+01	-4.363337e+01
4.600000e-07	-5.287435e-06	-6.456751e-10	-3.676420e+01	-4.261891e+01
4.700000e-07	-5.167398e-06	-6.330762e-10	-3.592957e+01	-4.155810e+01
4.800000e-07	-5.045504e-06	-6.186135e-10	-3.508202e+01	-4.047311e+01
4.900000e-07	-4.921770e-06	-6.079179e-10	-3.422169e+01	-3.939780e+01
5.000000e-07	-4.796233e-06	-5.983109e-10	-3.334881e+01	-3.836937e+01
5.100000e-07	-4.668990e-06	-5.836957e-10	-3.246407e+01	-3.740941e+01
5.200000e-07	-4.540065e-06	-5.618894e-10	-3.156764e+01	-3.650655e+01
5.300000e-07	-4.409519e-06	-5.397315e-10	-3.065994e+01	-3.561476e+01
5.400000e-07	-4.277356e-06	-5.234363e-10	-2.974100e+01	-3.467179e+01
5.500000e-07	-4.143704e-06	-5.062837e-10	-2.881170e+01	-3.362893e+01
5.600000e-07	-4.008503e-06	-4.928277e-10	-2.787163e+01	-3.247531e+01
5.700000e-07	-3.871762e-06	-4.744459e-10	-2.692085e+01	-3.124310e+01
5.800000e-07	-3.733682e-06	-4.559997e-10	-2.596076e+01	-2.999124e+01
5.900000e-07	-3.594093e-06	-4.386870e-10	-2.499018e+01	-2.877761e+01
6.000000e-07	-3.452892e-06	-4.224683e-10	-2.400840e+01	-2.763415e+01
6.100000e-07	-3.310280e-06	-4.056798e-10	-2.301679e+01	-2.655623e+01
6.200000e-07	-3.166503e-06	-3.863783e-10	-2.201710e+01	-2.550855e+01
6.300000e-07	-3.021584e-06	-3.704863e-10	-2.100946e+01	-2.444235e+01
6.400000e-07	-2.875519e-06	-3.537436e-10	-1.999384e+01	-2.331550e+01
6.500000e-07	-2.728487e-06	-3.359757e-10	-1.897151e+01	-2.210811e+01
6.600000e-07	-2.580624e-06	-3.128036e-10	-1.794340e+01	-2.082944e+01
6.700000e-07	-2.431918e-06	-2.921823e-10	-1.690943e+01	-1.951428e+01
6.800000e-07	-2.282353e-06	-2.745719e-10	-1.586949e+01	-1.820996e+01
6.900000e-07	-2.132028e-06	-2.596701e-10	-1.482426e+01	-1.695752e+01
7.000000e-07	-1.980936e-06	-2.429238e-10	-1.377370e+01	-1.577409e+01
7.100000e-07	-1.829075e-06	-2.244720e-10	-1.271779e+01	-1.464442e+01
7.200000e-07	-1.676528e-06	-2.054501e-10	-1.165711e+01	-1.352682e+01
7.300000e-07	-1.523369e-06	-1.850968e-10	-1.059218e+01	-1.237195e+01
7.400000e-07	-1.369734e-06	-1.660394e-10	-9.523932e+00	-1.114571e+01
7.500000e-07	-1.215670e-06	-1.424895e-10	-8.452707e+00	-9.844203e+00
7.600000e-07	-1.061218e-06	-1.212723e-10	-7.378786e+00	-8.492817e+00
7.700000e-07	-9.064286e-07	-1.020788e-10	-6.302513e+00	-7.130254e+00
7.800000e-07	-7.512586e-07	-8.690795e-11	-5.223595e+00	-5.787386e+00
7.900000e-07	-5.957726e-07	-6.938690e-11	-4.142482e+00	-4.473397e+00
8.000000e-07	-4.400757e-07	-4.648946e-11	-3.059902e+00	-3.176624e+00
8.100000e-07	-2.842186e-07	-2.264117e-11	-1.976208e+00	-1.877909e+00
8.200000e-07	-1.281813e-07	1.117206e-12	-8.912609e-01	-5.664648e-01
8.300000e-07	2.798154e-08	2.238728e-11	1.945592e-01	7.525839e-01
8.400000e-07	1.841200e-07	4.376294e-11	1.280210e+00	2.063634e+00
8.500000e-07	3.401183e-07	6.291035e-11	2.364886e+00	3.354650e+00
8.600000e-07	4.959326e-07	7.938761e-11	3.448282e+00	4.629794e+00
8.700000e-07	6.514958e-07	9.374745e-11	4.529932e+00	5.911633e+00
8.800000e-07	8.067759e-07	1.133011e-10	5.609615e+00	7.230762e+00
8.900000e-07	9.617528e-07	1.375894e-10	6.687189e+00	8.608595e+00
9.000000e-07	1.116402e-06	1.624088e-10	7.762484e+00	1.004334e+01
9.100000e-07	1.270742e-06	1.867842e-10	8.835629e+00	1.150742e+01
9.200000e-07	1.424641e-06	2.109528e-10	9.905711e+00	1.295828e+01
9.300000e-07	1.578011e-06	2.340907e-10	1.097211e+01	1.435727e+01
9.400000e-07	1.730834e-06	2.521152e-10	1.203471e+01	1.568718e+01
9.500000e-07	1.883082e-06	2.664413e-10	1.309330e+01	1.695957e+01
9.600000e-07	2.034637e-06	2.801342e-10	1.414709e+01	1.820811e+01
9.700000e-07	2.185395e-06	2.992048e-10	1.519532e+01	1.947098e+01
9.800000e-07	2.335427e-06	3.220750e-10	1.623852e+01	2.077107e+01
9.900000e-07	2.484657e-06	3.450600e-10	1.727613e+01	2.210392e+01
1.000000e-06	2.632876e-06	3.665365e-10	1.830672e+01	2.344001e+01
1.010000e-06	2.780086e-06	3.857511e-10	1.933029e+01	2.474059e+01
1.020000e-06	2.926366e-06	4.053187e-10	2.034739e+01	2.597868e+01
1.030000e-06	3.071637e-06	4.252610e-10	2.135748e+01	2.715391e+01
1.040000e-06	3.215746e-06	4.422739e-10	2.235948e+01	2.829231e+01
1.050000e-06	3.358717e-06	4.565347e-10	2.335358e+01	2.943112e+01
1.060000e-06	3.500471e-06	4.716601e-10	2.433922e+01	3.059723e+01
1.070000e-06	3.640815e-06	4.905238e-10	2.531505e+01	3.179214e+01
1.080000e-06	3.779749e-06	5.102478e-10	2.628107e+01	3.299239e+01
1.090000e-06	3.917312e-06	5.275545e-10	2.723757e+01	3.416490e+01
1.100000e-06	4.053430e-06	5.441922e-10	2.818401e+01	3.528697e+01
1.110000e-06	4.188065e-06	5.632952e-10	2.912015e+01	3.635827e+01
1.120000e-06	4.321200e-06	5.830455e-10	3.004585e+01	3.739734e+01
1.130000e-06	4.452706e-06	5.988318e-10	3.096022e+01	3.842622e+01
1.140000e-06	4.582620e-06	6.113445e-10	3.186353e+01	3.945425e+01
1.150000e-06	4.710962e-06	6.237440e-10	3.275591e+01	4.047265e+01
1.160000e-06	4.837678e-06	6.372553e-10	3.363699e+01	4.146318e+01
1.170000e-06	4.962704e-06	6.510394e-10	3.450630e+01	4.241397e+01
1.180000e-06	5.085919e-06	6.651063e-10	3.536303e+01	4.333067e+01
1.190000e-06	5.207341e-06	6.801745e-10	3.620730e+01	4.423415e+01
1.200000e-06	5.326910e-06	6.970253e-10	3.703868e+01	4.514638e+01
1.210000e-06	5.444445e-06	7.134757e-10	3.785591e+01	4.607392e+01
1.220000e-06	5.559837e-06	7.283352e-10	3.865825e+01	4.700088e+01
1.230000e-06	5.673081e-06	7.390835e-10	3.944565e+01	4.789633e+01
1.240000e-06	5.784241e-06	7.493612e-10	4.021856e+01	4.873146e+01
1.250000e-06	5.893405e-06	7.593101e-10	4.097759e+01	4.949603e+01
1.260000e-06	6.000517e-06	7.678754e-10	4.172235e+01	5.020442e+01
1.270000e-06	6.105413e-06	7.777984e-10	4.245171e+01	5.088885e+01
1.280000e-06	6.208097e-06	7.882693e-10	4.316568e+01	5.158455e+01
1.290000e-06	6.308583e-06	7.997794e-10	4.386437e+01	5.231522e+01
1.300000e-06	6.406767e-06	8.129463e-10	4.454706e+01	5.308447e+01
1.310000e-06	6.502583e-06	8.265551e-10	4.521328e+01	5.387512e+01
1.320000e-06	6.596084e-06	8.379725e-10	4.586340e+01	5.465492e+01
1.330000e-06	6.687308e-06	8.474546e-10	4.649770e+01	5.538660e+01
1.340000e-06	6.776165e-06	8.557507e-10	4.711553e+01	5.604076e+01
1.350000e-06	6.862702e-06	8.636758e-10	4.771723e+01	5.660871e+01
1.360000e-06	6.946934e-06	8.705023e-10	4.830291e+01	5.711005e+01
1.370000e-06	7.028682e-06	8.754955e-10	4.887132e+01	5.758876e+01
1.380000e-06	7.107874e-06	8.810480e-10	4.942194e+01	5.809541e+01
1.390000e-06	7.184477e-06	8.915488e-10	4.995457e+01	5.866118e+01
1.400000e-06	7.258328e-06	9.053994e-10	5.046807e+01	5.927702e+01
1.410000e-06	7.329481e-06	9.162608e-10	5.096281e+01	5.989205e+01
1.420000e-06	7.398110e-06	9.222480e-10	5.143999e+01	6.043604e+01
1.430000e-06	7.464089e-06	9.267773e-10	5.189875e+01	6.085660e+01
1.440000e-06	7.527353e-06	9.326708e-10	5.233864e+01	6.115062e+01
1.450000e-06	7.588044e-06	9.377024e-10	5.276063e+01	6.137072e+01
1.460000e-06	7.646111e-06	9.396980e-10	5.316438e+01	6.160120e+01
1.470000e-06	7.701437e-06	9.412234e-10	5.354906e+01	6.191588e+01
1.480000e-06	7.753763e-06	9.475956e-10	5.391289e+01	6.234122e+01
1.490000e-06	7.802863e-06	9.575944e-10	5.425429e+01	6.284482e+01
1.500000e-06	7.849089e-06	9.660147e-10	5.457570e+01	6.335363e+01
1.510000e-06	7.892646e-06	9.707693e-10	5.487856e+01	6.378978e+01
1.520000e-06	7.933333e-06	9.733844e-10	5.516147e+01	6.410386e+01
1.530000e-06	7.971213e-06	9.768521e-10	5.542485e+01	6.429070e+01
1.540000e-06	8.006399e-06	9.794990e-10	5.566950e+01	6.438509e+01
1.550000e-06	8.038777e-06	9.791196e-10	5.589463e+01	6.444504e+01
1.560000e-06	8.068349e-06	9.786786e-10	5.610025e+01	6.453208e+01
1.570000e-06	8.095076e-06	9.809441e-10	5.628608e+01	6.469330e+01
1.580000e-06	8.118854e-06	9.860535e-10	5.645141e+01	6.494585e+01
1.590000e-06	8.139877e-06	9.910226e-10	5.659759e+01	6.526551e+01
1.600000e-06	8.158104e-06	9.934481e-10	5.672433e+01	6.558640e+01
1.610000e-06	8.173318e-06	9.961590e-10	5.683011e+01	6.581961e+01
1.620000e-06	8.185364e-06	1.000158e-09	5.691386e+01	6.589107e+01
1.630000e-06	8.194243e-06	1.000302e-09	5.697560e+01	6.578357e+01
1.640000e-06	8.200261e-06	9.950468e-10	5.701745e+01	6.555782e+01
1.650000e-06	8.203429e-06	9.894272e-10	5.703947e+01	6.533259e+01
1.660000e-06	8.203720e-06	9.880682e-10	5.704150e+01	6.522647e+01
1.670000e-06	8.201351e-06	9.862345e-10	5.702502e+01	6.529079e+01
1.680000e-06	8.196257e-06	9.882524e-10	5.698960e+01	6.547525e+01
1.690000e-06	8.188399e-06	9.889857e-10	5.693497e+01	6.565252e+01
1.700000e-06	8.177797e-06	9.905050e-10	5.686126e+01	6.569233e+01
1.710000e-06	8.164261e-06	9.949008e-10	5.676714e+01	6.554103e+01
1.720000e-06	8.148031e-06	1.001041e-09	5.665428e+01	6.525500e+01
1.730000e-06	8.129445e-06	9.890042e-10	5.652505e+01	6.496343e+01
1.740000e-06	8.108223e-06	9.120319e-10	5.637749e+01	6.478192e+01
1.750000e-06	8.083623e-06	9.421605e-10	5.620645e+01	6.473324e+01
1.760000e-06	8.055116e-06	9.943021e-10	5.600823e+01	6.472886e+01
1.770000e-06	8.023116e-06	9.765856e-10	5.578574e+01	6.462582e+01
1.780000e-06	7.988591e-06	9.819353e-10	5.554568e+01	6.432199e+01
1.790000e-06	7.951837e-06	1.025654e-09	5.529012e+01	6.382545e+01
1.800000e-06	7.912918e-06	9.233943e-10	5.501951e+01	6.324997e+01
1.810000e-06	7.871907e-06	9.247884e-10	5.473436e+01	6.273876e+01
1.820000e-06	7.828247e-06	1.002043e-09	5.443079e+01	6.236813e+01
1.830000e-06	7.781801e-06	8.812959e-10	5.410784e+01	6.209752e+01
1.840000e-06	7.732409e-06	9.684516e-10	5.376441e+01	6.180068e+01
1.850000e-06	7.679729e-06	9.076347e-10	5.339813e+01	6.135680e+01
1.860000e-06	7.624154e-06	9.037192e-10	5.301170e+01	6.073827e+01
1.870000e-06	7.565847e-06	9.766973e-10	5.260629e+01	6.003365e+01
1.880000e-06	7.504927e-06	8.606127e-10	5.218270e+01	5.938903e+01
1.890000e-06	7.441310e-06	9.147530e-10	5.174037e+01	5.890748e+01
1.900000e-06	7.374809e-06	8.583951e-10	5.127798e+01	5.857576e+01
1.910000e-06	7.305624e-06	8.903486e-10	5.079693e+01	5.826911e+01
1.920000e-06	7.233649e-06	8.995739e-10	5.029647e+01	5.783173e+01
1.930000e-06	7.158890e-06	8.517364e-10	4.977667e+01	5.717945e+01
1.940000e-06	7.081352e-06	8.942911e-10	4.923753e+01	5.635626e+01
1.950000e-06	7.001178e-06	8.116643e-10	4.868008e+01	5.550773e+01
1.960000e-06	6.918605e-06	8.725974e-10	4.810593e+01	5.478964e+01
1.970000e-06	6.833477e-06	8.123939e-10	4.751403e+01	5.427159e+01
1.980000e-06	6.745841e-06	7.912775e-10	4.690468e+01	5.389628e+01
1.990000e-06	6.655834e-06	8.118950e-10	4.627885e+01	5.351706e+01
2.000000e-06	6.563561e-06	7.903835e-10	4.563726e+01	5.298581e+01
2.010000e-06	6.468976e-06	8.233670e-10	4.497961e+01	5.223452e+01
2.020000e-06	6.372073e-06	7.649988e-10	4.430583e+01	5.130307e+01
2.030000e-06	6.272876e-06	7.773252e-10	4.361610e+01	5.030351e+01
2.040000e-06	6.171379e-06	7.388198e-10	4.291038e+01	4.935056e+01
2.050000e-06	6.067697e-06	7.490963e-10	4.218946e+01	4.850352e+01
2.060000e-06	5.961873e-06	7.225536e-10	4.145366e+01	4.775003e+01
2.070000e-06	5.853955e-06	6.956399e-10	4.070329e+01	4.703135e+01
2.080000e-06	5.743918e-06	6.899377e-10	3.993819e+01	4.628383e+01
2.090000e-06	5.631713e-06	6.780187e-10	3.915801e+01	4.546835e+01
2.100000e-06	5.517262e-06	6.910311e-10	3.836222e+01	4.457517e+01
2.110000e-06	5.400694e-06	6.628998e-10	3.755171e+01	4.361153e+01
2.120000e-06	5.282129e-06	6.532556e-10	3.672731e+01	4.258928e+01
2.130000e-06	5.161618e-06	6.257280e-10	3.588938e+01	4.152318e+01
2.140000e-06	5.039257e-06	6.194661e-10	3.503859e+01	4.043707e+01
2.150000e-06	4.915089e-06	5.912180e-10	3.417523e+01	3.936612e+01
2.160000e-06	4.789103e-06	5.718376e-10	3.329924e+01	3.834657e+01
2.170000e-06	4.661352e-06	5.554734e-10	3.241097e+01	3.739615e+01
2.180000e-06	4.531993e-06	5.506278e-10	3.151152e+01	3.649815e+01
2.190000e-06	4.401011e-06	5.487028e-10	3.060078e+01	3.560269e+01
2.200000e-06	4.268508e-06	5.349602e-10	2.967947e+01	3.464754e+01
2.210000e-06	4.134501e-06	5.155002e-10	2.874771e+01	3.358827e+01
2.220000e-06	3.998894e-06	4.930697e-10	2.780481e+01	3.242037e+01
2.230000e-06	3.861723e-06	4.800077e-10	2.685105e+01	3.118125e+01
2.240000e-06	3.723115e-06	4.596193e-10	2.588729e+01	2.993150e+01
2.250000e-06	3.583205e-06	4.367630e-10	2.491448e+01	2.872655e+01
2.260000e-06	3.442042e-06	4.152282e-10	2.393295e+01	2.759338e+01
2.270000e-06	3.299551e-06	4.033611e-10	2.294219e+01	2.652228e+01
2.280000e-06	3.155705e-06	3.917758e-10	2.194202e+01	2.547480e+01
2.290000e-06	3.010712e-06	3.761229e-10	2.093386e+01	2.440193e+01
2.300000e-06	2.864750e-06	3.541452e-10	1.991897e+01	2.326394e+01
2.310000e-06	2.717837e-06	3.367446e-10	1.889746e+01	2.204492e+01
2.320000e-06	2.569954e-06	3.202197e-10	1.786922e+01	2.075823e+01
2.330000e-06	2.421190e-06	3.035061e-10	1.683484e+01	1.944146e+01
2.340000e-06	2.271644e-06	2.792965e-10	1.579503e+01	1.814223e+01
2.350000e-06	2.121325e-06	2.545129e-10	1.474984e+01	1.689912e+01
2.360000e-06	1.970127e-06	2.352846e-10	1.369854e+01	1.572486e+01
2.370000e-06	1.818104e-06	2.219166e-10	1.264150e+01	1.459969e+01
2.380000e-06	1.665434e-06	2.077294e-10	1.157997e+01	1.347947e+01
2.390000e-06	1.512238e-06	1.890793e-10	1.051478e+01	1.231569e+01
2.400000e-06	1.358573e-06	1.722232e-10	9.446326e+00	1.107796e+01
2.410000e-06	1.204441e-06	1.556455e-10	8.374633e+00	9.767039e+00
2.420000e-06	1.049767e-06	1.374445e-10	7.299160e+00	8.411448e+00
2.430000e-06	8.946182e-07	1.122329e-10	6.220393e+00	7.050025e+00
2.440000e-06	7.392713e-07	8.680641e-11	5.140246e+00	5.711090e+00
2.450000e-06	5.837053e-07	6.558091e-11	4.058577e+00	4.400433e+00
2.460000e-06	4.278745e-07	4.875974e-11	2.975065e+00	3.104316e+00
2.470000e-06	2.718627e-07	3.322662e-11	1.890295e+00	1.803894e+00
2.480000e-06	1.157781e-07	1.610708e-11	8.050197e-01	4.904897e-01
2.490000e-06	-4.024748e-08	-2.256644e-12	-2.798458e-01	-8.286578e-01
2.500000e-06	-1.962408e-07	-2.185978e-11	-1.364487e+00	-2.137507e+00
2.510000e-06	-3.522244e-07	-4.141529e-11	-2.449060e+00	-3.425733e+00
2.520000e-06	-5.081355e-07	-6.438082e-11	-3.533130e+00	-4.700300e+00
2.530000e-06	-6.638150e-07	-8.726579e-11	-4.615589e+00	-5.985811e+00
2.540000e-06	-8.191579e-07	-1.082568e-10	-5.695708e+00	-7.312644e+00
2.550000e-06	-9.741988e-07	-1.271709e-10	-6.773727e+00	-8.699555e+00
2.560000e-06	-1.128943e-06	-1.450989e-10	-7.849683e+00	-1.014090e+01
2.570000e-06	-1.283170e-06	-1.655168e-10	-8.922042e+00	-1.160603e+01
2.580000e-06	-1.436744e-06	-1.877050e-10	-9.989862e+00	-1.305170e+01
2.590000e-06	-1.589857e-06	-2.091003e-10	-1.105448e+01	-1.444142e+01
2.600000e-06	-1.742586e-06	-2.295425e-10	-1.211642e+01	-1.576195e+01
2.610000e-06	-1.894725e-06	-2.520263e-10	-1.317426e+01	-1.702875e+01
2.620000e-06	-2.046004e-06	-2.753813e-10	-1.422613e+01	-1.827735e+01
2.630000e-06	-2.196346e-06	-2.967292e-10	-1.527147e+01	-1.954490e+01
2.640000e-06	-2.345885e-06	-3.134836e-10	-1.631124e+01	-2.085082e+01
2.650000e-06	-2.494741e-06	-3.299375e-10	-1.734625e+01	-2.218658e+01
2.660000e-06	-2.642757e-06	-3.503224e-10	-1.837542e+01	-2.352012e+01
2.670000e-06	-2.789777e-06	-3.719454e-10	-1.939767e+01	-2.481310e+01
2.680000e-06	-2.935760e-06	-3.907235e-10	-2.041271e+01	-2.604174e+01
2.690000e-06	-3.080769e-06	-4.059079e-10	-2.142098e+01	-2.720983e+01
2.700000e-06	-3.224761e-06	-4.223592e-10	-2.242217e+01	-2.834621e+01
2.710000e-06	-3.367467e-06	-4.422117e-10	-2.341442e+01	-2.948797e+01
2.720000e-06	-3.508821e-06	-4.627631e-10	-2.439727e+01	-3.065897e+01
2.730000e-06	-3.648886e-06	-4.804653e-10	-2.537117e+01	-3.185672e+01
2.740000e-06	-3.787673e-06	-4.969952e-10	-2.633617e+01	-3.305520e+01
2.750000e-06	-3.925105e-06	-5.150197e-10	-2.729175e+01	-3.422163e+01
2.760000e-06	-4.060954e-06	-5.340707e-10	-2.823632e+01	-3.533612e+01
2.770000e-06	-4.195153e-06	-5.499145e-10	-2.916943e+01	-3.640159e+01
2.780000e-06	-4.327910e-06	-5.611234e-10	-3.009250e+01	-3.743821e+01
2.790000e-06	-4.459223e-06	-5.745551e-10	-3.100554e+01	-3.846703e+01
2.800000e-06	-4.588968e-06	-5.924889e-10	-3.190768e+01	-3.949480e+01
2.810000e-06	-4.717055e-06	-6.115590e-10	-3.279828e+01	-4.051056e+01
2.820000e-06	-4.843403e-06	-6.282343e-10	-3.367679e+01	-4.149599e+01
2.830000e-06	-4.968074e-06	-6.435992e-10	-3.454365e+01	-4.244132e+01
2.840000e-06	-5.091064e-06	-6.582062e-10	-3.539881e+01	-4.335483e+01
2.850000e-06	-5.212187e-06	-6.703905e-10	-3.624099e+01	-4.425863e+01
2.860000e-06	-5.331308e-06	-6.809024e-10	-3.706926e+01	-4.517335e+01
2.870000e-06	-5.448403e-06	-6.932785e-10	-3.788343e+01	-4.610247e+01
2.880000e-06	-5.563384e-06	-7.089148e-10	-3.868291e+01	-4.702719e+01
2.890000e-06	-5.676118e-06	-7.236940e-10	-3.946676e+01	-4.791569e+01
2.900000e-06	-5.786572e-06	-7.372530e-10	-4.023476e+01	-4.874099e+01
2.910000e-06	-5.894908e-06	-7.503247e-10	-4.098804e+01	-4.949631e+01
2.920000e-06	-6.001292e-06	-7.638067e-10	-4.172774e+01	-5.019927e+01
2.930000e-06	-6.105681e-06	-7.761585e-10	-4.245357e+01	-5.088347e+01
2.940000e-06	-6.207827e-06	-7.860924e-10	-4.316381e+01	-5.158333e+01
