# Temperatura_=_20.0
# Concentracion g/m^3_=_10000.0
# C_Vs_to_Am_M_A/Vsm_=_65563218390.804596
# pendiente_HvsI_1/m_=_3716.3
# ordenada_HvsI_A/m_=_1297.0
# frecuencia_Hz_=_300949.0608749176

Tiempo_(s)	Campo_(V.s)	Magnetizacion_(V.s)	Campo_(kA/m)	Magnetizacion_(A/m)
0.000000e+00	-4.553652e-06	-8.892037e-09	-3.088398e+01	-6.321536e+02
1.000000e-08	-4.552474e-06	-8.891014e-09	-3.087599e+01	-6.335809e+02
2.000000e-08	-4.549565e-06	-8.889523e-09	-3.085627e+01	-6.347813e+02
3.000000e-08	-4.545089e-06	-8.890225e-09	-3.082591e+01	-6.357545e+02
4.000000e-08	-4.539282e-06	-8.890066e-09	-3.078652e+01	-6.365001e+02
5.000000e-08	-4.532096e-06	-8.883395e-09	-3.073779e+01	-6.370178e+02
6.000000e-08	-4.523603e-06	-8.872349e-09	-3.068018e+01	-6.373075e+02
7.000000e-08	-4.513551e-06	-8.848305e-09	-3.061201e+01	-6.373690e+02
8.000000e-08	-4.501673e-06	-8.829295e-09	-3.053145e+01	-6.372023e+02
9.000000e-08	-4.487867e-06	-8.883661e-09	-3.043781e+01	-6.368075e+02
1.000000e-07	-4.471750e-06	-8.895321e-09	-3.032850e+01	-6.361848e+02
1.100000e-07	-4.453494e-06	-8.846280e-09	-3.020469e+01	-6.353343e+02
1.200000e-07	-4.433781e-06	-8.769539e-09	-3.007099e+01	-6.342563e+02
1.300000e-07	-4.413120e-06	-8.631167e-09	-2.993086e+01	-6.329513e+02
1.400000e-07	-4.391477e-06	-8.784008e-09	-2.978407e+01	-6.314196e+02
1.500000e-07	-4.368354e-06	-8.854965e-09	-2.962725e+01	-6.296619e+02
1.600000e-07	-4.343915e-06	-8.576758e-09	-2.946149e+01	-6.276788e+02
1.700000e-07	-4.318112e-06	-8.697037e-09	-2.928649e+01	-6.254709e+02
1.800000e-07	-4.290426e-06	-8.778541e-09	-2.909872e+01	-6.230391e+02
1.900000e-07	-4.261180e-06	-8.541286e-09	-2.890037e+01	-6.203843e+02
2.000000e-07	-4.230738e-06	-8.682946e-09	-2.869390e+01	-6.175073e+02
2.100000e-07	-4.198824e-06	-8.685152e-09	-2.847745e+01	-6.144092e+02
2.200000e-07	-4.165232e-06	-8.404528e-09	-2.824962e+01	-6.110911e+02
2.300000e-07	-4.130058e-06	-8.501463e-09	-2.801106e+01	-6.075543e+02
2.400000e-07	-4.093508e-06	-8.562870e-09	-2.776317e+01	-6.037999e+02
2.500000e-07	-4.055536e-06	-8.456334e-09	-2.750563e+01	-5.998293e+02
2.600000e-07	-4.016031e-06	-8.439329e-09	-2.723770e+01	-5.956439e+02
2.700000e-07	-3.975210e-06	-8.328549e-09	-2.696084e+01	-5.912453e+02
2.800000e-07	-3.933027e-06	-8.317055e-09	-2.667475e+01	-5.866349e+02
2.900000e-07	-3.889247e-06	-8.363282e-09	-2.637783e+01	-5.818145e+02
3.000000e-07	-3.843904e-06	-8.246278e-09	-2.607030e+01	-5.767857e+02
3.100000e-07	-3.797105e-06	-8.152960e-09	-2.575289e+01	-5.715504e+02
3.200000e-07	-3.748967e-06	-8.139293e-09	-2.542641e+01	-5.661104e+02
3.300000e-07	-3.699515e-06	-8.134924e-09	-2.509102e+01	-5.604677e+02
3.400000e-07	-3.648394e-06	-8.090866e-09	-2.474430e+01	-5.546243e+02
3.500000e-07	-3.595533e-06	-8.011110e-09	-2.438578e+01	-5.485823e+02
3.600000e-07	-3.541293e-06	-7.916989e-09	-2.401791e+01	-5.423437e+02
3.700000e-07	-3.485867e-06	-7.860882e-09	-2.364200e+01	-5.359110e+02
3.800000e-07	-3.429427e-06	-7.882658e-09	-2.325921e+01	-5.292863e+02
3.900000e-07	-3.371690e-06	-7.810649e-09	-2.286763e+01	-5.224720e+02
4.000000e-07	-3.312372e-06	-7.671449e-09	-2.246532e+01	-5.154706e+02
4.100000e-07	-3.251873e-06	-7.619196e-09	-2.205500e+01	-5.082846e+02
4.200000e-07	-3.190415e-06	-7.589600e-09	-2.163818e+01	-5.009165e+02
4.300000e-07	-3.127922e-06	-7.539700e-09	-2.121433e+01	-4.933690e+02
4.400000e-07	-3.064362e-06	-7.437792e-09	-2.078325e+01	-4.856447e+02
4.500000e-07	-2.999828e-06	-7.320100e-09	-2.034556e+01	-4.777465e+02
4.600000e-07	-2.934156e-06	-7.277079e-09	-1.990016e+01	-4.696771e+02
4.700000e-07	-2.867055e-06	-7.244214e-09	-1.944507e+01	-4.614394e+02
4.800000e-07	-2.798854e-06	-7.161924e-09	-1.898251e+01	-4.530364e+02
4.900000e-07	-2.729822e-06	-7.032213e-09	-1.851432e+01	-4.444711e+02
5.000000e-07	-2.659871e-06	-6.930240e-09	-1.803990e+01	-4.357465e+02
5.100000e-07	-2.589032e-06	-6.879394e-09	-1.755945e+01	-4.268658e+02
5.200000e-07	-2.517406e-06	-6.810633e-09	-1.707366e+01	-4.178322e+02
5.300000e-07	-2.445030e-06	-6.699416e-09	-1.658279e+01	-4.086487e+02
5.400000e-07	-2.371758e-06	-6.566487e-09	-1.608584e+01	-3.993189e+02
5.500000e-07	-2.297305e-06	-6.482640e-09	-1.558088e+01	-3.898459e+02
5.600000e-07	-2.221717e-06	-6.424342e-09	-1.506823e+01	-3.802332e+02
5.700000e-07	-2.145272e-06	-6.320964e-09	-1.454976e+01	-3.704841e+02
5.800000e-07	-2.067981e-06	-6.174844e-09	-1.402555e+01	-3.606023e+02
5.900000e-07	-1.989833e-06	-6.041236e-09	-1.349553e+01	-3.505911e+02
6.000000e-07	-1.911000e-06	-5.952799e-09	-1.296087e+01	-3.404543e+02
6.100000e-07	-1.831443e-06	-5.864192e-09	-1.242129e+01	-3.301954e+02
6.200000e-07	-1.750980e-06	-5.733690e-09	-1.187557e+01	-3.198181e+02
6.300000e-07	-1.669714e-06	-5.579565e-09	-1.132441e+01	-3.093260e+02
6.400000e-07	-1.587879e-06	-5.454797e-09	-1.076938e+01	-2.987230e+02
6.500000e-07	-1.505620e-06	-5.355449e-09	-1.021148e+01	-2.880129e+02
6.600000e-07	-1.422969e-06	-5.228083e-09	-9.650924e+00	-2.771994e+02
6.700000e-07	-1.339793e-06	-5.062834e-09	-9.086805e+00	-2.662864e+02
6.800000e-07	-1.256029e-06	-4.904476e-09	-8.518696e+00	-2.552778e+02
6.900000e-07	-1.171873e-06	-4.780398e-09	-7.947928e+00	-2.441776e+02
7.000000e-07	-1.087509e-06	-4.659678e-09	-7.375751e+00	-2.329898e+02
7.100000e-07	-1.002947e-06	-4.499660e-09	-6.802231e+00	-2.217182e+02
7.200000e-07	-9.181197e-07	-4.314008e-09	-6.226912e+00	-2.103671e+02
7.300000e-07	-8.329560e-07	-4.148555e-09	-5.649311e+00	-1.989403e+02
7.400000e-07	-7.475332e-07	-4.003296e-09	-5.069953e+00	-1.874420e+02
7.500000e-07	-6.619247e-07	-3.842553e-09	-4.489335e+00	-1.758764e+02
7.600000e-07	-5.760668e-07	-3.650017e-09	-3.907026e+00	-1.642475e+02
7.700000e-07	-4.899262e-07	-3.454073e-09	-3.322799e+00	-1.525595e+02
7.800000e-07	-4.036166e-07	-3.281500e-09	-2.737426e+00	-1.408165e+02
7.900000e-07	-3.172267e-07	-3.110746e-09	-2.151509e+00	-1.290228e+02
8.000000e-07	-2.307321e-07	-2.909005e-09	-1.564881e+00	-1.171827e+02
8.100000e-07	-1.441540e-07	-2.682970e-09	-9.776878e-01	-1.053002e+02
8.200000e-07	-5.754947e-08	-2.466877e-09	-3.903146e-01	-9.337973e+01
8.300000e-07	2.905480e-08	-2.270404e-09	1.970568e-01	-8.142548e+01
8.400000e-07	1.156681e-07	-2.067115e-09	7.844896e-01	-6.944172e+01
8.500000e-07	2.022833e-07	-1.834593e-09	1.371935e+00	-5.743275e+01
8.600000e-07	2.888647e-07	-1.589301e-09	1.959151e+00	-4.540286e+01
8.700000e-07	3.753433e-07	-1.354465e-09	2.545670e+00	-3.335635e+01
8.800000e-07	4.616678e-07	-1.122191e-09	3.131144e+00	-2.129752e+01
8.900000e-07	5.478308e-07	-8.699937e-10	3.715523e+00	-9.230688e+00
9.000000e-07	6.337991e-07	-5.977792e-10	4.298580e+00	2.839839e+00
9.100000e-07	7.195049e-07	-3.293173e-10	4.879858e+00	1.490974e+01
9.200000e-07	8.049161e-07	-7.362705e-11	5.459138e+00	2.697471e+01
9.300000e-07	8.900650e-07	1.862447e-10	6.036639e+00	3.903043e+01
9.400000e-07	9.749755e-07	4.684942e-10	6.612522e+00	5.107259e+01
9.500000e-07	1.059641e-06	7.625594e-10	7.186746e+00	6.309689e+01
9.600000e-07	1.144054e-06	1.048185e-09	7.759255e+00	7.509903e+01
9.700000e-07	1.228132e-06	1.325047e-09	8.329493e+00	8.707472e+01
9.800000e-07	1.311813e-06	1.610065e-09	8.897039e+00	9.901968e+01
9.900000e-07	1.395046e-06	1.907013e-09	9.461545e+00	1.109296e+02
1.000000e-06	1.477745e-06	2.197097e-09	1.002243e+01	1.228003e+02
1.010000e-06	1.559860e-06	2.470343e-09	1.057935e+01	1.346275e+02
1.020000e-06	1.641421e-06	2.738825e-09	1.113252e+01	1.464070e+02
1.030000e-06	1.722439e-06	3.020099e-09	1.168200e+01	1.581345e+02
1.040000e-06	1.802788e-06	3.306628e-09	1.222695e+01	1.698059e+02
1.050000e-06	1.882368e-06	3.576715e-09	1.276668e+01	1.814170e+02
1.060000e-06	1.961268e-06	3.827383e-09	1.330180e+01	1.929637e+02
1.070000e-06	2.039546e-06	4.072845e-09	1.383270e+01	2.044418e+02
1.080000e-06	2.117095e-06	4.319432e-09	1.435866e+01	2.158472e+02
1.090000e-06	2.193842e-06	4.556132e-09	1.487917e+01	2.271758e+02
1.100000e-06	2.269748e-06	4.774081e-09	1.539399e+01	2.384236e+02
1.110000e-06	2.344650e-06	4.981330e-09	1.590199e+01	2.495866e+02
1.120000e-06	2.418458e-06	5.191904e-09	1.640258e+01	2.606608e+02
1.130000e-06	2.491314e-06	5.402718e-09	1.689670e+01	2.716422e+02
1.140000e-06	2.563294e-06	5.596247e-09	1.738488e+01	2.825269e+02
1.150000e-06	2.634479e-06	5.770505e-09	1.786768e+01	2.933110e+02
1.160000e-06	2.704766e-06	5.938038e-09	1.834439e+01	3.039906e+02
1.170000e-06	2.774079e-06	6.107478e-09	1.881448e+01	3.145620e+02
1.180000e-06	2.842576e-06	6.271145e-09	1.927905e+01	3.250214e+02
1.190000e-06	2.910090e-06	6.418732e-09	1.973694e+01	3.353650e+02
1.200000e-06	2.976341e-06	6.555682e-09	2.018627e+01	3.455891e+02
1.210000e-06	3.041371e-06	6.693880e-09	2.062732e+01	3.556900e+02
1.220000e-06	3.105405e-06	6.834034e-09	2.106161e+01	3.656642e+02
1.230000e-06	3.168519e-06	6.963474e-09	2.148967e+01	3.755082e+02
1.240000e-06	3.230570e-06	7.075615e-09	2.191051e+01	3.852182e+02
1.250000e-06	3.291546e-06	7.180994e-09	2.232407e+01	3.947910e+02
1.260000e-06	3.351525e-06	7.291434e-09	2.273086e+01	4.042231e+02
1.270000e-06	3.410237e-06	7.401011e-09	2.312906e+01	4.135111e+02
1.280000e-06	3.467527e-06	7.497253e-09	2.351761e+01	4.226517e+02
1.290000e-06	3.523558e-06	7.582160e-09	2.389763e+01	4.316416e+02
1.300000e-06	3.578393e-06	7.670693e-09	2.426953e+01	4.404776e+02
1.310000e-06	3.631974e-06	7.762958e-09	2.463293e+01	4.491566e+02
1.320000e-06	3.684141e-06	7.846154e-09	2.498674e+01	4.576754e+02
1.330000e-06	3.734626e-06	7.916581e-09	2.532914e+01	4.660310e+02
1.340000e-06	3.783487e-06	7.982873e-09	2.566054e+01	4.742204e+02
1.350000e-06	3.830964e-06	8.052111e-09	2.598254e+01	4.822408e+02
1.360000e-06	3.877149e-06	8.119253e-09	2.629577e+01	4.900892e+02
1.370000e-06	3.922136e-06	8.177261e-09	2.660089e+01	4.977628e+02
1.380000e-06	3.965846e-06	8.228351e-09	2.689734e+01	5.052588e+02
1.390000e-06	4.007999e-06	8.281993e-09	2.718323e+01	5.125747e+02
1.400000e-06	4.048595e-06	8.340584e-09	2.745856e+01	5.197078e+02
1.410000e-06	4.087842e-06	8.394252e-09	2.772475e+01	5.266555e+02
1.420000e-06	4.125757e-06	8.437167e-09	2.798189e+01	5.334153e+02
1.430000e-06	4.162388e-06	8.475852e-09	2.823033e+01	5.399849e+02
1.440000e-06	4.197498e-06	8.519000e-09	2.846846e+01	5.463619e+02
1.450000e-06	4.230879e-06	8.563760e-09	2.869485e+01	5.525440e+02
1.460000e-06	4.262817e-06	8.600118e-09	2.891147e+01	5.585290e+02
1.470000e-06	4.293385e-06	8.629297e-09	2.911878e+01	5.643148e+02
1.480000e-06	4.322586e-06	8.659685e-09	2.931684e+01	5.698992e+02
1.490000e-06	4.350320e-06	8.693083e-09	2.950493e+01	5.752804e+02
1.500000e-06	4.376245e-06	8.724544e-09	2.968076e+01	5.804564e+02
1.510000e-06	4.400470e-06	8.749052e-09	2.984506e+01	5.854252e+02
1.520000e-06	4.423274e-06	8.769710e-09	2.999973e+01	5.901853e+02
1.530000e-06	4.444663e-06	8.793406e-09	3.014479e+01	5.947348e+02
1.540000e-06	4.464628e-06	8.819364e-09	3.028020e+01	5.990721e+02
1.550000e-06	4.483049e-06	8.841412e-09	3.040513e+01	6.031957e+02
1.560000e-06	4.499780e-06	8.856094e-09	3.051861e+01	6.071041e+02
1.570000e-06	4.514867e-06	8.867283e-09	3.062093e+01	6.107959e+02
1.580000e-06	4.528308e-06	8.880030e-09	3.071209e+01	6.142698e+02
1.590000e-06	4.539949e-06	8.894111e-09	3.079104e+01	6.175245e+02
1.600000e-06	4.549695e-06	8.904596e-09	3.085714e+01	6.205590e+02
1.610000e-06	4.557753e-06	8.910696e-09	3.091180e+01	6.233720e+02
1.620000e-06	4.564281e-06	8.918373e-09	3.095607e+01	6.259627e+02
1.630000e-06	4.569339e-06	8.929576e-09	3.099038e+01	6.283300e+02
1.640000e-06	4.572885e-06	8.938322e-09	3.101442e+01	6.304731e+02
1.650000e-06	4.574675e-06	8.939914e-09	3.102656e+01	6.323913e+02
1.660000e-06	4.574798e-06	8.935626e-09	3.102740e+01	6.340839e+02
1.670000e-06	4.573475e-06	8.929107e-09	3.101842e+01	6.355503e+02
1.680000e-06	4.570789e-06	8.928122e-09	3.100021e+01	6.367899e+02
1.690000e-06	4.566719e-06	8.925401e-09	3.097261e+01	6.378023e+02
1.700000e-06	4.560982e-06	8.918671e-09	3.093369e+01	6.385872e+02
1.710000e-06	4.553638e-06	8.914420e-09	3.088389e+01	6.391443e+02
1.720000e-06	4.544968e-06	8.919094e-09	3.082508e+01	6.394733e+02
1.730000e-06	4.534960e-06	8.946673e-09	3.075720e+01	6.395742e+02
1.740000e-06	4.523524e-06	8.921548e-09	3.067965e+01	6.394469e+02
1.750000e-06	4.510177e-06	8.809489e-09	3.058912e+01	6.390914e+02
1.760000e-06	4.494361e-06	8.788534e-09	3.048186e+01	6.385080e+02
1.770000e-06	4.476258e-06	8.800409e-09	3.035908e+01	6.376968e+02
1.780000e-06	4.456774e-06	8.938185e-09	3.022693e+01	6.366580e+02
1.790000e-06	4.436761e-06	8.883933e-09	3.009120e+01	6.353922e+02
1.800000e-06	4.415954e-06	8.617886e-09	2.995008e+01	6.338996e+02
1.810000e-06	4.393179e-06	8.836017e-09	2.979562e+01	6.321809e+02
1.820000e-06	4.368496e-06	8.858531e-09	2.962821e+01	6.302367e+02
1.830000e-06	4.342780e-06	8.589914e-09	2.945380e+01	6.280677e+02
1.840000e-06	4.315475e-06	8.786102e-09	2.926861e+01	6.256746e+02
1.850000e-06	4.285972e-06	8.743778e-09	2.906851e+01	6.230583e+02
1.860000e-06	4.254891e-06	8.460885e-09	2.885771e+01	6.202198e+02
1.870000e-06	4.222543e-06	8.721453e-09	2.863832e+01	6.171600e+02
1.880000e-06	4.188902e-06	8.725588e-09	2.841016e+01	6.138800e+02
1.890000e-06	4.153964e-06	8.477458e-09	2.817320e+01	6.103811e+02
1.900000e-06	4.117252e-06	8.566623e-09	2.792421e+01	6.066645e+02
1.910000e-06	4.078837e-06	8.467651e-09	2.766367e+01	6.027314e+02
1.920000e-06	4.039024e-06	8.484217e-09	2.739364e+01	5.985834e+02
1.930000e-06	3.997781e-06	8.543953e-09	2.711393e+01	5.942219e+02
1.940000e-06	3.955373e-06	8.282644e-09	2.682631e+01	5.896485e+02
1.950000e-06	3.911756e-06	8.328848e-09	2.653049e+01	5.848647e+02
1.960000e-06	3.866706e-06	8.378431e-09	2.622495e+01	5.798724e+02
1.970000e-06	3.820253e-06	8.256058e-09	2.590989e+01	5.746732e+02
1.980000e-06	3.772292e-06	8.229476e-09	2.558461e+01	5.692691e+02
1.990000e-06	3.722977e-06	8.098668e-09	2.525014e+01	5.636620e+02
2.000000e-06	3.672364e-06	8.099201e-09	2.490687e+01	5.578539e+02
2.010000e-06	3.620304e-06	8.096526e-09	2.455379e+01	5.518468e+02
2.020000e-06	3.566730e-06	8.034680e-09	2.419044e+01	5.456430e+02
2.030000e-06	3.511585e-06	7.967724e-09	2.381643e+01	5.392446e+02
2.040000e-06	3.455146e-06	7.805832e-09	2.343365e+01	5.326540e+02
2.050000e-06	3.397567e-06	7.847974e-09	2.304313e+01	5.258734e+02
2.060000e-06	3.338869e-06	7.810579e-09	2.264503e+01	5.189054e+02
2.070000e-06	3.279156e-06	7.677523e-09	2.224004e+01	5.117523e+02
2.080000e-06	3.218070e-06	7.617089e-09	2.182574e+01	5.044168e+02
2.090000e-06	3.155547e-06	7.514460e-09	2.140169e+01	4.969015e+02
2.100000e-06	3.091980e-06	7.533554e-09	2.097056e+01	4.892091e+02
2.110000e-06	3.027372e-06	7.456232e-09	2.053238e+01	4.813423e+02
2.120000e-06	2.961684e-06	7.315656e-09	2.008686e+01	4.733039e+02
2.130000e-06	2.895072e-06	7.243775e-09	1.963509e+01	4.650969e+02
2.140000e-06	2.827605e-06	7.162610e-09	1.917751e+01	4.567241e+02
2.150000e-06	2.758983e-06	7.137833e-09	1.871210e+01	4.481886e+02
2.160000e-06	2.689071e-06	7.019346e-09	1.823794e+01	4.394933e+02
2.170000e-06	2.618105e-06	6.897777e-09	1.775663e+01	4.306415e+02
2.180000e-06	2.546316e-06	6.820040e-09	1.726974e+01	4.216362e+02
2.190000e-06	2.473751e-06	6.748180e-09	1.677758e+01	4.124808e+02
2.200000e-06	2.400360e-06	6.684529e-09	1.627983e+01	4.031784e+02
2.210000e-06	2.326146e-06	6.531819e-09	1.577649e+01	3.937324e+02
2.220000e-06	2.250961e-06	6.418220e-09	1.526657e+01	3.841462e+02
2.230000e-06	2.174862e-06	6.337323e-09	1.475044e+01	3.744232e+02
2.240000e-06	2.097805e-06	6.255398e-09	1.422783e+01	3.645669e+02
2.250000e-06	2.019614e-06	6.144826e-09	1.369751e+01	3.545807e+02
2.260000e-06	1.940562e-06	5.986819e-09	1.316136e+01	3.444684e+02
2.270000e-06	1.860975e-06	5.874308e-09	1.262158e+01	3.342335e+02
2.280000e-06	1.780897e-06	5.776380e-09	1.207848e+01	3.238796e+02
2.290000e-06	1.700215e-06	5.672867e-09	1.153127e+01	3.134105e+02
2.300000e-06	1.618912e-06	5.522905e-09	1.097986e+01	3.028298e+02
2.310000e-06	1.537099e-06	5.366645e-09	1.042498e+01	2.921415e+02
2.320000e-06	1.454755e-06	5.254131e-09	9.866506e+00	2.813493e+02
2.330000e-06	1.371959e-06	5.139822e-09	9.304958e+00	2.704571e+02
2.340000e-06	1.288848e-06	5.000185e-09	8.741283e+00	2.594687e+02
2.350000e-06	1.205441e-06	4.822620e-09	8.175594e+00	2.483881e+02
2.360000e-06	1.121694e-06	4.664779e-09	7.607601e+00	2.372193e+02
2.370000e-06	1.037543e-06	4.534435e-09	7.036873e+00	2.259662e+02
2.380000e-06	9.529699e-07	4.391142e-09	6.463275e+00	2.146329e+02
2.390000e-06	8.679138e-07	4.218286e-09	5.886404e+00	2.032235e+02
2.400000e-06	7.823057e-07	4.033644e-09	5.305789e+00	1.917419e+02
2.410000e-06	6.962100e-07	3.871403e-09	4.721866e+00	1.801924e+02
2.420000e-06	6.098148e-07	3.715962e-09	4.135913e+00	1.685791e+02
2.430000e-06	5.232483e-07	3.536288e-09	3.548798e+00	1.569060e+02
2.440000e-06	4.365188e-07	3.328493e-09	2.960577e+00	1.451774e+02
2.450000e-06	3.496243e-07	3.127745e-09	2.371238e+00	1.333975e+02
2.460000e-06	2.626381e-07	2.948998e-09	1.781276e+00	1.215705e+02
2.470000e-06	1.756184e-07	2.764891e-09	1.191087e+00	1.097006e+02
2.480000e-06	8.854094e-08	2.551195e-09	6.005063e-01	9.779200e+01
2.490000e-06	1.402341e-09	2.320433e-09	9.511022e-03	8.584907e+01
2.500000e-06	-8.569017e-08	2.105231e-09	-5.811717e-01	7.387603e+01
2.510000e-06	-1.726926e-07	1.901474e-09	-1.171244e+00	6.187716e+01
2.520000e-06	-2.596757e-07	1.675756e-09	-1.761184e+00	4.985676e+01
2.530000e-06	-3.465862e-07	1.422940e-09	-2.350632e+00	3.781912e+01
2.540000e-06	-4.333551e-07	1.170190e-09	-2.939120e+00	2.576855e+01
2.550000e-06	-5.199314e-07	9.306627e-10	-3.526302e+00	1.370936e+01
2.560000e-06	-6.062671e-07	6.890223e-10	-4.111851e+00	1.645857e+00
2.570000e-06	-6.922732e-07	4.227515e-10	-4.695166e+00	-1.041764e+01
2.580000e-06	-7.778400e-07	1.395911e-10	-5.275501e+00	-2.247681e+01
2.590000e-06	-8.630248e-07	-1.327221e-10	-5.853245e+00	-3.452736e+01
2.600000e-06	-9.478010e-07	-3.926163e-10	-6.428218e+00	-4.656496e+01
2.610000e-06	-1.032160e-06	-6.635458e-10	-7.000362e+00	-5.858531e+01
2.620000e-06	-1.116167e-06	-9.572139e-10	-7.570120e+00	-7.058411e+01
2.630000e-06	-1.199772e-06	-1.253529e-09	-8.137150e+00	-8.255708e+01
2.640000e-06	-1.282934e-06	-1.535165e-09	-8.701169e+00	-9.449993e+01
2.650000e-06	-1.365686e-06	-1.812163e-09	-9.262419e+00	-1.064084e+02
2.660000e-06	-1.448093e-06	-2.101852e-09	-9.821323e+00	-1.182782e+02
2.670000e-06	-1.530101e-06	-2.398736e-09	-1.037752e+01	-1.301051e+02
2.680000e-06	-1.611575e-06	-2.681663e-09	-1.093009e+01	-1.418849e+02
2.690000e-06	-1.692449e-06	-2.947104e-09	-1.147860e+01	-1.536133e+02
2.700000e-06	-1.772724e-06	-3.210949e-09	-1.202305e+01	-1.652863e+02
2.710000e-06	-1.852469e-06	-3.484208e-09	-1.256390e+01	-1.768995e+02
2.720000e-06	-1.931723e-06	-3.754215e-09	-1.310141e+01	-1.884488e+02
2.730000e-06	-2.010278e-06	-4.003644e-09	-1.363420e+01	-1.999302e+02
2.740000e-06	-2.087835e-06	-4.235965e-09	-1.416021e+01	-2.113394e+02
2.750000e-06	-2.164332e-06	-4.468301e-09	-1.467903e+01	-2.226725e+02
2.760000e-06	-2.239863e-06	-4.703823e-09	-1.519130e+01	-2.339254e+02
2.770000e-06	-2.314507e-06	-4.927372e-09	-1.569755e+01	-2.450940e+02
2.780000e-06	-2.388341e-06	-5.129747e-09	-1.619831e+01	-2.561743e+02
2.790000e-06	-2.461385e-06	-5.322556e-09	-1.669371e+01	-2.671624e+02
2.800000e-06	-2.533585e-06	-5.518478e-09	-1.718339e+01	-2.780544e+02
2.810000e-06	-2.604992e-06	-5.710385e-09	-1.766769e+01	-2.888464e+02
2.820000e-06	-2.675523e-06	-5.883841e-09	-1.814605e+01	-2.995344e+02
2.830000e-06	-2.744906e-06	-6.039911e-09	-1.861662e+01	-3.101148e+02
2.840000e-06	-2.813110e-06	-6.194220e-09	-1.907920e+01	-3.205836e+02
2.850000e-06	-2.880359e-06	-6.353223e-09	-1.953530e+01	-3.309372e+02
2.860000e-06	-2.946728e-06	-6.505310e-09	-1.998543e+01	-3.411718e+02
2.870000e-06	-3.012101e-06	-6.640832e-09	-2.042881e+01	-3.512838e+02
2.880000e-06	-3.076440e-06	-6.766364e-09	-2.086517e+01	-3.612696e+02
2.890000e-06	-3.139821e-06	-6.892880e-09	-2.129503e+01	-3.711256e+02
2.900000e-06	-3.202041e-06	-7.018730e-09	-2.171702e+01	-3.808482e+02
2.910000e-06	-3.262846e-06	-7.132541e-09	-2.212942e+01	-3.904341e+02
2.920000e-06	-3.322461e-06	-7.232875e-09	-2.253374e+01	-3.998797e+02
2.930000e-06	-3.381081e-06	-7.330479e-09	-2.293132e+01	-4.091817e+02
2.940000e-06	-3.438490e-06	-7.430540e-09	-2.332068e+01	-4.183368e+02
