# Temperatura_=_20.0
# Concentracion g/m^3_=_10000.0
# C_Vs_to_Am_M_A/Vsm_=_65563218390.804596
# pendiente_HvsI_1/m_=_3716.3
# ordenada_HvsI_A/m_=_1297.0
# frecuencia_Hz_=_300949.35877069936

Tiempo_(s)	Campo_(V.s)	Magnetizacion_(V.s)	Campo_(kA/m)	Magnetizacion_(A/m)
0.000000e+00	-4.555075e-06	-8.928808e-09	-3.088510e+01	-6.354407e+02
1.000000e-08	-4.554091e-06	-8.930842e-09	-3.087842e+01	-6.368572e+02
2.000000e-08	-4.551428e-06	-8.930809e-09	-3.086036e+01	-6.380457e+02
3.000000e-08	-4.547146e-06	-8.929344e-09	-3.083133e+01	-6.390058e+02
4.000000e-08	-4.541585e-06	-8.926253e-09	-3.079363e+01	-6.397371e+02
5.000000e-08	-4.534696e-06	-8.917206e-09	-3.074692e+01	-6.402394e+02
6.000000e-08	-4.526410e-06	-8.903942e-09	-3.069073e+01	-6.405125e+02
7.000000e-08	-4.516533e-06	-8.883562e-09	-3.062377e+01	-6.405563e+02
8.000000e-08	-4.504865e-06	-8.858257e-09	-3.054465e+01	-6.403708e+02
9.000000e-08	-4.491321e-06	-8.895876e-09	-3.045282e+01	-6.399560e+02
1.000000e-07	-4.475510e-06	-8.929104e-09	-3.034562e+01	-6.393121e+02
1.100000e-07	-4.457457e-06	-8.885404e-09	-3.022321e+01	-6.384394e+02
1.200000e-07	-4.437882e-06	-8.833291e-09	-3.009048e+01	-6.373380e+02
1.300000e-07	-4.417364e-06	-8.692050e-09	-2.995137e+01	-6.360085e+02
1.400000e-07	-4.395886e-06	-8.757986e-09	-2.980573e+01	-6.344513e+02
1.500000e-07	-4.373027e-06	-8.914076e-09	-2.965074e+01	-6.326669e+02
1.600000e-07	-4.348848e-06	-8.663883e-09	-2.948680e+01	-6.306561e+02
1.700000e-07	-4.323367e-06	-8.670043e-09	-2.931403e+01	-6.284194e+02
1.800000e-07	-4.295966e-06	-8.828245e-09	-2.912824e+01	-6.259578e+02
1.900000e-07	-4.266830e-06	-8.614032e-09	-2.893069e+01	-6.232720e+02
2.000000e-07	-4.236555e-06	-8.651968e-09	-2.872541e+01	-6.203631e+02
2.100000e-07	-4.204912e-06	-8.752439e-09	-2.851086e+01	-6.172320e+02
2.200000e-07	-4.171635e-06	-8.493277e-09	-2.828523e+01	-6.138800e+02
2.300000e-07	-4.136733e-06	-8.492542e-09	-2.804858e+01	-6.103081e+02
2.400000e-07	-4.100364e-06	-8.601875e-09	-2.780199e+01	-6.065178e+02
2.500000e-07	-4.062627e-06	-8.490251e-09	-2.754612e+01	-6.025102e+02
2.600000e-07	-4.023392e-06	-8.471209e-09	-2.728009e+01	-5.982870e+02
2.700000e-07	-3.982683e-06	-8.379120e-09	-2.700406e+01	-5.938494e+02
2.800000e-07	-3.940567e-06	-8.321133e-09	-2.671850e+01	-5.891993e+02
2.900000e-07	-3.896963e-06	-8.379995e-09	-2.642285e+01	-5.843382e+02
3.000000e-07	-3.851880e-06	-8.294030e-09	-2.611717e+01	-5.792678e+02
3.100000e-07	-3.805342e-06	-8.185306e-09	-2.580163e+01	-5.739900e+02
3.200000e-07	-3.757434e-06	-8.168092e-09	-2.547679e+01	-5.685066e+02
3.300000e-07	-3.708132e-06	-8.158589e-09	-2.514251e+01	-5.628196e+02
3.400000e-07	-3.657149e-06	-8.119925e-09	-2.479682e+01	-5.569311e+02
3.500000e-07	-3.604490e-06	-8.046972e-09	-2.443977e+01	-5.508431e+02
3.600000e-07	-3.550388e-06	-7.953547e-09	-2.407294e+01	-5.445579e+02
3.700000e-07	-3.495041e-06	-7.877438e-09	-2.369767e+01	-5.380776e+02
3.800000e-07	-3.438767e-06	-7.882404e-09	-2.331611e+01	-5.314046e+02
3.900000e-07	-3.381344e-06	-7.846826e-09	-2.292676e+01	-5.245413e+02
4.000000e-07	-3.322319e-06	-7.711426e-09	-2.252655e+01	-5.174901e+02
4.100000e-07	-3.262009e-06	-7.648035e-09	-2.211763e+01	-5.102535e+02
4.200000e-07	-3.200748e-06	-7.614689e-09	-2.170225e+01	-5.028342e+02
4.300000e-07	-3.138462e-06	-7.562153e-09	-2.127993e+01	-4.952347e+02
4.400000e-07	-3.075085e-06	-7.473996e-09	-2.085022e+01	-4.874579e+02
4.500000e-07	-3.010661e-06	-7.350257e-09	-2.041340e+01	-4.795064e+02
4.600000e-07	-2.945123e-06	-7.287817e-09	-1.996903e+01	-4.713831e+02
4.700000e-07	-2.878257e-06	-7.255295e-09	-1.951565e+01	-4.630909e+02
4.800000e-07	-2.810225e-06	-7.193136e-09	-1.905436e+01	-4.546328e+02
4.900000e-07	-2.741335e-06	-7.078435e-09	-1.858727e+01	-4.460119e+02
5.000000e-07	-2.671587e-06	-6.964861e-09	-1.811435e+01	-4.372311e+02
5.100000e-07	-2.600899e-06	-6.895972e-09	-1.763506e+01	-4.282936e+02
5.200000e-07	-2.529379e-06	-6.827558e-09	-1.715012e+01	-4.192027e+02
5.300000e-07	-2.457102e-06	-6.724416e-09	-1.666006e+01	-4.099615e+02
5.400000e-07	-2.383894e-06	-6.595552e-09	-1.616368e+01	-4.005734e+02
5.500000e-07	-2.309491e-06	-6.500167e-09	-1.565921e+01	-3.910417e+02
5.600000e-07	-2.233986e-06	-6.438661e-09	-1.514726e+01	-3.813699e+02
5.700000e-07	-2.157632e-06	-6.347025e-09	-1.462954e+01	-3.715613e+02
5.800000e-07	-2.080415e-06	-6.211542e-09	-1.410598e+01	-3.616195e+02
5.900000e-07	-2.002387e-06	-6.073728e-09	-1.357692e+01	-3.515481e+02
6.000000e-07	-1.923637e-06	-5.967300e-09	-1.304297e+01	-3.413507e+02
6.100000e-07	-1.844135e-06	-5.876189e-09	-1.250392e+01	-3.310308e+02
6.200000e-07	-1.763731e-06	-5.755449e-09	-1.195875e+01	-3.205922e+02
6.300000e-07	-1.682502e-06	-5.609410e-09	-1.140799e+01	-3.100386e+02
6.400000e-07	-1.600731e-06	-5.476485e-09	-1.085355e+01	-2.993738e+02
6.500000e-07	-1.518551e-06	-5.370555e-09	-1.029634e+01	-2.886016e+02
6.600000e-07	-1.435964e-06	-5.252599e-09	-9.736371e+00	-2.777259e+02
6.700000e-07	-1.352859e-06	-5.096915e-09	-9.172887e+00	-2.667505e+02
6.800000e-07	-1.269212e-06	-4.934018e-09	-8.605728e+00	-2.556793e+02
6.900000e-07	-1.185131e-06	-4.793182e-09	-8.035627e+00	-2.445164e+02
7.000000e-07	-1.100784e-06	-4.668151e-09	-7.463723e+00	-2.332657e+02
7.100000e-07	-1.016225e-06	-4.517899e-09	-6.890384e+00	-2.219312e+02
7.200000e-07	-9.313629e-07	-4.339394e-09	-6.314985e+00	-2.105169e+02
7.300000e-07	-8.461899e-07	-4.167343e-09	-5.737481e+00	-1.990270e+02
7.400000e-07	-7.607358e-07	-4.013274e-09	-5.158070e+00	-1.874656e+02
7.500000e-07	-6.750404e-07	-3.854874e-09	-4.577024e+00	-1.758368e+02
7.600000e-07	-5.891781e-07	-3.670316e-09	-3.994846e+00	-1.641448e+02
7.700000e-07	-5.031080e-07	-3.471501e-09	-3.411258e+00	-1.523936e+02
7.800000e-07	-4.168964e-07	-3.285127e-09	-2.826712e+00	-1.405876e+02
7.900000e-07	-3.305575e-07	-3.111104e-09	-2.241302e+00	-1.287310e+02
8.000000e-07	-2.440493e-07	-2.918209e-09	-1.654745e+00	-1.168279e+02
8.100000e-07	-1.574417e-07	-2.699303e-09	-1.067513e+00	-1.048827e+02
8.200000e-07	-7.080237e-08	-2.477268e-09	-4.800663e-01	-9.289962e+01
8.300000e-07	1.583179e-08	-2.270596e-09	1.073454e-01	-8.088293e+01
8.400000e-07	1.024848e-07	-2.065599e-09	6.948851e-01	-6.883692e+01
8.500000e-07	1.891073e-07	-1.836582e-09	1.282217e+00	-5.676592e+01
8.600000e-07	2.756806e-07	-1.588879e-09	1.869217e+00	-4.467423e+01
8.700000e-07	3.621826e-07	-1.345309e-09	2.455732e+00	-3.256617e+01
8.800000e-07	4.485511e-07	-1.110412e-09	3.041343e+00	-2.044608e+01
8.900000e-07	5.347784e-07	-8.640297e-10	3.625996e+00	-8.318280e+00
9.000000e-07	6.207996e-07	-5.952587e-10	4.209251e+00	3.812887e+00
9.100000e-07	7.065748e-07	-3.190037e-10	4.790838e+00	1.594309e+01
9.200000e-07	7.920979e-07	-5.251633e-11	5.370717e+00	2.806798e+01
9.300000e-07	8.773423e-07	2.106879e-10	5.948705e+00	4.018324e+01
9.400000e-07	9.623179e-07	4.902326e-10	6.524872e+00	5.228454e+01
9.500000e-07	1.047018e-06	7.850962e-10	7.099169e+00	6.436754e+01
9.600000e-07	1.131442e-06	1.075541e-09	7.671596e+00	7.642793e+01
9.700000e-07	1.215587e-06	1.353283e-09	8.242132e+00	8.846140e+01
9.800000e-07	1.299395e-06	1.634751e-09	8.810380e+00	1.004636e+02
9.900000e-07	1.382797e-06	1.931354e-09	9.375875e+00	1.124304e+02
1.000000e-06	1.465662e-06	2.231549e-09	9.937734e+00	1.243573e+02
1.010000e-06	1.547891e-06	2.517798e-09	1.049528e+01	1.362402e+02
1.020000e-06	1.629513e-06	2.791174e-09	1.104870e+01	1.480748e+02
1.030000e-06	1.710628e-06	3.066849e-09	1.159869e+01	1.598568e+02
1.040000e-06	1.791165e-06	3.347187e-09	1.214476e+01	1.715821e+02
1.050000e-06	1.870906e-06	3.618084e-09	1.268543e+01	1.832465e+02
1.060000e-06	1.949887e-06	3.871243e-09	1.322095e+01	1.948458e+02
1.070000e-06	2.028205e-06	4.114370e-09	1.375198e+01	2.063758e+02
1.080000e-06	2.105858e-06	4.358328e-09	1.427850e+01	2.178325e+02
1.090000e-06	2.182781e-06	4.599100e-09	1.480006e+01	2.292117e+02
1.100000e-06	2.258907e-06	4.824033e-09	1.531622e+01	2.405093e+02
1.110000e-06	2.334085e-06	5.032099e-09	1.582596e+01	2.517214e+02
1.120000e-06	2.408113e-06	5.237374e-09	1.632789e+01	2.628439e+02
1.130000e-06	2.481051e-06	5.444219e-09	1.682244e+01	2.738728e+02
1.140000e-06	2.553130e-06	5.639586e-09	1.731116e+01	2.848043e+02
1.150000e-06	2.624412e-06	5.815384e-09	1.779448e+01	2.956343e+02
1.160000e-06	2.694825e-06	5.978839e-09	1.827191e+01	3.063591e+02
1.170000e-06	2.764262e-06	6.142434e-09	1.874272e+01	3.169748e+02
1.180000e-06	2.832786e-06	6.305796e-09	1.920734e+01	3.274776e+02
1.190000e-06	2.900502e-06	6.458822e-09	1.966648e+01	3.378637e+02
1.200000e-06	2.967067e-06	6.598904e-09	2.011782e+01	3.481294e+02
1.210000e-06	3.032249e-06	6.734075e-09	2.055977e+01	3.582711e+02
1.220000e-06	3.096414e-06	6.869044e-09	2.099483e+01	3.682852e+02
1.230000e-06	3.159691e-06	6.997352e-09	2.142387e+01	3.781680e+02
1.240000e-06	3.221895e-06	7.109883e-09	2.184564e+01	3.879160e+02
1.250000e-06	3.283053e-06	7.211109e-09	2.226031e+01	3.975258e+02
1.260000e-06	3.343285e-06	7.313430e-09	2.266871e+01	4.069938e+02
1.270000e-06	3.402372e-06	7.421078e-09	2.306934e+01	4.163168e+02
1.280000e-06	3.459870e-06	7.522115e-09	2.345920e+01	4.254914e+02
1.290000e-06	3.516029e-06	7.611636e-09	2.383998e+01	4.345143e+02
1.300000e-06	3.571105e-06	7.697713e-09	2.421341e+01	4.433823e+02
1.310000e-06	3.624952e-06	7.785132e-09	2.457852e+01	4.520923e+02
1.320000e-06	3.677420e-06	7.868967e-09	2.493427e+01	4.606410e+02
1.330000e-06	3.728202e-06	7.941975e-09	2.527859e+01	4.690254e+02
1.340000e-06	3.777282e-06	8.006670e-09	2.561137e+01	4.772427e+02
1.350000e-06	3.825000e-06	8.070046e-09	2.593492e+01	4.852897e+02
1.360000e-06	3.871501e-06	8.136701e-09	2.625021e+01	4.931637e+02
1.370000e-06	3.916717e-06	8.200019e-09	2.655679e+01	5.008618e+02
1.380000e-06	3.960618e-06	8.254403e-09	2.685446e+01	5.083813e+02
1.390000e-06	4.002918e-06	8.305671e-09	2.714127e+01	5.157194e+02
1.400000e-06	4.043645e-06	8.360904e-09	2.741741e+01	5.228736e+02
1.410000e-06	4.083105e-06	8.415419e-09	2.768496e+01	5.298414e+02
1.420000e-06	4.121207e-06	8.461814e-09	2.794331e+01	5.366201e+02
1.430000e-06	4.157987e-06	8.501150e-09	2.819269e+01	5.432075e+02
1.440000e-06	4.193339e-06	8.539068e-09	2.843239e+01	5.496011e+02
1.450000e-06	4.227002e-06	8.580755e-09	2.866064e+01	5.557987e+02
1.460000e-06	4.259166e-06	8.620325e-09	2.887872e+01	5.617980e+02
1.470000e-06	4.289973e-06	8.652731e-09	2.908761e+01	5.675969e+02
1.480000e-06	4.319368e-06	8.682058e-09	2.928691e+01	5.731933e+02
1.490000e-06	4.347315e-06	8.713552e-09	2.947641e+01	5.785852e+02
1.500000e-06	4.373496e-06	8.746429e-09	2.965392e+01	5.837708e+02
1.510000e-06	4.397952e-06	8.775165e-09	2.981974e+01	5.887481e+02
1.520000e-06	4.420959e-06	8.798955e-09	2.997574e+01	5.935154e+02
1.530000e-06	4.442521e-06	8.820192e-09	3.012194e+01	5.980709e+02
1.540000e-06	4.462774e-06	8.841031e-09	3.025926e+01	6.024131e+02
1.550000e-06	4.481497e-06	8.860796e-09	3.038621e+01	6.065403e+02
1.560000e-06	4.498508e-06	8.876226e-09	3.050155e+01	6.104512e+02
1.570000e-06	4.513867e-06	8.887978e-09	3.060569e+01	6.141443e+02
1.580000e-06	4.527542e-06	8.901040e-09	3.069841e+01	6.176183e+02
1.590000e-06	4.539481e-06	8.917200e-09	3.077936e+01	6.208719e+02
1.600000e-06	4.549487e-06	8.932566e-09	3.084720e+01	6.239040e+02
1.610000e-06	4.557776e-06	8.943572e-09	3.090341e+01	6.267136e+02
1.620000e-06	4.564592e-06	8.950166e-09	3.094962e+01	6.292995e+02
1.630000e-06	4.569905e-06	8.955436e-09	3.098565e+01	6.316610e+02
1.640000e-06	4.573701e-06	8.959374e-09	3.101139e+01	6.337971e+02
1.650000e-06	4.575722e-06	8.961072e-09	3.102509e+01	6.357070e+02
1.660000e-06	4.576063e-06	8.957552e-09	3.102740e+01	6.373902e+02
1.670000e-06	4.575002e-06	8.949968e-09	3.102021e+01	6.388459e+02
1.680000e-06	4.572519e-06	8.947716e-09	3.100337e+01	6.400737e+02
1.690000e-06	4.568642e-06	8.948071e-09	3.097709e+01	6.410732e+02
1.700000e-06	4.563165e-06	8.944436e-09	3.093995e+01	6.418440e+02
1.710000e-06	4.556073e-06	8.938250e-09	3.089186e+01	6.423857e+02
1.720000e-06	4.547622e-06	8.935860e-09	3.083456e+01	6.426983e+02
1.730000e-06	4.537836e-06	8.950554e-09	3.076821e+01	6.427815e+02
1.740000e-06	4.526614e-06	8.954663e-09	3.069212e+01	6.426355e+02
1.750000e-06	4.513541e-06	8.850613e-09	3.060348e+01	6.422602e+02
1.760000e-06	4.498077e-06	8.815102e-09	3.049862e+01	6.416557e+02
1.770000e-06	4.480228e-06	8.821754e-09	3.037760e+01	6.408224e+02
1.780000e-06	4.460810e-06	8.914074e-09	3.024595e+01	6.397604e+02
1.790000e-06	4.440831e-06	8.952761e-09	3.011048e+01	6.384702e+02
1.800000e-06	4.420338e-06	8.688032e-09	2.997153e+01	6.369522e+02
1.810000e-06	4.397929e-06	8.766492e-09	2.981959e+01	6.352069e+02
1.820000e-06	4.373264e-06	8.919885e-09	2.965235e+01	6.332351e+02
1.830000e-06	4.347571e-06	8.656535e-09	2.947814e+01	6.310374e+02
1.840000e-06	4.320568e-06	8.735984e-09	2.929505e+01	6.286145e+02
1.850000e-06	4.291311e-06	8.844977e-09	2.909668e+01	6.259674e+02
1.860000e-06	4.260392e-06	8.534398e-09	2.888704e+01	6.230970e+02
1.870000e-06	4.228260e-06	8.668951e-09	2.866917e+01	6.200044e+02
1.880000e-06	4.194788e-06	8.817689e-09	2.844222e+01	6.166905e+02
1.890000e-06	4.160056e-06	8.555601e-09	2.820672e+01	6.131567e+02
1.900000e-06	4.123592e-06	8.590482e-09	2.795948e+01	6.094042e+02
1.910000e-06	4.085386e-06	8.558556e-09	2.770043e+01	6.054344e+02
1.920000e-06	4.045890e-06	8.499371e-09	2.743263e+01	6.012485e+02
1.930000e-06	4.004926e-06	8.622827e-09	2.715488e+01	5.968483e+02
1.940000e-06	3.962663e-06	8.391398e-09	2.686832e+01	5.922351e+02
1.950000e-06	3.919251e-06	8.337524e-09	2.657397e+01	5.874107e+02
1.960000e-06	3.874399e-06	8.436973e-09	2.626986e+01	5.823768e+02
1.970000e-06	3.828124e-06	8.309009e-09	2.595609e+01	5.771353e+02
1.980000e-06	3.780334e-06	8.281710e-09	2.563206e+01	5.716879e+02
1.990000e-06	3.731175e-06	8.176017e-09	2.529875e+01	5.660366e+02
2.000000e-06	3.680782e-06	8.126166e-09	2.495706e+01	5.601834e+02
2.010000e-06	3.628859e-06	8.149128e-09	2.460501e+01	5.541306e+02
2.020000e-06	3.575375e-06	8.085573e-09	2.424237e+01	5.478801e+02
2.030000e-06	3.520421e-06	8.042144e-09	2.386976e+01	5.414342e+02
2.040000e-06	3.464198e-06	7.885894e-09	2.348855e+01	5.347953e+02
2.050000e-06	3.406779e-06	7.864167e-09	2.309922e+01	5.279658e+02
2.060000e-06	3.348170e-06	7.865442e-09	2.270183e+01	5.209480e+02
2.070000e-06	3.288630e-06	7.720413e-09	2.229813e+01	5.137445e+02
2.080000e-06	3.227763e-06	7.665079e-09	2.188543e+01	5.063578e+02
2.090000e-06	3.165403e-06	7.568065e-09	2.146261e+01	4.987906e+02
2.100000e-06	3.101982e-06	7.558892e-09	2.103259e+01	4.910456e+02
2.110000e-06	3.037557e-06	7.535824e-09	2.059576e+01	4.831256e+02
2.120000e-06	2.972107e-06	7.384417e-09	2.015199e+01	4.750334e+02
2.130000e-06	2.905664e-06	7.300294e-09	1.970148e+01	4.667719e+02
2.140000e-06	2.838316e-06	7.199192e-09	1.924483e+01	4.583441e+02
2.150000e-06	2.769865e-06	7.161364e-09	1.878071e+01	4.497529e+02
2.160000e-06	2.700039e-06	7.075829e-09	1.830726e+01	4.410015e+02
2.170000e-06	2.629096e-06	6.942745e-09	1.782624e+01	4.320929e+02
2.180000e-06	2.557362e-06	6.870518e-09	1.733986e+01	4.230305e+02
2.190000e-06	2.484898e-06	6.790720e-09	1.684853e+01	4.138173e+02
2.200000e-06	2.411608e-06	6.733602e-09	1.635160e+01	4.044567e+02
2.210000e-06	2.337437e-06	6.592976e-09	1.584869e+01	3.949520e+02
2.220000e-06	2.262384e-06	6.458709e-09	1.533980e+01	3.853067e+02
2.230000e-06	2.186426e-06	6.370958e-09	1.482478e+01	3.755242e+02
2.240000e-06	2.109506e-06	6.281525e-09	1.430323e+01	3.656079e+02
2.250000e-06	2.031501e-06	6.188651e-09	1.377433e+01	3.555615e+02
2.260000e-06	1.952610e-06	6.041804e-09	1.323942e+01	3.453886e+02
2.270000e-06	1.873113e-06	5.919707e-09	1.270040e+01	3.350927e+02
2.280000e-06	1.793114e-06	5.818280e-09	1.215798e+01	3.246776e+02
2.290000e-06	1.712572e-06	5.716154e-09	1.161187e+01	3.141469e+02
2.300000e-06	1.631366e-06	5.577122e-09	1.106127e+01	3.035045e+02
2.310000e-06	1.549511e-06	5.409264e-09	1.050626e+01	2.927541e+02
2.320000e-06	1.467142e-06	5.281442e-09	9.947763e+00	2.818996e+02
2.330000e-06	1.384436e-06	5.165977e-09	9.386985e+00	2.709449e+02
2.340000e-06	1.301420e-06	5.034067e-09	8.824113e+00	2.598939e+02
2.350000e-06	1.218115e-06	4.865037e-09	8.259267e+00	2.487506e+02
2.360000e-06	1.134459e-06	4.698705e-09	7.692055e+00	2.375189e+02
2.370000e-06	1.050351e-06	4.563548e-09	7.121772e+00	2.262028e+02
2.380000e-06	9.657983e-07	4.422408e-09	6.548470e+00	2.148064e+02
2.390000e-06	8.808015e-07	4.254292e-09	5.972160e+00	2.033338e+02
2.400000e-06	7.953182e-07	4.066877e-09	5.392552e+00	1.917891e+02
2.410000e-06	7.093241e-07	3.893291e-09	4.809480e+00	1.801764e+02
2.420000e-06	6.229805e-07	3.734485e-09	4.224038e+00	1.684998e+02
2.430000e-06	5.365456e-07	3.560379e-09	3.637978e+00	1.567636e+02
2.440000e-06	4.499466e-07	3.358767e-09	3.050804e+00	1.449719e+02
2.450000e-06	3.631184e-07	3.152839e-09	2.462077e+00	1.331289e+02
2.460000e-06	2.762032e-07	2.964292e-09	1.872760e+00	1.212390e+02
2.470000e-06	1.892099e-07	2.776054e-09	1.282913e+00	1.093063e+02
2.480000e-06	1.021471e-07	2.564676e-09	6.925951e-01	9.733503e+01
2.490000e-06	1.505143e-08	2.332783e-09	1.020543e-01	8.532959e+01
2.500000e-06	-7.205021e-08	2.106393e-09	-4.885271e-01	7.329422e+01
2.510000e-06	-1.590873e-07	1.895434e-09	-1.078671e+00	6.123325e+01
2.520000e-06	-2.460344e-07	1.673506e-09	-1.668204e+00	4.915096e+01
2.530000e-06	-3.329172e-07	1.426246e-09	-2.257302e+00	3.705170e+01
2.540000e-06	-4.197081e-07	1.170128e-09	-2.845776e+00	2.493978e+01
2.550000e-06	-5.063776e-07	9.230549e-10	-3.433428e+00	1.281954e+01
2.560000e-06	-5.928143e-07	6.787099e-10	-4.019500e+00	6.953071e-01
2.570000e-06	-6.789333e-07	4.139818e-10	-4.603419e+00	-1.142858e+01
2.580000e-06	-7.646822e-07	1.273789e-10	-5.184829e+00	-2.354778e+01
2.590000e-06	-8.499810e-07	-1.560863e-10	-5.763186e+00	-3.565796e+01
2.600000e-06	-9.347895e-07	-4.228787e-10	-6.338219e+00	-4.775480e+01
2.610000e-06	-1.019170e-06	-6.921684e-10	-6.910351e+00	-5.983396e+01
2.620000e-06	-1.103169e-06	-9.808540e-10	-7.479894e+00	-7.189112e+01
2.630000e-06	-1.186789e-06	-1.279207e-09	-8.046869e+00	-8.392198e+01
2.640000e-06	-1.270064e-06	-1.568629e-09	-8.611501e+00	-9.592223e+01
2.650000e-06	-1.352966e-06	-1.849726e-09	-9.173613e+00	-1.078876e+02
2.660000e-06	-1.435455e-06	-2.139248e-09	-9.732918e+00	-1.198137e+02
2.670000e-06	-1.517506e-06	-2.438776e-09	-1.028925e+01	-1.316965e+02
2.680000e-06	-1.599068e-06	-2.730306e-09	-1.084227e+01	-1.435315e+02
2.690000e-06	-1.680020e-06	-3.002144e-09	-1.139116e+01	-1.553146e+02
2.700000e-06	-1.760403e-06	-3.264062e-09	-1.193618e+01	-1.670415e+02
2.710000e-06	-1.840269e-06	-3.529790e-09	-1.247771e+01	-1.787082e+02
2.720000e-06	-1.919619e-06	-3.796008e-09	-1.301573e+01	-1.903103e+02
2.730000e-06	-1.998372e-06	-4.048436e-09	-1.354970e+01	-2.018437e+02
2.740000e-06	-2.076220e-06	-4.286351e-09	-1.407754e+01	-2.133044e+02
2.750000e-06	-2.152881e-06	-4.521527e-09	-1.459733e+01	-2.246882e+02
2.760000e-06	-2.228476e-06	-4.757424e-09	-1.510990e+01	-2.359910e+02
2.770000e-06	-2.303262e-06	-4.983857e-09	-1.561697e+01	-2.472088e+02
2.780000e-06	-2.377259e-06	-5.190420e-09	-1.611870e+01	-2.583376e+02
2.790000e-06	-2.450439e-06	-5.383056e-09	-1.661488e+01	-2.693735e+02
2.800000e-06	-2.522758e-06	-5.572009e-09	-1.710523e+01	-2.803124e+02
2.810000e-06	-2.594256e-06	-5.757495e-09	-1.759002e+01	-2.911504e+02
2.820000e-06	-2.664977e-06	-5.931874e-09	-1.806953e+01	-3.018838e+02
2.830000e-06	-2.734604e-06	-6.092210e-09	-1.854163e+01	-3.125085e+02
2.840000e-06	-2.802919e-06	-6.247580e-09	-1.900483e+01	-3.230210e+02
2.850000e-06	-2.870261e-06	-6.404037e-09	-1.946143e+01	-3.334172e+02
2.860000e-06	-2.936797e-06	-6.555381e-09	-1.991257e+01	-3.436937e+02
2.870000e-06	-3.002373e-06	-6.691729e-09	-2.035720e+01	-3.538466e+02
2.880000e-06	-3.066901e-06	-6.816263e-09	-2.079472e+01	-3.638724e+02
2.890000e-06	-3.130452e-06	-6.938485e-09	-2.122563e+01	-3.737674e+02
2.900000e-06	-3.193010e-06	-7.060515e-09	-2.164979e+01	-3.835282e+02
2.910000e-06	-3.254149e-06	-7.175981e-09	-2.206433e+01	-3.931512e+02
2.920000e-06	-3.313877e-06	-7.279780e-09	-2.246931e+01	-4.026331e+02
2.930000e-06	-3.372619e-06	-7.378074e-09	-2.286761e+01	-4.119703e+02
2.940000e-06	-3.430273e-06	-7.477685e-09	-2.325852e+01	-4.211595e+02
