# Temperatura_=_20.0
# Concentracion g/m^3_=_10000.0
# C_Vs_to_Am_M_A/Vsm_=_65563218390.804596
# pendiente_HvsI_1/m_=_3716.3
# ordenada_HvsI_A/m_=_1297.0
# frecuencia_Hz_=_300965.64162059204

Tiempo_(s)	Campo_(V.s)	Magnetizacion_(V.s)	Campo_(kA/m)	Magnetizacion_(A/m)
0.000000e+00	-4.539000e-06	-1.747651e-10	-3.087294e+01	-1.213007e+01
1.000000e-08	-4.537153e-06	-1.782135e-10	-3.086037e+01	-1.215688e+01
2.000000e-08	-4.533638e-06	-1.824454e-10	-3.083646e+01	-1.217934e+01
3.000000e-08	-4.528635e-06	-1.856538e-10	-3.080244e+01	-1.219744e+01
4.000000e-08	-4.522305e-06	-1.884256e-10	-3.075938e+01	-1.221117e+01
5.000000e-08	-4.514626e-06	-1.893699e-10	-3.070715e+01	-1.222052e+01
6.000000e-08	-4.505444e-06	-1.903551e-10	-3.064470e+01	-1.222551e+01
7.000000e-08	-4.494545e-06	-1.923287e-10	-3.057057e+01	-1.222611e+01
8.000000e-08	-4.481807e-06	-1.945525e-10	-3.048393e+01	-1.222234e+01
9.000000e-08	-4.467016e-06	-2.106712e-10	-3.038332e+01	-1.221420e+01
1.000000e-07	-4.450025e-06	-1.909168e-10	-3.026775e+01	-1.220168e+01
1.100000e-07	-4.431227e-06	-1.583958e-10	-3.013989e+01	-1.218479e+01
1.200000e-07	-4.411194e-06	-1.437454e-10	-3.000364e+01	-1.216354e+01
1.300000e-07	-4.390241e-06	-1.660379e-10	-2.986112e+01	-1.213794e+01
1.400000e-07	-4.368086e-06	-2.529348e-10	-2.971043e+01	-1.210799e+01
1.500000e-07	-4.344495e-06	-2.070837e-10	-2.954997e+01	-1.207370e+01
1.600000e-07	-4.319667e-06	-1.434342e-10	-2.938110e+01	-1.203510e+01
1.700000e-07	-4.293141e-06	-2.287009e-10	-2.920067e+01	-1.199218e+01
1.800000e-07	-4.264735e-06	-2.070434e-10	-2.900747e+01	-1.194497e+01
1.900000e-07	-4.235033e-06	-1.442983e-10	-2.880544e+01	-1.189348e+01
2.000000e-07	-4.204044e-06	-2.146858e-10	-2.859466e+01	-1.183774e+01
2.100000e-07	-4.171572e-06	-1.738882e-10	-2.837380e+01	-1.177775e+01
2.200000e-07	-4.137573e-06	-1.288613e-10	-2.814255e+01	-1.171355e+01
2.300000e-07	-4.102012e-06	-2.081711e-10	-2.790067e+01	-1.164516e+01
2.400000e-07	-4.065031e-06	-1.904886e-10	-2.764913e+01	-1.157259e+01
2.500000e-07	-4.026541e-06	-1.775723e-10	-2.738734e+01	-1.149589e+01
2.600000e-07	-3.986552e-06	-1.853548e-10	-2.711535e+01	-1.141506e+01
2.700000e-07	-3.945319e-06	-1.606284e-10	-2.683489e+01	-1.133015e+01
2.800000e-07	-3.902674e-06	-1.895542e-10	-2.654483e+01	-1.124118e+01
2.900000e-07	-3.858434e-06	-1.739467e-10	-2.624392e+01	-1.114819e+01
3.000000e-07	-3.812679e-06	-1.314751e-10	-2.593271e+01	-1.105120e+01
3.100000e-07	-3.765462e-06	-1.563116e-10	-2.561156e+01	-1.095026e+01
3.200000e-07	-3.716944e-06	-1.625335e-10	-2.528155e+01	-1.084539e+01
3.300000e-07	-3.667009e-06	-1.660066e-10	-2.494191e+01	-1.073664e+01
3.400000e-07	-3.615325e-06	-1.772131e-10	-2.459037e+01	-1.062405e+01
3.500000e-07	-3.561986e-06	-1.637328e-10	-2.422758e+01	-1.050765e+01
3.600000e-07	-3.507318e-06	-1.489106e-10	-2.385574e+01	-1.038749e+01
3.700000e-07	-3.451561e-06	-1.553326e-10	-2.347649e+01	-1.026361e+01
3.800000e-07	-3.394808e-06	-1.634694e-10	-2.309048e+01	-1.013605e+01
3.900000e-07	-3.336693e-06	-1.303126e-10	-2.269520e+01	-1.000486e+01
4.000000e-07	-3.277057e-06	-1.223064e-10	-2.228957e+01	-9.870085e+00
4.100000e-07	-3.216368e-06	-1.351426e-10	-2.187678e+01	-9.731777e+00
4.200000e-07	-3.154750e-06	-1.315860e-10	-2.145767e+01	-9.589984e+00
4.300000e-07	-3.092009e-06	-1.323746e-10	-2.103093e+01	-9.444755e+00
4.400000e-07	-3.028140e-06	-1.251429e-10	-2.059652e+01	-9.296142e+00
4.500000e-07	-2.963335e-06	-1.217799e-10	-2.015573e+01	-9.144199e+00
4.600000e-07	-2.897387e-06	-1.310694e-10	-1.970717e+01	-8.988981e+00
4.700000e-07	-2.830041e-06	-1.277407e-10	-1.924910e+01	-8.830541e+00
4.800000e-07	-2.761681e-06	-1.142188e-10	-1.878414e+01	-8.668938e+00
4.900000e-07	-2.692542e-06	-9.888458e-11	-1.831387e+01	-8.504229e+00
5.000000e-07	-2.622533e-06	-9.468345e-11	-1.783770e+01	-8.336473e+00
5.100000e-07	-2.551636e-06	-1.029205e-10	-1.735547e+01	-8.165729e+00
5.200000e-07	-2.479871e-06	-1.044682e-10	-1.686735e+01	-7.992059e+00
5.300000e-07	-2.407360e-06	-1.025063e-10	-1.637415e+01	-7.815525e+00
5.400000e-07	-2.333916e-06	-9.970643e-11	-1.587460e+01	-7.636189e+00
5.500000e-07	-2.259200e-06	-1.058867e-10	-1.536641e+01	-7.454117e+00
5.600000e-07	-2.183450e-06	-1.056915e-10	-1.485118e+01	-7.269373e+00
5.700000e-07	-2.106905e-06	-9.320549e-11	-1.433054e+01	-7.082023e+00
5.800000e-07	-2.029533e-06	-8.066155e-11	-1.380428e+01	-6.892134e+00
5.900000e-07	-1.951433e-06	-7.035123e-11	-1.327307e+01	-6.699774e+00
6.000000e-07	-1.872727e-06	-7.248550e-11	-1.273774e+01	-6.505011e+00
6.100000e-07	-1.793285e-06	-7.654426e-11	-1.219739e+01	-6.307916e+00
6.200000e-07	-1.712769e-06	-7.560279e-11	-1.164975e+01	-6.108559e+00
6.300000e-07	-1.631401e-06	-7.103926e-11	-1.109630e+01	-5.907011e+00
6.400000e-07	-1.549623e-06	-7.140562e-11	-1.054008e+01	-5.703343e+00
6.500000e-07	-1.467504e-06	-7.558975e-11	-9.981530e+00	-5.497630e+00
6.600000e-07	-1.384922e-06	-7.400967e-11	-9.419830e+00	-5.289944e+00
6.700000e-07	-1.301730e-06	-6.634234e-11	-8.853979e+00	-5.080359e+00
6.800000e-07	-1.218029e-06	-5.703042e-11	-8.284671e+00	-4.868951e+00
6.900000e-07	-1.134025e-06	-5.444216e-11	-7.713305e+00	-4.655795e+00
7.000000e-07	-1.049787e-06	-5.466139e-11	-7.140343e+00	-4.440968e+00
7.100000e-07	-9.652915e-07	-5.125797e-11	-6.565627e+00	-4.224545e+00
7.200000e-07	-8.805165e-07	-4.604869e-11	-5.989013e+00	-4.006605e+00
7.300000e-07	-7.954603e-07	-4.618525e-11	-5.410486e+00	-3.787225e+00
7.400000e-07	-7.102191e-07	-5.095561e-11	-4.830700e+00	-3.566484e+00
7.500000e-07	-6.247861e-07	-5.578820e-11	-4.249610e+00	-3.344461e+00
7.600000e-07	-5.390397e-07	-5.487720e-11	-3.666388e+00	-3.121234e+00
7.700000e-07	-4.530500e-07	-4.547077e-11	-3.081512e+00	-2.896884e+00
7.800000e-07	-3.669856e-07	-3.659176e-11	-2.496127e+00	-2.671492e+00
7.900000e-07	-2.808773e-07	-3.138871e-11	-1.910444e+00	-2.445136e+00
8.000000e-07	-1.945853e-07	-2.872918e-11	-1.323512e+00	-2.217900e+00
8.100000e-07	-1.081651e-07	-2.398976e-11	-7.357072e-01	-1.989862e+00
8.200000e-07	-2.172668e-08	-2.103344e-11	-1.477784e-01	-1.761106e+00
8.300000e-07	6.471130e-08	-2.438901e-11	4.401471e-01	-1.531713e+00
8.400000e-07	1.510912e-07	-3.286634e-11	1.027678e+00	-1.301765e+00
8.500000e-07	2.374713e-07	-3.622543e-11	1.615210e+00	-1.071344e+00
8.600000e-07	3.238155e-07	-2.706424e-11	2.202497e+00	-8.405328e-01
8.700000e-07	4.100513e-07	-1.495660e-11	2.789047e+00	-6.094133e-01
8.800000e-07	4.961257e-07	-7.262441e-12	3.374500e+00	-3.780684e-01
8.900000e-07	5.819809e-07	-4.145017e-12	3.958462e+00	-1.465807e-01
9.000000e-07	6.676537e-07	5.508803e-13	4.541183e+00	8.496686e-02
9.100000e-07	7.530697e-07	5.556489e-12	5.122157e+00	3.164917e-01
9.200000e-07	8.381542e-07	7.572668e-12	5.700877e+00	5.479109e-01
9.300000e-07	9.229351e-07	3.997798e-12	6.277531e+00	7.791419e-01
9.400000e-07	1.007500e-06	2.550458e-12	6.852717e+00	1.010102e+00
9.500000e-07	1.091902e-06	9.585584e-12	7.426793e+00	1.240709e+00
9.600000e-07	1.176052e-06	1.999345e-11	7.999160e+00	1.470879e+00
9.700000e-07	1.259801e-06	2.753009e-11	8.568796e+00	1.700532e+00
9.800000e-07	1.343020e-06	3.019813e-11	9.134822e+00	1.929584e+00
9.900000e-07	1.425733e-06	3.453976e-11	9.697413e+00	2.157954e+00
1.000000e-06	1.507896e-06	4.173819e-11	1.025626e+01	2.385560e+00
1.010000e-06	1.589500e-06	4.734736e-11	1.081131e+01	2.612322e+00
1.020000e-06	1.670614e-06	4.784899e-11	1.136302e+01	2.838157e+00
1.030000e-06	1.751235e-06	4.614166e-11	1.191138e+01	3.062985e+00
1.040000e-06	1.831195e-06	4.848135e-11	1.245525e+01	3.286726e+00
1.050000e-06	1.910342e-06	5.626894e-11	1.299358e+01	3.509299e+00
1.060000e-06	1.988730e-06	6.248172e-11	1.352675e+01	3.730626e+00
1.070000e-06	2.066390e-06	6.160315e-11	1.405497e+01	3.950627e+00
1.080000e-06	2.143371e-06	6.226380e-11	1.457857e+01	4.169224e+00
1.090000e-06	2.219654e-06	6.930590e-11	1.509743e+01	4.386337e+00
1.100000e-06	2.295050e-06	7.960418e-11	1.561025e+01	4.601891e+00
1.110000e-06	2.369215e-06	8.609484e-11	1.611470e+01	4.815807e+00
1.120000e-06	2.442259e-06	9.032214e-11	1.661152e+01	5.028009e+00
1.130000e-06	2.514587e-06	9.540852e-11	1.710347e+01	5.238422e+00
1.140000e-06	2.586163e-06	9.889201e-11	1.759032e+01	5.446970e+00
1.150000e-06	2.656838e-06	9.855543e-11	1.807103e+01	5.653579e+00
1.160000e-06	2.726475e-06	9.366708e-11	1.854468e+01	5.858174e+00
1.170000e-06	2.795231e-06	9.202899e-11	1.901233e+01	6.060683e+00
1.180000e-06	2.863264e-06	9.949581e-11	1.947507e+01	6.261033e+00
1.190000e-06	2.930201e-06	1.132760e-10	1.993036e+01	6.459153e+00
1.200000e-06	2.995784e-06	1.232136e-10	2.037644e+01	6.654972e+00
1.210000e-06	3.060254e-06	1.270440e-10	2.081494e+01	6.848419e+00
1.220000e-06	3.123795e-06	1.277781e-10	2.124713e+01	7.039427e+00
1.230000e-06	3.186310e-06	1.286712e-10	2.167234e+01	7.227925e+00
1.240000e-06	3.247767e-06	1.245592e-10	2.209035e+01	7.413848e+00
1.250000e-06	3.308257e-06	1.167679e-10	2.250178e+01	7.597129e+00
1.260000e-06	3.367661e-06	1.151681e-10	2.290583e+01	7.777701e+00
1.270000e-06	3.425616e-06	1.211975e-10	2.330002e+01	7.955501e+00
1.280000e-06	3.482168e-06	1.311703e-10	2.368467e+01	8.130466e+00
1.290000e-06	3.537525e-06	1.397235e-10	2.406120e+01	8.302531e+00
1.300000e-06	3.591680e-06	1.449354e-10	2.442954e+01	8.471637e+00
1.310000e-06	3.644527e-06	1.476038e-10	2.478899e+01	8.637722e+00
1.320000e-06	3.695795e-06	1.481242e-10	2.513771e+01	8.800727e+00
1.330000e-06	3.745348e-06	1.432680e-10	2.547475e+01	8.960595e+00
1.340000e-06	3.793441e-06	1.365269e-10	2.580186e+01	9.117267e+00
1.350000e-06	3.840244e-06	1.324854e-10	2.612020e+01	9.270688e+00
1.360000e-06	3.885734e-06	1.323406e-10	2.642961e+01	9.420802e+00
1.370000e-06	3.930014e-06	1.363357e-10	2.673079e+01	9.567558e+00
1.380000e-06	3.972872e-06	1.413615e-10	2.702230e+01	9.710901e+00
1.390000e-06	4.014121e-06	1.448447e-10	2.730286e+01	9.850780e+00
1.400000e-06	4.053974e-06	1.471403e-10	2.757393e+01	9.987147e+00
1.410000e-06	4.092452e-06	1.479468e-10	2.783565e+01	1.011995e+01
1.420000e-06	4.129575e-06	1.465695e-10	2.808815e+01	1.024915e+01
1.430000e-06	4.165406e-06	1.432086e-10	2.833186e+01	1.037468e+01
1.440000e-06	4.199636e-06	1.392475e-10	2.856468e+01	1.049652e+01
1.450000e-06	4.232268e-06	1.376028e-10	2.878664e+01	1.061462e+01
1.460000e-06	4.263524e-06	1.387480e-10	2.899923e+01	1.072893e+01
1.470000e-06	4.293343e-06	1.422644e-10	2.920205e+01	1.083941e+01
1.480000e-06	4.321798e-06	1.459816e-10	2.939559e+01	1.094602e+01
1.490000e-06	4.348685e-06	1.490716e-10	2.957847e+01	1.104873e+01
1.500000e-06	4.373799e-06	1.531251e-10	2.974929e+01	1.114750e+01
1.510000e-06	4.397375e-06	1.547771e-10	2.990965e+01	1.124229e+01
1.520000e-06	4.419522e-06	1.523276e-10	3.006028e+01	1.133307e+01
1.530000e-06	4.440273e-06	1.481718e-10	3.020142e+01	1.141981e+01
1.540000e-06	4.459586e-06	1.451335e-10	3.033278e+01	1.150247e+01
1.550000e-06	4.477269e-06	1.458963e-10	3.045306e+01	1.158103e+01
1.560000e-06	4.493224e-06	1.472817e-10	3.056158e+01	1.165546e+01
1.570000e-06	4.507548e-06	1.473631e-10	3.065901e+01	1.172573e+01
1.580000e-06	4.520287e-06	1.504988e-10	3.074565e+01	1.179182e+01
1.590000e-06	4.531117e-06	1.571650e-10	3.081932e+01	1.185370e+01
1.600000e-06	4.540069e-06	1.622122e-10	3.088021e+01	1.191135e+01
1.610000e-06	4.547484e-06	1.637960e-10	3.093064e+01	1.196475e+01
1.620000e-06	4.553402e-06	1.626118e-10	3.097089e+01	1.201389e+01
1.630000e-06	4.557865e-06	1.613375e-10	3.100125e+01	1.205873e+01
1.640000e-06	4.560677e-06	1.609404e-10	3.102038e+01	1.209928e+01
1.650000e-06	4.561710e-06	1.584101e-10	3.102740e+01	1.213550e+01
1.660000e-06	4.561178e-06	1.558124e-10	3.102379e+01	1.216740e+01
1.670000e-06	4.559249e-06	1.556835e-10	3.101066e+01	1.219496e+01
1.680000e-06	4.556012e-06	1.607992e-10	3.098864e+01	1.221817e+01
1.690000e-06	4.551272e-06	1.665814e-10	3.095641e+01	1.223701e+01
1.700000e-06	4.544838e-06	1.692984e-10	3.091265e+01	1.225149e+01
1.710000e-06	4.536922e-06	1.685362e-10	3.085880e+01	1.226161e+01
1.720000e-06	4.527696e-06	1.663279e-10	3.079605e+01	1.226734e+01
1.730000e-06	4.517098e-06	1.747691e-10	3.072396e+01	1.226870e+01
1.740000e-06	4.504898e-06	1.616798e-10	3.064098e+01	1.226568e+01
1.750000e-06	4.490514e-06	1.448934e-10	3.054315e+01	1.225829e+01
1.760000e-06	4.473638e-06	1.694293e-10	3.042836e+01	1.224652e+01
1.770000e-06	4.454858e-06	1.807494e-10	3.030063e+01	1.223039e+01
1.780000e-06	4.435172e-06	2.142998e-10	3.016673e+01	1.220989e+01
1.790000e-06	4.415086e-06	1.596400e-10	3.003011e+01	1.218503e+01
1.800000e-06	4.393642e-06	1.048401e-10	2.988425e+01	1.215583e+01
1.810000e-06	4.369910e-06	2.365705e-10	2.972284e+01	1.212229e+01
1.820000e-06	4.344757e-06	2.001879e-10	2.955175e+01	1.208443e+01
1.830000e-06	4.318517e-06	1.279355e-10	2.937327e+01	1.204225e+01
1.840000e-06	4.290244e-06	2.458872e-10	2.918097e+01	1.199578e+01
1.850000e-06	4.260049e-06	1.912935e-10	2.897559e+01	1.194503e+01
1.860000e-06	4.228539e-06	1.243444e-10	2.876127e+01	1.189002e+01
1.870000e-06	4.195729e-06	2.551576e-10	2.853811e+01	1.183077e+01
1.880000e-06	4.161640e-06	2.184741e-10	2.830624e+01	1.176730e+01
1.890000e-06	4.126046e-06	1.736197e-10	2.806414e+01	1.169963e+01
1.900000e-06	4.088672e-06	2.352179e-10	2.780994e+01	1.162778e+01
1.910000e-06	4.049772e-06	1.863754e-10	2.754535e+01	1.155179e+01
1.920000e-06	4.009440e-06	2.294541e-10	2.727102e+01	1.147168e+01
1.930000e-06	3.967791e-06	2.208374e-10	2.698774e+01	1.138748e+01
1.940000e-06	3.925025e-06	1.493467e-10	2.669685e+01	1.129922e+01
1.950000e-06	3.880910e-06	2.284078e-10	2.639680e+01	1.120692e+01
1.960000e-06	3.835410e-06	2.048586e-10	2.608732e+01	1.111063e+01
1.970000e-06	3.788474e-06	1.750280e-10	2.576808e+01	1.101038e+01
1.980000e-06	3.740021e-06	2.034321e-10	2.543852e+01	1.090620e+01
1.990000e-06	3.690263e-06	1.551209e-10	2.510007e+01	1.079813e+01
2.000000e-06	3.639177e-06	1.884858e-10	2.475261e+01	1.068621e+01
2.010000e-06	3.586688e-06	1.937168e-10	2.439559e+01	1.057048e+01
2.020000e-06	3.532627e-06	1.854819e-10	2.402788e+01	1.045098e+01
2.030000e-06	3.477069e-06	1.928576e-10	2.364999e+01	1.032775e+01
2.040000e-06	3.420326e-06	1.504031e-10	2.326404e+01	1.020084e+01
2.050000e-06	3.362415e-06	1.814391e-10	2.287015e+01	1.007030e+01
2.060000e-06	3.303450e-06	1.541316e-10	2.246909e+01	9.936161e+00
2.070000e-06	3.243349e-06	1.398767e-10	2.206030e+01	9.798483e+00
2.080000e-06	3.181803e-06	1.586984e-10	2.164168e+01	9.657311e+00
2.090000e-06	3.118982e-06	1.415383e-10	2.121439e+01	9.512697e+00
2.100000e-06	3.055165e-06	1.810838e-10	2.078033e+01	9.364692e+00
2.110000e-06	2.990307e-06	1.589738e-10	2.033918e+01	9.213349e+00
2.120000e-06	2.924403e-06	1.481866e-10	1.989093e+01	9.058722e+00
2.130000e-06	2.857582e-06	1.453938e-10	1.943643e+01	8.900867e+00
2.140000e-06	2.789871e-06	1.246057e-10	1.897587e+01	8.739839e+00
2.150000e-06	2.720904e-06	1.445178e-10	1.850679e+01	8.575697e+00
2.160000e-06	2.650665e-06	1.199958e-10	1.802904e+01	8.408500e+00
2.170000e-06	2.579545e-06	1.203742e-10	1.754530e+01	8.238306e+00
2.180000e-06	2.507707e-06	1.249771e-10	1.705668e+01	8.065178e+00
2.190000e-06	2.435039e-06	1.262506e-10	1.656242e+01	7.889176e+00
2.200000e-06	2.361485e-06	1.360362e-10	1.606212e+01	7.710365e+00
2.210000e-06	2.287101e-06	1.171771e-10	1.555619e+01	7.528807e+00
2.220000e-06	2.211814e-06	1.216062e-10	1.504411e+01	7.344567e+00
2.230000e-06	2.135650e-06	1.149920e-10	1.452606e+01	7.157713e+00
2.240000e-06	2.058445e-06	1.108610e-10	1.400093e+01	6.968310e+00
2.250000e-06	1.980088e-06	1.058204e-10	1.346797e+01	6.776426e+00
2.260000e-06	1.901006e-06	8.955145e-11	1.293008e+01	6.582130e+00
2.270000e-06	1.821475e-06	9.183920e-11	1.238914e+01	6.385491e+00
2.280000e-06	1.741387e-06	9.445998e-11	1.184440e+01	6.186579e+00
2.290000e-06	1.660690e-06	1.058152e-10	1.129552e+01	5.985467e+00
2.300000e-06	1.579483e-06	1.007444e-10	1.074317e+01	5.782225e+00
2.310000e-06	1.497813e-06	9.275327e-11	1.018768e+01	5.576927e+00
2.320000e-06	1.415575e-06	9.298472e-11	9.628322e+00	5.369645e+00
2.330000e-06	1.332789e-06	8.730742e-11	9.065236e+00	5.160455e+00
2.340000e-06	1.249670e-06	8.022780e-11	8.499886e+00	4.949430e+00
2.350000e-06	1.166383e-06	6.348447e-11	7.933389e+00	4.736646e+00
2.360000e-06	1.082867e-06	6.120132e-11	7.365341e+00	4.522180e+00
2.370000e-06	9.988994e-07	6.518113e-11	6.794218e+00	4.306108e+00
2.380000e-06	9.144212e-07	6.740739e-11	6.219622e+00	4.088507e+00
2.390000e-06	8.296250e-07	6.730141e-11	5.642864e+00	3.869456e+00
2.400000e-06	7.445101e-07	6.200661e-11	5.063937e+00	3.649031e+00
2.410000e-06	6.588326e-07	6.088699e-11	4.481185e+00	3.427313e+00
2.420000e-06	5.725760e-07	5.884198e-11	3.894493e+00	3.204381e+00
2.430000e-06	4.860240e-07	5.474575e-11	3.305791e+00	2.980314e+00
2.440000e-06	3.994572e-07	4.330734e-11	2.716989e+00	2.755193e+00
2.450000e-06	3.128503e-07	3.248863e-11	2.127915e+00	2.529097e+00
2.460000e-06	2.260474e-07	2.956575e-11	1.537507e+00	2.302109e+00
2.470000e-06	1.390908e-07	3.167840e-11	9.460545e-01	2.074308e+00
2.480000e-06	5.216003e-08	3.138122e-11	3.547771e-01	1.845777e+00
2.490000e-06	-3.472049e-08	2.753318e-11	-2.361585e-01	1.616598e+00
2.500000e-06	-1.216316e-07	3.003790e-11	-8.273021e-01	1.386851e+00
2.510000e-06	-2.085573e-07	3.480675e-11	-1.418545e+00	1.156620e+00
2.520000e-06	-2.954410e-07	3.192113e-11	-2.009502e+00	9.259863e-01
2.530000e-06	-3.821164e-07	1.880884e-11	-2.599042e+00	6.950330e-01
2.540000e-06	-4.685686e-07	4.680270e-12	-3.187065e+00	4.638425e-01
2.550000e-06	-5.548680e-07	-3.134991e-12	-3.774048e+00	2.324974e-01
2.560000e-06	-6.410211e-07	-7.503750e-12	-4.360036e+00	1.080575e-03
2.570000e-06	-7.268487e-07	-1.319179e-11	-4.943810e+00	-2.303253e-01
2.580000e-06	-8.120581e-07	-1.829861e-11	-5.523379e+00	-4.616374e-01
2.590000e-06	-8.966790e-07	-1.826200e-11	-6.098945e+00	-6.927731e-01
2.600000e-06	-9.809277e-07	-1.392197e-11	-6.671980e+00	-9.236496e-01
2.610000e-06	-1.064891e-06	-1.479453e-11	-7.243073e+00	-1.154184e+00
2.620000e-06	-1.148463e-06	-2.632651e-11	-7.811504e+00	-1.384295e+00
2.630000e-06	-1.231653e-06	-4.026819e-11	-8.377337e+00	-1.613899e+00
2.640000e-06	-1.314528e-06	-4.994648e-11	-8.941029e+00	-1.842915e+00
2.650000e-06	-1.397059e-06	-5.466371e-11	-9.502381e+00	-2.071261e+00
2.660000e-06	-1.479093e-06	-5.933610e-11	-1.006036e+01	-2.298854e+00
2.670000e-06	-1.560561e-06	-6.335729e-11	-1.061448e+01	-2.525613e+00
2.680000e-06	-1.641488e-06	-6.232080e-11	-1.116491e+01	-2.751458e+00
2.690000e-06	-1.721885e-06	-5.756100e-11	-1.171176e+01	-2.976308e+00
2.700000e-06	-1.801787e-06	-5.448582e-11	-1.225522e+01	-3.200082e+00
2.710000e-06	-1.881137e-06	-5.894808e-11	-1.279493e+01	-3.422700e+00
2.720000e-06	-1.959896e-06	-6.909905e-11	-1.333063e+01	-3.644082e+00
2.730000e-06	-2.037818e-06	-7.668877e-11	-1.386063e+01	-3.864150e+00
2.740000e-06	-2.114705e-06	-8.025799e-11	-1.438359e+01	-4.082825e+00
2.750000e-06	-2.190633e-06	-8.651625e-11	-1.490004e+01	-4.300028e+00
2.760000e-06	-2.265603e-06	-9.541133e-11	-1.540996e+01	-4.515682e+00
2.770000e-06	-2.339623e-06	-1.012388e-10	-1.591342e+01	-4.729709e+00
2.780000e-06	-2.412848e-06	-1.014143e-10	-1.641148e+01	-4.942034e+00
2.790000e-06	-2.485361e-06	-9.660182e-11	-1.690469e+01	-5.152580e+00
2.800000e-06	-2.557088e-06	-9.406458e-11	-1.739255e+01	-5.361271e+00
2.810000e-06	-2.627984e-06	-9.780162e-11	-1.787477e+01	-5.568034e+00
2.820000e-06	-2.697866e-06	-1.037094e-10	-1.835009e+01	-5.772794e+00
2.830000e-06	-2.766506e-06	-1.093441e-10	-1.881696e+01	-5.975479e+00
2.840000e-06	-2.834030e-06	-1.149767e-10	-1.927624e+01	-6.176014e+00
2.850000e-06	-2.900629e-06	-1.222986e-10	-1.972922e+01	-6.374330e+00
2.860000e-06	-2.966300e-06	-1.282481e-10	-2.017590e+01	-6.570354e+00
2.870000e-06	-3.030998e-06	-1.284218e-10	-2.061595e+01	-6.764018e+00
2.880000e-06	-3.094722e-06	-1.241928e-10	-2.104938e+01	-6.955251e+00
2.890000e-06	-3.157399e-06	-1.211559e-10	-2.147569e+01	-7.143985e+00
2.900000e-06	-3.218725e-06	-1.224699e-10	-2.189282e+01	-7.330152e+00
2.910000e-06	-3.278737e-06	-1.264257e-10	-2.230100e+01	-7.513687e+00
2.920000e-06	-3.337726e-06	-1.296020e-10	-2.270222e+01	-7.694523e+00
2.930000e-06	-3.395583e-06	-1.333595e-10	-2.309575e+01	-7.872596e+00
2.940000e-06	-3.452219e-06	-1.392732e-10	-2.348097e+01	-8.047842e+00
