# Temperatura_=_20.0
# Concentracion g/m^3_=_10000.0
# C_Vs_to_Am_M_A/Vsm_=_65563218390.804596
# pendiente_HvsI_1/m_=_3716.3
# ordenada_HvsI_A/m_=_1297.0
# frecuencia_Hz_=_300948.1252892391

Tiempo_(s)	Campo_(V.s)	Magnetizacion_(V.s)	Campo_(kA/m)	Magnetizacion_(A/m)
0.000000e+00	-4.565920e-06	-8.924890e-09	-3.088538e+01	-6.347764e+02
1.000000e-08	-4.564877e-06	-8.927186e-09	-3.087832e+01	-6.362085e+02
2.000000e-08	-4.562196e-06	-8.925292e-09	-3.086019e+01	-6.374128e+02
3.000000e-08	-4.557902e-06	-8.921403e-09	-3.083114e+01	-6.383890e+02
4.000000e-08	-4.552287e-06	-8.915697e-09	-3.079316e+01	-6.391366e+02
5.000000e-08	-4.545293e-06	-8.905097e-09	-3.074585e+01	-6.396554e+02
6.000000e-08	-4.536914e-06	-8.892605e-09	-3.068917e+01	-6.399452e+02
7.000000e-08	-4.527017e-06	-8.873817e-09	-3.062222e+01	-6.400059e+02
8.000000e-08	-4.515332e-06	-8.855150e-09	-3.054318e+01	-6.398375e+02
9.000000e-08	-4.501800e-06	-8.896939e-09	-3.045165e+01	-6.394400e+02
1.000000e-07	-4.486023e-06	-8.916006e-09	-3.034493e+01	-6.388136e+02
1.100000e-07	-4.467967e-06	-8.875960e-09	-3.022279e+01	-6.379585e+02
1.200000e-07	-4.448323e-06	-8.820186e-09	-3.008991e+01	-6.368750e+02
1.300000e-07	-4.427697e-06	-8.689827e-09	-2.995039e+01	-6.355635e+02
1.400000e-07	-4.406123e-06	-8.773010e-09	-2.980445e+01	-6.340245e+02
1.500000e-07	-4.383148e-06	-8.868562e-09	-2.964904e+01	-6.322585e+02
1.600000e-07	-4.358857e-06	-8.641084e-09	-2.948473e+01	-6.302661e+02
1.700000e-07	-4.333157e-06	-8.694659e-09	-2.931089e+01	-6.280480e+02
1.800000e-07	-4.305522e-06	-8.799939e-09	-2.912396e+01	-6.256051e+02
1.900000e-07	-4.276255e-06	-8.605896e-09	-2.892599e+01	-6.229383e+02
2.000000e-07	-4.245852e-06	-8.683471e-09	-2.872033e+01	-6.200483e+02
2.100000e-07	-4.214122e-06	-8.721646e-09	-2.850570e+01	-6.169364e+02
2.200000e-07	-4.180776e-06	-8.481179e-09	-2.828014e+01	-6.136036e+02
2.300000e-07	-4.145750e-06	-8.510630e-09	-2.804321e+01	-6.100511e+02
2.400000e-07	-4.109283e-06	-8.575988e-09	-2.779653e+01	-6.062802e+02
2.500000e-07	-4.071484e-06	-8.486949e-09	-2.754085e+01	-6.022921e+02
2.600000e-07	-4.032128e-06	-8.465216e-09	-2.727463e+01	-5.980885e+02
2.700000e-07	-3.991374e-06	-8.377230e-09	-2.699896e+01	-5.936706e+02
2.800000e-07	-3.949268e-06	-8.351605e-09	-2.671414e+01	-5.890402e+02
2.900000e-07	-3.905596e-06	-8.377583e-09	-2.641873e+01	-5.841988e+02
3.000000e-07	-3.860398e-06	-8.282198e-09	-2.611300e+01	-5.791483e+02
3.100000e-07	-3.813743e-06	-8.197463e-09	-2.579740e+01	-5.738904e+02
3.200000e-07	-3.765737e-06	-8.164462e-09	-2.547268e+01	-5.684269e+02
3.300000e-07	-3.716393e-06	-8.153219e-09	-2.513890e+01	-5.627599e+02
3.400000e-07	-3.665350e-06	-8.123058e-09	-2.479363e+01	-5.568914e+02
3.500000e-07	-3.612530e-06	-8.043966e-09	-2.443633e+01	-5.508234e+02
3.600000e-07	-3.558262e-06	-7.949924e-09	-2.406925e+01	-5.445582e+02
3.700000e-07	-3.502768e-06	-7.890625e-09	-2.369387e+01	-5.380979e+02
3.800000e-07	-3.446324e-06	-7.894690e-09	-2.331206e+01	-5.314449e+02
3.900000e-07	-3.388744e-06	-7.838948e-09	-2.292257e+01	-5.246016e+02
4.000000e-07	-3.329590e-06	-7.720684e-09	-2.252244e+01	-5.175703e+02
4.100000e-07	-3.269152e-06	-7.663401e-09	-2.211361e+01	-5.103537e+02
4.200000e-07	-3.207714e-06	-7.621207e-09	-2.169802e+01	-5.029543e+02
4.300000e-07	-3.145187e-06	-7.564263e-09	-2.127507e+01	-4.953747e+02
4.400000e-07	-3.081560e-06	-7.471162e-09	-2.084468e+01	-4.876177e+02
4.500000e-07	-3.016954e-06	-7.359524e-09	-2.040767e+01	-4.796859e+02
4.600000e-07	-2.951195e-06	-7.305644e-09	-1.996285e+01	-4.715823e+02
4.700000e-07	-2.884019e-06	-7.265236e-09	-1.950845e+01	-4.633098e+02
4.800000e-07	-2.815781e-06	-7.194747e-09	-1.904686e+01	-4.548713e+02
4.900000e-07	-2.746782e-06	-7.081251e-09	-1.858013e+01	-4.462698e+02
5.000000e-07	-2.676827e-06	-6.975666e-09	-1.810693e+01	-4.375084e+02
5.100000e-07	-2.605899e-06	-6.908528e-09	-1.762716e+01	-4.285902e+02
5.200000e-07	-2.534204e-06	-6.831610e-09	-1.714218e+01	-4.195185e+02
5.300000e-07	-2.461827e-06	-6.725385e-09	-1.665261e+01	-4.102964e+02
5.400000e-07	-2.388507e-06	-6.601873e-09	-1.615664e+01	-4.009272e+02
5.500000e-07	-2.313901e-06	-6.512754e-09	-1.565199e+01	-3.914144e+02
5.600000e-07	-2.238172e-06	-6.446281e-09	-1.513973e+01	-3.817612e+02
5.700000e-07	-2.161619e-06	-6.349734e-09	-1.462190e+01	-3.719712e+02
5.800000e-07	-2.084253e-06	-6.216793e-09	-1.409857e+01	-3.620479e+02
5.900000e-07	-2.006059e-06	-6.084161e-09	-1.356964e+01	-3.519947e+02
6.000000e-07	-1.927179e-06	-5.981032e-09	-1.303607e+01	-3.418154e+02
6.100000e-07	-1.847543e-06	-5.881800e-09	-1.249739e+01	-3.315134e+02
6.200000e-07	-1.766953e-06	-5.755077e-09	-1.195225e+01	-3.210926e+02
6.300000e-07	-1.685479e-06	-5.610598e-09	-1.140113e+01	-3.105566e+02
6.400000e-07	-1.603439e-06	-5.484944e-09	-1.084619e+01	-2.999092e+02
6.500000e-07	-1.521072e-06	-5.382112e-09	-1.028903e+01	-2.891543e+02
6.600000e-07	-1.438325e-06	-5.261025e-09	-9.729300e+00	-2.782956e+02
6.700000e-07	-1.355013e-06	-5.104307e-09	-9.165749e+00	-2.673370e+02
6.800000e-07	-1.271157e-06	-4.944626e-09	-8.598525e+00	-2.562824e+02
6.900000e-07	-1.186949e-06	-4.806379e-09	-8.028908e+00	-2.451359e+02
7.000000e-07	-1.102522e-06	-4.675020e-09	-7.457817e+00	-2.339013e+02
7.100000e-07	-1.017876e-06	-4.518174e-09	-6.885247e+00	-2.225828e+02
7.200000e-07	-9.329149e-07	-4.341653e-09	-6.310542e+00	-2.111843e+02
7.300000e-07	-8.475997e-07	-4.178477e-09	-5.733442e+00	-1.997099e+02
7.400000e-07	-7.619731e-07	-4.029769e-09	-5.154235e+00	-1.881637e+02
7.500000e-07	-6.760826e-07	-3.869224e-09	-4.573244e+00	-1.765499e+02
7.600000e-07	-5.899533e-07	-3.681049e-09	-3.990637e+00	-1.648726e+02
7.700000e-07	-5.036521e-07	-3.483069e-09	-3.406868e+00	-1.531359e+02
7.800000e-07	-4.172232e-07	-3.299266e-09	-2.822234e+00	-1.413441e+02
7.900000e-07	-3.306946e-07	-3.121262e-09	-2.236926e+00	-1.295015e+02
8.000000e-07	-2.440725e-07	-2.923762e-09	-1.650986e+00	-1.176121e+02
8.100000e-07	-1.573532e-07	-2.706333e-09	-1.064389e+00	-1.056803e+02
8.200000e-07	-7.054664e-08	-2.492633e-09	-4.772005e-01	-9.371029e+01
8.300000e-07	1.631920e-08	-2.292527e-09	1.103884e-01	-8.170642e+01
8.400000e-07	1.031768e-07	-2.086006e-09	6.979219e-01	-6.967295e+01
8.500000e-07	1.899639e-07	-1.853855e-09	1.284978e+00	-5.761418e+01
8.600000e-07	2.766953e-07	-1.606684e-09	1.871657e+00	-4.553442e+01
8.700000e-07	3.633483e-07	-1.364015e-09	2.457807e+00	-3.343799e+01
8.800000e-07	4.498847e-07	-1.126113e-09	3.043167e+00	-2.132922e+01
8.900000e-07	5.363133e-07	-8.759810e-10	3.627798e+00	-9.212427e+00
9.000000e-07	6.225355e-07	-6.090664e-10	4.211034e+00	2.908054e+00
9.100000e-07	7.084824e-07	-3.411319e-10	4.792407e+00	1.502789e+01
9.200000e-07	7.941790e-07	-8.146729e-11	5.372087e+00	2.714275e+01
9.300000e-07	8.796038e-07	1.820416e-10	5.949928e+00	3.924830e+01
9.400000e-07	9.647052e-07	4.658538e-10	6.525582e+00	5.134022e+01
9.500000e-07	1.049488e-06	7.623519e-10	7.099080e+00	6.341418e+01
9.600000e-07	1.134019e-06	1.051334e-09	7.670877e+00	7.546587e+01
9.700000e-07	1.218314e-06	1.330723e-09	8.241072e+00	8.749098e+01
9.800000e-07	1.302346e-06	1.615666e-09	8.809493e+00	9.948521e+01
9.900000e-07	1.385984e-06	1.911207e-09	9.375248e+00	1.114443e+02
1.000000e-06	1.469025e-06	2.204243e-09	9.936967e+00	1.233639e+02
1.010000e-06	1.551428e-06	2.483511e-09	1.049437e+01	1.352398e+02
1.020000e-06	1.633262e-06	2.756138e-09	1.104792e+01	1.470678e+02
1.030000e-06	1.714567e-06	3.037110e-09	1.159789e+01	1.588436e+02
1.040000e-06	1.795304e-06	3.321983e-09	1.214403e+01	1.705631e+02
1.050000e-06	1.875323e-06	3.592982e-09	1.268530e+01	1.822219e+02
1.060000e-06	1.954542e-06	3.846782e-09	1.322116e+01	1.938160e+02
1.070000e-06	2.033069e-06	4.092287e-09	1.375234e+01	2.053413e+02
1.080000e-06	2.110938e-06	4.336317e-09	1.427907e+01	2.167935e+02
1.090000e-06	2.188068e-06	4.573594e-09	1.480081e+01	2.281686e+02
1.100000e-06	2.264381e-06	4.796759e-09	1.531701e+01	2.394626e+02
1.110000e-06	2.339791e-06	5.008560e-09	1.582712e+01	2.506714e+02
1.120000e-06	2.414039e-06	5.217901e-09	1.632935e+01	2.617910e+02
1.130000e-06	2.487138e-06	5.425793e-09	1.682382e+01	2.728174e+02
1.140000e-06	2.559413e-06	5.620585e-09	1.731270e+01	2.837467e+02
1.150000e-06	2.630891e-06	5.797861e-09	1.779621e+01	2.945749e+02
1.160000e-06	2.701449e-06	5.965118e-09	1.827349e+01	3.052983e+02
1.170000e-06	2.771053e-06	6.131256e-09	1.874431e+01	3.159129e+02
1.180000e-06	2.839787e-06	6.294662e-09	1.920925e+01	3.264150e+02
1.190000e-06	2.907700e-06	6.447976e-09	1.966864e+01	3.368008e+02
1.200000e-06	2.974420e-06	6.588958e-09	2.011995e+01	3.470666e+02
1.210000e-06	3.039744e-06	6.725116e-09	2.056182e+01	3.572088e+02
1.220000e-06	3.104070e-06	6.860875e-09	2.099694e+01	3.672237e+02
1.230000e-06	3.167496e-06	6.989682e-09	2.142598e+01	3.771077e+02
1.240000e-06	3.229833e-06	7.104906e-09	2.184765e+01	3.868574e+02
1.250000e-06	3.291091e-06	7.209803e-09	2.226202e+01	3.964691e+02
1.260000e-06	3.351402e-06	7.315489e-09	2.266998e+01	4.059396e+02
1.270000e-06	3.410519e-06	7.424567e-09	2.306986e+01	4.152653e+02
1.280000e-06	3.468096e-06	7.527473e-09	2.345934e+01	4.244430e+02
1.290000e-06	3.524363e-06	7.618188e-09	2.383994e+01	4.334694e+02
1.300000e-06	3.579492e-06	7.704210e-09	2.421286e+01	4.423413e+02
1.310000e-06	3.633406e-06	7.790299e-09	2.457754e+01	4.510554e+02
1.320000e-06	3.685991e-06	7.873795e-09	2.493325e+01	4.596087e+02
1.330000e-06	3.736947e-06	7.947507e-09	2.527793e+01	4.679981e+02
1.340000e-06	3.786202e-06	8.011905e-09	2.561111e+01	4.762207e+02
1.350000e-06	3.834054e-06	8.075804e-09	2.593479e+01	4.842734e+02
1.360000e-06	3.880624e-06	8.143124e-09	2.624981e+01	4.921535e+02
1.370000e-06	3.925917e-06	8.207813e-09	2.655619e+01	4.998580e+02
1.380000e-06	3.970011e-06	8.264082e-09	2.685445e+01	5.073843e+02
1.390000e-06	4.012604e-06	8.317166e-09	2.714257e+01	5.147296e+02
1.400000e-06	4.053486e-06	8.372641e-09	2.741910e+01	5.218913e+02
1.410000e-06	4.092969e-06	8.427563e-09	2.768618e+01	5.288669e+02
1.420000e-06	4.131139e-06	8.473539e-09	2.794438e+01	5.356538e+02
1.430000e-06	4.168016e-06	8.511965e-09	2.819382e+01	5.422497e+02
1.440000e-06	4.203512e-06	8.550951e-09	2.843393e+01	5.486522e+02
1.450000e-06	4.237307e-06	8.594419e-09	2.866253e+01	5.548589e+02
1.460000e-06	4.269554e-06	8.637269e-09	2.888066e+01	5.608678e+02
1.470000e-06	4.300408e-06	8.672100e-09	2.908937e+01	5.666765e+02
1.480000e-06	4.329860e-06	8.702147e-09	2.928859e+01	5.722832e+02
1.490000e-06	4.357867e-06	8.734121e-09	2.947804e+01	5.776857e+02
1.500000e-06	4.384088e-06	8.766735e-09	2.965540e+01	5.828821e+02
1.510000e-06	4.408608e-06	8.793041e-09	2.982126e+01	5.878705e+02
1.520000e-06	4.431695e-06	8.811939e-09	2.997743e+01	5.926493e+02
1.530000e-06	4.453336e-06	8.829681e-09	3.012382e+01	5.972166e+02
1.540000e-06	4.473585e-06	8.851380e-09	3.026079e+01	6.015709e+02
1.550000e-06	4.492359e-06	8.874252e-09	3.038779e+01	6.057105e+02
1.560000e-06	4.509460e-06	8.892654e-09	3.050347e+01	6.096341e+02
1.570000e-06	4.524850e-06	8.905911e-09	3.060756e+01	6.133402e+02
1.580000e-06	4.538560e-06	8.918214e-09	3.070031e+01	6.168274e+02
1.590000e-06	4.550445e-06	8.932772e-09	3.078070e+01	6.200946e+02
1.600000e-06	4.560380e-06	8.945790e-09	3.084790e+01	6.231406e+02
1.610000e-06	4.568661e-06	8.953635e-09	3.090392e+01	6.259642e+02
1.620000e-06	4.575473e-06	8.958924e-09	3.095000e+01	6.285646e+02
1.630000e-06	4.580779e-06	8.965189e-09	3.098589e+01	6.309406e+02
1.640000e-06	4.584537e-06	8.971843e-09	3.101131e+01	6.330916e+02
1.650000e-06	4.586548e-06	8.976365e-09	3.102491e+01	6.350167e+02
1.660000e-06	4.586916e-06	8.974913e-09	3.102740e+01	6.367152e+02
1.670000e-06	4.585826e-06	8.967919e-09	3.102003e+01	6.381866e+02
1.680000e-06	4.583355e-06	8.966195e-09	3.100332e+01	6.394303e+02
1.690000e-06	4.579574e-06	8.965732e-09	3.097774e+01	6.404458e+02
1.700000e-06	4.574107e-06	8.959692e-09	3.094075e+01	6.412329e+02
1.710000e-06	4.566930e-06	8.950024e-09	3.089221e+01	6.417912e+02
1.720000e-06	4.558406e-06	8.944479e-09	3.083455e+01	6.421205e+02
1.730000e-06	4.548563e-06	8.960712e-09	3.076797e+01	6.422207e+02
1.740000e-06	4.537305e-06	8.953719e-09	3.069181e+01	6.420918e+02
1.750000e-06	4.524188e-06	8.863711e-09	3.060309e+01	6.417339e+02
1.760000e-06	4.508656e-06	8.839473e-09	3.049802e+01	6.411470e+02
1.770000e-06	4.490777e-06	8.840479e-09	3.037709e+01	6.403313e+02
1.780000e-06	4.471323e-06	8.939515e-09	3.024549e+01	6.392872e+02
1.790000e-06	4.451270e-06	8.934062e-09	3.010985e+01	6.380150e+02
1.800000e-06	4.430648e-06	8.702062e-09	2.997035e+01	6.365153e+02
1.810000e-06	4.408133e-06	8.828661e-09	2.981805e+01	6.347884e+02
1.820000e-06	4.383520e-06	8.892482e-09	2.965156e+01	6.328351e+02
1.830000e-06	4.357908e-06	8.660860e-09	2.947831e+01	6.306560e+02
1.840000e-06	4.330842e-06	8.777268e-09	2.929524e+01	6.282520e+02
1.850000e-06	4.301501e-06	8.787234e-09	2.909676e+01	6.256238e+02
1.860000e-06	4.270536e-06	8.529201e-09	2.888730e+01	6.227725e+02
1.870000e-06	4.238344e-06	8.701740e-09	2.866955e+01	6.196990e+02
1.880000e-06	4.204794e-06	8.761977e-09	2.844260e+01	6.164045e+02
1.890000e-06	4.169900e-06	8.548378e-09	2.820657e+01	6.128901e+02
1.900000e-06	4.133223e-06	8.585734e-09	2.795847e+01	6.091570e+02
1.910000e-06	4.094847e-06	8.512796e-09	2.769888e+01	6.052067e+02
1.920000e-06	4.055192e-06	8.499174e-09	2.743064e+01	6.010405e+02
1.930000e-06	4.014123e-06	8.552640e-09	2.715284e+01	5.966600e+02
1.940000e-06	3.971761e-06	8.343100e-09	2.686629e+01	5.920666e+02
1.950000e-06	3.928186e-06	8.353138e-09	2.657153e+01	5.872621e+02
1.960000e-06	3.883211e-06	8.391636e-09	2.626731e+01	5.822481e+02
1.970000e-06	3.836915e-06	8.298783e-09	2.595415e+01	5.770265e+02
1.980000e-06	3.789121e-06	8.279049e-09	2.563085e+01	5.715991e+02
1.990000e-06	3.739870e-06	8.136317e-09	2.529770e+01	5.659678e+02
2.000000e-06	3.689278e-06	8.113840e-09	2.495549e+01	5.601347e+02
2.010000e-06	3.637208e-06	8.119394e-09	2.460326e+01	5.541019e+02
2.020000e-06	3.583610e-06	8.051068e-09	2.424071e+01	5.478715e+02
2.030000e-06	3.528476e-06	7.999118e-09	2.386777e+01	5.414457e+02
2.040000e-06	3.472038e-06	7.853891e-09	2.348600e+01	5.348269e+02
2.050000e-06	3.414458e-06	7.860633e-09	2.309651e+01	5.280174e+02
2.060000e-06	3.355874e-06	7.831433e-09	2.270023e+01	5.210196e+02
2.070000e-06	3.296274e-06	7.707274e-09	2.229707e+01	5.138361e+02
2.080000e-06	3.235119e-06	7.651842e-09	2.188340e+01	5.064694e+02
2.090000e-06	3.172527e-06	7.555154e-09	2.146001e+01	4.989222e+02
2.100000e-06	3.109031e-06	7.550209e-09	2.103050e+01	4.911971e+02
2.110000e-06	3.044521e-06	7.483341e-09	2.059414e+01	4.832970e+02
2.120000e-06	2.978940e-06	7.351077e-09	2.015052e+01	4.752245e+02
2.130000e-06	2.912409e-06	7.271904e-09	1.970049e+01	4.669828e+02
2.140000e-06	2.844988e-06	7.178954e-09	1.924443e+01	4.585746e+02
2.150000e-06	2.776306e-06	7.150317e-09	1.877984e+01	4.500029e+02
2.160000e-06	2.706212e-06	7.050629e-09	1.830570e+01	4.412710e+02
2.170000e-06	2.635176e-06	6.930882e-09	1.782519e+01	4.323818e+02
2.180000e-06	2.563363e-06	6.851214e-09	1.733943e+01	4.233386e+02
2.190000e-06	2.490730e-06	6.772597e-09	1.684811e+01	4.141445e+02
2.200000e-06	2.417292e-06	6.705182e-09	1.635136e+01	4.048030e+02
2.210000e-06	2.342956e-06	6.559567e-09	1.584852e+01	3.953172e+02
2.220000e-06	2.267673e-06	6.439560e-09	1.533928e+01	3.856907e+02
2.230000e-06	2.191485e-06	6.352406e-09	1.482392e+01	3.759268e+02
2.240000e-06	2.114256e-06	6.269660e-09	1.430152e+01	3.660291e+02
2.250000e-06	2.035947e-06	6.167904e-09	1.377181e+01	3.560010e+02
2.260000e-06	1.956907e-06	6.020971e-09	1.323716e+01	3.458463e+02
2.270000e-06	1.877289e-06	5.904287e-09	1.269860e+01	3.355684e+02
2.280000e-06	1.797107e-06	5.798294e-09	1.215622e+01	3.251711e+02
2.290000e-06	1.716343e-06	5.691996e-09	1.160990e+01	3.146582e+02
2.300000e-06	1.634947e-06	5.545671e-09	1.105931e+01	3.040333e+02
2.310000e-06	1.552960e-06	5.386570e-09	1.050473e+01	2.933002e+02
2.320000e-06	1.470470e-06	5.265430e-09	9.946740e+00	2.824628e+02
2.330000e-06	1.387623e-06	5.149953e-09	9.386334e+00	2.715251e+02
2.340000e-06	1.304511e-06	5.017333e-09	8.824142e+00	2.604908e+02
2.350000e-06	1.221130e-06	4.849585e-09	8.260123e+00	2.493639e+02
2.360000e-06	1.137337e-06	4.691491e-09	7.693318e+00	2.381485e+02
2.370000e-06	1.053003e-06	4.554195e-09	7.122859e+00	2.268485e+02
2.380000e-06	9.680945e-07	4.407721e-09	6.548508e+00	2.154679e+02
2.390000e-06	8.826218e-07	4.236617e-09	5.970343e+00	2.040109e+02
2.400000e-06	7.966120e-07	4.053096e-09	5.388544e+00	1.924815e+02
2.410000e-06	7.101886e-07	3.885858e-09	4.803948e+00	1.808839e+02
2.420000e-06	6.235233e-07	3.726959e-09	4.217716e+00	1.692222e+02
2.430000e-06	5.367195e-07	3.551040e-09	3.630546e+00	1.575005e+02
2.440000e-06	4.498130e-07	3.347385e-09	3.042682e+00	1.457232e+02
2.450000e-06	3.628045e-07	3.143669e-09	2.454128e+00	1.338943e+02
2.460000e-06	2.757212e-07	2.956880e-09	1.865068e+00	1.220181e+02
2.470000e-06	1.885998e-07	2.769680e-09	1.275751e+00	1.100989e+02
2.480000e-06	1.014573e-07	2.560685e-09	6.862905e-01	9.814087e+01
2.490000e-06	1.430719e-08	2.333474e-09	9.677849e-02	8.614837e+01
2.500000e-06	-7.285459e-08	2.113728e-09	-4.928123e-01	7.412565e+01
2.510000e-06	-1.599948e-07	1.904148e-09	-1.082257e+00	6.207702e+01
2.520000e-06	-2.470624e-07	1.679368e-09	-1.671211e+00	5.000678e+01
2.530000e-06	-3.340479e-07	1.430284e-09	-2.259609e+00	3.791925e+01
2.540000e-06	-4.209983e-07	1.177080e-09	-2.847770e+00	2.581876e+01
2.550000e-06	-5.078855e-07	9.348429e-10	-3.435504e+00	1.370964e+01
2.560000e-06	-5.945680e-07	6.937385e-10	-4.021853e+00	1.596204e+00
2.570000e-06	-6.810072e-07	4.312589e-10	-4.606555e+00	-1.051720e+01
2.580000e-06	-7.671807e-07	1.486627e-10	-5.189461e+00	-2.262625e+01
2.590000e-06	-8.529985e-07	-1.288906e-10	-5.769961e+00	-3.472662e+01
2.600000e-06	-9.382910e-07	-3.951295e-10	-6.346908e+00	-4.681396e+01
2.610000e-06	-1.023013e-06	-6.686138e-10	-6.919996e+00	-5.888397e+01
2.620000e-06	-1.107212e-06	-9.604905e-10	-7.489545e+00	-7.093232e+01
2.630000e-06	-1.190924e-06	-1.257440e-09	-8.055802e+00	-8.295470e+01
2.640000e-06	-1.274236e-06	-1.542837e-09	-8.619351e+00	-9.494682e+01
2.650000e-06	-1.357220e-06	-1.822768e-09	-9.180679e+00	-1.069044e+02
2.660000e-06	-1.439855e-06	-2.112266e-09	-9.739651e+00	-1.188231e+02
2.670000e-06	-1.522046e-06	-2.408080e-09	-1.029562e+01	-1.306988e+02
2.680000e-06	-1.603666e-06	-2.692768e-09	-1.084772e+01	-1.425271e+02
2.690000e-06	-1.684662e-06	-2.960593e-09	-1.139561e+01	-1.543038e+02
2.700000e-06	-1.765128e-06	-3.225036e-09	-1.193990e+01	-1.660248e+02
2.710000e-06	-1.845064e-06	-3.496692e-09	-1.248062e+01	-1.776857e+02
2.720000e-06	-1.924484e-06	-3.766271e-09	-1.301784e+01	-1.892826e+02
2.730000e-06	-2.003383e-06	-4.018972e-09	-1.355154e+01	-2.008111e+02
2.740000e-06	-2.081497e-06	-4.256379e-09	-1.407993e+01	-2.122673e+02
2.750000e-06	-2.158513e-06	-4.491293e-09	-1.460089e+01	-2.236469e+02
2.760000e-06	-2.234403e-06	-4.725509e-09	-1.511423e+01	-2.349459e+02
2.770000e-06	-2.309366e-06	-4.946947e-09	-1.562131e+01	-2.461603e+02
2.780000e-06	-2.383515e-06	-5.148697e-09	-1.612288e+01	-2.572861e+02
2.790000e-06	-2.456846e-06	-5.342502e-09	-1.661891e+01	-2.683193e+02
2.800000e-06	-2.529340e-06	-5.537124e-09	-1.710929e+01	-2.792559e+02
2.810000e-06	-2.601005e-06	-5.727633e-09	-1.759405e+01	-2.900920e+02
2.820000e-06	-2.671895e-06	-5.904220e-09	-1.807357e+01	-3.008238e+02
2.830000e-06	-2.741841e-06	-6.065641e-09	-1.854671e+01	-3.114474e+02
2.840000e-06	-2.810498e-06	-6.222523e-09	-1.901113e+01	-3.219590e+02
2.850000e-06	-2.878007e-06	-6.380268e-09	-1.946778e+01	-3.323549e+02
2.860000e-06	-2.944654e-06	-6.531842e-09	-1.991860e+01	-3.426313e+02
2.870000e-06	-3.010312e-06	-6.667184e-09	-2.036273e+01	-3.527846e+02
2.880000e-06	-3.074915e-06	-6.790919e-09	-2.079973e+01	-3.628111e+02
2.890000e-06	-3.138578e-06	-6.913693e-09	-2.123037e+01	-3.727073e+02
2.900000e-06	-3.201260e-06	-7.035340e-09	-2.165437e+01	-3.824695e+02
2.910000e-06	-3.262576e-06	-7.149130e-09	-2.206913e+01	-3.920944e+02
2.920000e-06	-3.322451e-06	-7.254087e-09	-2.247414e+01	-4.015785e+02
2.930000e-06	-3.381234e-06	-7.357464e-09	-2.287178e+01	-4.109183e+02
2.940000e-06	-3.438999e-06	-7.460687e-09	-2.326252e+01	-4.201106e+02
