# Temperatura_=_20.0
# Concentracion g/m^3_=_10000.0
# C_Vs_to_Am_M_A/Vsm_=_65563218390.804596
# pendiente_HvsI_1/m_=_3716.3
# ordenada_HvsI_A/m_=_1297.0
# frecuencia_Hz_=_302295.9569525948

Tiempo_(s)	Campo_(V.s)	Magnetizacion_(V.s)	Campo_(kA/m)	Magnetizacion_(A/m)
0.000000e+00	-1.041394e-06	-1.546539e-09	-6.866061e+00	-1.016449e+02
1.000000e-08	-1.041262e-06	-1.541943e-09	-6.865190e+00	-1.016858e+02
2.000000e-08	-1.040856e-06	-1.537085e-09	-6.862517e+00	-1.015589e+02
3.000000e-08	-1.040214e-06	-1.540326e-09	-6.858285e+00	-1.013197e+02
4.000000e-08	-1.039348e-06	-1.551388e-09	-6.852573e+00	-1.010914e+02
5.000000e-08	-1.038146e-06	-1.560903e-09	-6.844645e+00	-1.010001e+02
6.000000e-08	-1.036482e-06	-1.572356e-09	-6.833679e+00	-1.010927e+02
7.000000e-08	-1.034258e-06	-1.591067e-09	-6.819013e+00	-1.012917e+02
8.000000e-08	-1.031461e-06	-1.598758e-09	-6.800570e+00	-1.014205e+02
9.000000e-08	-1.028076e-06	-1.556642e-09	-6.778257e+00	-1.012952e+02
1.000000e-07	-1.024163e-06	-1.488884e-09	-6.752458e+00	-1.008299e+02
1.100000e-07	-1.019887e-06	-1.452945e-09	-6.724265e+00	-1.000932e+02
1.200000e-07	-1.015354e-06	-1.473028e-09	-6.694376e+00	-9.927672e+01
1.300000e-07	-1.010619e-06	-1.510295e-09	-6.663160e+00	-9.859187e+01
1.400000e-07	-1.005654e-06	-1.529233e-09	-6.630426e+00	-9.815345e+01
1.500000e-07	-1.000372e-06	-1.510510e-09	-6.595597e+00	-9.792034e+01
1.600000e-07	-9.947046e-07	-1.483919e-09	-6.558232e+00	-9.772701e+01
1.700000e-07	-9.886583e-07	-1.500051e-09	-6.518368e+00	-9.738435e+01
1.800000e-07	-9.822985e-07	-1.520990e-09	-6.476437e+00	-9.678684e+01
1.900000e-07	-9.756321e-07	-1.476120e-09	-6.432484e+00	-9.596213e+01
2.000000e-07	-9.686206e-07	-1.405554e-09	-6.386257e+00	-9.503781e+01
2.100000e-07	-9.611848e-07	-1.401366e-09	-6.337232e+00	-9.415319e+01
2.200000e-07	-9.533923e-07	-1.442091e-09	-6.285854e+00	-9.337525e+01
2.300000e-07	-9.453348e-07	-1.447426e-09	-6.232730e+00	-9.267020e+01
2.400000e-07	-9.370452e-07	-1.410712e-09	-6.178075e+00	-9.194195e+01
2.500000e-07	-9.285671e-07	-1.380248e-09	-6.122179e+00	-9.110498e+01
2.600000e-07	-9.198966e-07	-1.364954e-09	-6.065013e+00	-9.014046e+01
2.700000e-07	-9.110139e-07	-1.360309e-09	-6.006448e+00	-8.910070e+01
2.800000e-07	-9.018315e-07	-1.358144e-09	-5.945907e+00	-8.806491e+01
2.900000e-07	-8.922148e-07	-1.339481e-09	-5.882502e+00	-8.708134e+01
3.000000e-07	-8.819772e-07	-1.297506e-09	-5.815004e+00	-8.613666e+01
3.100000e-07	-8.711912e-07	-1.280576e-09	-5.743890e+00	-8.517081e+01
3.200000e-07	-8.599498e-07	-1.301040e-09	-5.669775e+00	-8.412345e+01
3.300000e-07	-8.482567e-07	-1.290743e-09	-5.592680e+00	-8.297733e+01
3.400000e-07	-8.362249e-07	-1.227008e-09	-5.513353e+00	-8.176916e+01
3.500000e-07	-8.239111e-07	-1.193387e-09	-5.432166e+00	-8.056272e+01
3.600000e-07	-8.113627e-07	-1.224750e-09	-5.349433e+00	-7.940446e+01
3.700000e-07	-7.985871e-07	-1.235823e-09	-5.265201e+00	-7.829203e+01
3.800000e-07	-7.854947e-07	-1.183228e-09	-5.178881e+00	-7.717531e+01
3.900000e-07	-7.720559e-07	-1.134415e-09	-5.090277e+00	-7.598717e+01
4.000000e-07	-7.583436e-07	-1.131354e-09	-4.999870e+00	-7.468304e+01
4.100000e-07	-7.443326e-07	-1.130494e-09	-4.907493e+00	-7.326535e+01
4.200000e-07	-7.300318e-07	-1.101884e-09	-4.813206e+00	-7.178040e+01
4.300000e-07	-7.154867e-07	-1.063745e-09	-4.717308e+00	-7.029268e+01
4.400000e-07	-7.006620e-07	-1.036243e-09	-4.619567e+00	-6.885284e+01
4.500000e-07	-6.855505e-07	-1.028589e-09	-4.519935e+00	-6.747599e+01
4.600000e-07	-6.701344e-07	-1.029496e-09	-4.418294e+00	-6.613861e+01
4.700000e-07	-6.542854e-07	-1.003903e-09	-4.313799e+00	-6.479220e+01
4.800000e-07	-6.380427e-07	-9.505937e-10	-4.206709e+00	-6.338517e+01
4.900000e-07	-6.215304e-07	-9.206366e-10	-4.097840e+00	-6.188382e+01
5.000000e-07	-6.046605e-07	-9.272927e-10	-3.986615e+00	-6.028525e+01
5.100000e-07	-5.875108e-07	-9.141006e-10	-3.873544e+00	-5.861858e+01
5.200000e-07	-5.701634e-07	-8.606316e-10	-3.759170e+00	-5.693402e+01
5.300000e-07	-5.526194e-07	-8.190423e-10	-3.643500e+00	-5.528295e+01
5.400000e-07	-5.349337e-07	-8.157932e-10	-3.526896e+00	-5.369642e+01
5.500000e-07	-5.171258e-07	-8.120716e-10	-3.409486e+00	-5.217135e+01
5.600000e-07	-4.991630e-07	-7.793099e-10	-3.291055e+00	-5.067187e+01
5.700000e-07	-4.810830e-07	-7.370909e-10	-3.171850e+00	-4.914645e+01
5.800000e-07	-4.629474e-07	-7.125761e-10	-3.052280e+00	-4.755285e+01
5.900000e-07	-4.447076e-07	-7.036038e-10	-2.932022e+00	-4.587819e+01
6.000000e-07	-4.263366e-07	-6.855301e-10	-2.810899e+00	-4.414327e+01
6.100000e-07	-4.078603e-07	-6.448179e-10	-2.689083e+00	-4.238927e+01
6.200000e-07	-3.892846e-07	-6.023796e-10	-2.566610e+00	-4.065524e+01
6.300000e-07	-3.705766e-07	-5.838425e-10	-2.443266e+00	-3.895928e+01
6.400000e-07	-3.517559e-07	-5.782539e-10	-2.319178e+00	-3.729355e+01
6.500000e-07	-3.327639e-07	-5.543545e-10	-2.193961e+00	-3.563376e+01
6.600000e-07	-3.135755e-07	-5.129001e-10	-2.067449e+00	-3.395534e+01
6.700000e-07	-2.942536e-07	-4.828985e-10	-1.940057e+00	-3.224552e+01
6.800000e-07	-2.748367e-07	-4.696612e-10	-1.812039e+00	-3.050524e+01
6.900000e-07	-2.552977e-07	-4.506380e-10	-1.683215e+00	-2.874267e+01
7.000000e-07	-2.356263e-07	-4.135116e-10	-1.553519e+00	-2.696520e+01
7.100000e-07	-2.159010e-07	-3.739807e-10	-1.423467e+00	-2.517638e+01
7.200000e-07	-1.961065e-07	-3.509429e-10	-1.292959e+00	-2.337891e+01
7.300000e-07	-1.762379e-07	-3.380193e-10	-1.161962e+00	-2.157907e+01
7.400000e-07	-1.563265e-07	-3.137786e-10	-1.030684e+00	-1.978717e+01
7.500000e-07	-1.363536e-07	-2.755213e-10	-8.989991e-01	-1.801204e+01
7.600000e-07	-1.163482e-07	-2.421010e-10	-7.671007e-01	-1.625328e+01
7.700000e-07	-9.626925e-08	-2.223178e-10	-6.347172e-01	-1.449781e+01
7.800000e-07	-7.609417e-08	-2.019342e-10	-5.016999e-01	-1.272468e+01
7.900000e-07	-5.589028e-08	-1.673993e-10	-3.684927e-01	-1.091646e+01
8.000000e-07	-3.568596e-08	-1.279002e-10	-2.352828e-01	-9.070298e+00
8.100000e-07	-1.548779e-08	-1.002499e-10	-1.021132e-01	-7.201111e+00
8.200000e-07	4.674863e-09	-8.092804e-11	3.082205e-02	-5.334099e+00
8.300000e-07	2.484394e-08	-5.490509e-11	1.637997e-01	-3.490434e+00
8.400000e-07	4.504008e-08	-1.985955e-11	2.969558e-01	-1.674605e+00
8.500000e-07	6.520626e-08	1.203760e-11	4.299144e-01	1.288560e-01
8.600000e-07	8.537682e-08	3.460437e-11	5.629018e-01	1.947010e+00
8.700000e-07	1.055241e-07	5.809842e-11	6.957357e-01	3.803139e+00
8.800000e-07	1.255826e-07	9.159427e-11	8.279842e-01	5.703170e+00
8.900000e-07	1.455879e-07	1.295787e-10	9.598824e-01	7.631723e+00
9.000000e-07	1.655243e-07	1.596713e-10	1.091326e+00	9.560119e+00
9.100000e-07	1.853776e-07	1.818584e-10	1.222221e+00	1.146183e+01
9.200000e-07	2.051812e-07	2.072684e-10	1.352790e+00	1.332655e+01
9.300000e-07	2.248919e-07	2.410072e-10	1.482745e+00	1.516463e+01
9.400000e-07	2.445120e-07	2.747053e-10	1.612103e+00	1.699921e+01
9.500000e-07	2.640493e-07	2.998860e-10	1.740915e+00	1.885060e+01
9.600000e-07	2.834377e-07	3.224147e-10	1.868746e+00	2.072246e+01
9.700000e-07	3.026798e-07	3.522483e-10	1.995612e+00	2.259874e+01
9.800000e-07	3.217866e-07	3.872551e-10	2.121586e+00	2.445423e+01
9.900000e-07	3.407568e-07	4.158165e-10	2.246659e+00	2.627268e+01
1.000000e-06	3.595960e-07	4.371286e-10	2.370869e+00	2.806075e+01
1.010000e-06	3.783168e-07	4.621321e-10	2.494298e+00	2.984744e+01
1.020000e-06	3.969170e-07	4.949869e-10	2.616932e+00	3.166710e+01
1.030000e-06	4.153587e-07	5.282133e-10	2.738521e+00	3.353521e+01
1.040000e-06	4.336479e-07	5.539436e-10	2.859104e+00	3.543256e+01
1.050000e-06	4.518078e-07	5.760587e-10	2.978835e+00	3.731001e+01
1.060000e-06	4.699012e-07	6.031883e-10	3.098127e+00	3.911414e+01
1.070000e-06	4.879316e-07	6.358783e-10	3.217004e+00	4.081993e+01
1.080000e-06	5.058392e-07	6.636755e-10	3.335072e+00	4.245019e+01
1.090000e-06	5.235969e-07	6.830715e-10	3.452151e+00	4.406751e+01
1.100000e-06	5.412090e-07	7.033756e-10	3.568270e+00	4.574080e+01
1.110000e-06	5.587064e-07	7.325046e-10	3.683633e+00	4.750458e+01
1.120000e-06	5.760227e-07	7.642515e-10	3.797802e+00	4.933579e+01
1.130000e-06	5.930981e-07	7.898809e-10	3.910382e+00	5.116325e+01
1.140000e-06	6.099154e-07	8.126499e-10	4.021261e+00	5.290585e+01
1.150000e-06	6.264219e-07	8.376089e-10	4.130091e+00	5.451775e+01
1.160000e-06	6.426046e-07	8.636136e-10	4.236786e+00	5.601398e+01
1.170000e-06	6.584216e-07	8.857887e-10	4.341070e+00	5.746150e+01
1.180000e-06	6.738544e-07	9.042889e-10	4.442820e+00	5.894113e+01
1.190000e-06	6.889554e-07	9.242044e-10	4.542383e+00	6.050315e+01
1.200000e-06	7.037904e-07	9.504919e-10	4.640193e+00	6.214230e+01
1.210000e-06	7.183934e-07	9.788243e-10	4.736472e+00	6.380514e+01
1.220000e-06	7.327741e-07	1.003407e-09	4.831287e+00	6.542345e+01
1.230000e-06	7.469439e-07	1.024806e-09	4.924710e+00	6.695226e+01
1.240000e-06	7.608309e-07	1.046981e-09	5.016269e+00	6.839067e+01
1.250000e-06	7.744341e-07	1.069301e-09	5.105957e+00	6.977539e+01
1.260000e-06	7.877176e-07	1.088574e-09	5.193537e+00	7.115390e+01
1.270000e-06	8.006010e-07	1.105389e-09	5.278479e+00	7.255520e+01
1.280000e-06	8.132022e-07	1.124105e-09	5.361561e+00	7.397512e+01
1.290000e-06	8.256628e-07	1.145933e-09	5.443715e+00	7.538269e+01
1.300000e-06	8.379802e-07	1.167497e-09	5.524926e+00	7.674108e+01
1.310000e-06	8.500038e-07	1.187614e-09	5.604199e+00	7.802911e+01
1.320000e-06	8.616507e-07	1.206301e-09	5.680989e+00	7.925091e+01
1.330000e-06	8.728675e-07	1.225591e-09	5.754943e+00	8.042968e+01
1.340000e-06	8.835114e-07	1.244117e-09	5.825119e+00	8.159125e+01
1.350000e-06	8.935420e-07	1.259732e-09	5.891252e+00	8.274792e+01
1.360000e-06	9.030303e-07	1.273820e-09	5.953810e+00	8.389178e+01
1.370000e-06	9.121169e-07	1.289163e-09	6.013719e+00	8.500065e+01
1.380000e-06	9.209249e-07	1.305867e-09	6.071792e+00	8.605228e+01
1.390000e-06	9.295432e-07	1.320661e-09	6.128614e+00	8.703819e+01
1.400000e-06	9.380047e-07	1.332461e-09	6.184402e+00	8.796921e+01
1.410000e-06	9.462486e-07	1.345461e-09	6.238755e+00	8.886956e+01
1.420000e-06	9.542060e-07	1.362042e-09	6.291219e+00	8.976284e+01
1.430000e-06	9.617984e-07	1.378551e-09	6.341277e+00	9.065837e+01
1.440000e-06	9.690072e-07	1.391798e-09	6.388806e+00	9.154592e+01
1.450000e-06	9.758690e-07	1.402344e-09	6.434046e+00	9.240249e+01
1.460000e-06	9.824089e-07	1.412949e-09	6.477165e+00	9.320681e+01
1.470000e-06	9.886911e-07	1.424837e-09	6.518584e+00	9.395244e+01
1.480000e-06	9.947054e-07	1.435810e-09	6.558238e+00	9.465077e+01
1.490000e-06	1.000311e-06	1.444057e-09	6.595194e+00	9.532151e+01
1.500000e-06	1.005481e-06	1.452596e-09	6.629281e+00	9.597735e+01
1.510000e-06	1.010349e-06	1.463738e-09	6.661376e+00	9.661368e+01
1.520000e-06	1.015009e-06	1.476233e-09	6.692102e+00	9.721133e+01
1.530000e-06	1.019504e-06	1.487079e-09	6.721740e+00	9.775080e+01
1.540000e-06	1.023804e-06	1.494893e-09	6.750090e+00	9.822769e+01
1.550000e-06	1.027786e-06	1.500028e-09	6.776342e+00	9.865723e+01
1.560000e-06	1.031317e-06	1.504923e-09	6.799625e+00	9.906354e+01
1.570000e-06	1.034330e-06	1.509894e-09	6.819487e+00	9.946129e+01
1.580000e-06	1.036745e-06	1.513626e-09	6.835410e+00	9.984420e+01
1.590000e-06	1.038554e-06	1.517860e-09	6.847340e+00	1.001910e+02
1.600000e-06	1.039888e-06	1.524163e-09	6.856136e+00	1.004856e+02
1.610000e-06	1.040836e-06	1.531758e-09	6.862383e+00	1.007353e+02
1.620000e-06	1.041479e-06	1.537722e-09	6.866623e+00	1.009702e+02
1.630000e-06	1.041930e-06	1.540693e-09	6.869597e+00	1.012193e+02
1.640000e-06	1.042211e-06	1.543391e-09	6.871450e+00	1.014789e+02
1.650000e-06	1.042163e-06	1.547987e-09	6.871135e+00	1.016983e+02
1.660000e-06	1.041718e-06	1.552690e-09	6.868196e+00	1.018020e+02
1.670000e-06	1.040881e-06	1.558685e-09	6.862679e+00	1.017395e+02
1.680000e-06	1.039673e-06	1.555639e-09	6.854715e+00	1.015327e+02
1.690000e-06	1.038151e-06	1.543729e-09	6.844684e+00	1.012837e+02
1.700000e-06	1.036277e-06	1.527830e-09	6.832325e+00	1.011271e+02
1.710000e-06	1.034030e-06	1.508482e-09	6.817514e+00	1.011498e+02
1.720000e-06	1.031439e-06	1.492419e-09	6.800428e+00	1.013243e+02
1.730000e-06	1.028528e-06	1.486556e-09	6.781234e+00	1.015049e+02
1.740000e-06	1.025323e-06	1.528564e-09	6.760101e+00	1.014974e+02
1.750000e-06	1.021879e-06	1.588902e-09	6.737397e+00	1.011666e+02
1.760000e-06	1.018269e-06	1.599902e-09	6.713595e+00	1.005190e+02
1.770000e-06	1.014508e-06	1.547078e-09	6.688799e+00	9.970716e+01
1.780000e-06	1.010460e-06	1.498337e-09	6.662113e+00	9.894962e+01
1.790000e-06	1.005867e-06	1.493517e-09	6.631831e+00	9.841060e+01
1.800000e-06	1.000535e-06	1.501763e-09	6.596676e+00	9.811166e+01
1.810000e-06	9.945829e-07	1.487792e-09	6.557430e+00	9.792685e+01
1.820000e-06	9.881808e-07	1.441252e-09	6.515220e+00	9.766225e+01
1.830000e-06	9.813443e-07	1.433434e-09	6.470146e+00	9.716931e+01
1.840000e-06	9.741340e-07	1.476435e-09	6.422608e+00	9.642280e+01
1.850000e-06	9.666762e-07	1.505258e-09	6.373437e+00	9.551967e+01
1.860000e-06	9.590609e-07	1.465422e-09	6.323228e+00	9.460631e+01
1.870000e-06	9.512445e-07	1.408368e-09	6.271694e+00	9.378535e+01
1.880000e-06	9.430381e-07	1.391468e-09	6.217587e+00	9.306140e+01
1.890000e-06	9.344283e-07	1.402173e-09	6.160822e+00	9.235495e+01
1.900000e-06	9.255477e-07	1.402978e-09	6.102271e+00	9.156759e+01
1.910000e-06	9.164280e-07	1.385975e-09	6.042143e+00	9.065055e+01
1.920000e-06	9.070454e-07	1.359718e-09	5.980283e+00	8.963128e+01
1.930000e-06	8.973617e-07	1.335897e-09	5.916436e+00	8.858557e+01
1.940000e-06	8.873642e-07	1.341386e-09	5.850521e+00	8.757975e+01
1.950000e-06	8.769548e-07	1.347750e-09	5.781891e+00	8.662543e+01
1.960000e-06	8.660971e-07	1.310162e-09	5.710304e+00	8.567649e+01
1.970000e-06	8.549207e-07	1.255657e-09	5.636617e+00	8.466652e+01
1.980000e-06	8.435476e-07	1.264418e-09	5.561632e+00	8.355780e+01
1.990000e-06	8.319419e-07	1.298102e-09	5.485114e+00	8.236720e+01
2.000000e-06	8.199914e-07	1.261741e-09	5.406323e+00	8.115285e+01
2.010000e-06	8.077105e-07	1.184398e-09	5.325353e+00	7.997311e+01
2.020000e-06	7.950729e-07	1.173315e-09	5.242031e+00	7.884668e+01
2.030000e-06	7.819290e-07	1.206661e-09	5.155372e+00	7.773986e+01
2.040000e-06	7.682286e-07	1.188408e-09	5.065043e+00	7.658738e+01
2.050000e-06	7.540694e-07	1.135834e-09	4.971689e+00	7.533161e+01
2.060000e-06	7.394968e-07	1.114214e-09	4.875610e+00	7.395528e+01
2.070000e-06	7.245465e-07	1.114199e-09	4.777041e+00	7.248957e+01
2.080000e-06	7.093779e-07	1.096114e-09	4.677032e+00	7.099572e+01
2.090000e-06	6.941139e-07	1.067923e-09	4.576394e+00	6.953326e+01
2.100000e-06	6.787600e-07	1.033579e-09	4.475164e+00	6.813273e+01
2.110000e-06	6.632688e-07	9.992263e-10	4.373028e+00	6.678493e+01
2.120000e-06	6.476361e-07	9.935395e-10	4.269959e+00	6.544880e+01
2.130000e-06	6.318567e-07	1.001154e-09	4.165923e+00	6.407123e+01
2.140000e-06	6.158924e-07	9.690812e-10	4.060668e+00	6.260939e+01
2.150000e-06	5.996578e-07	9.132883e-10	3.953631e+00	6.104743e+01
2.160000e-06	5.831026e-07	8.972809e-10	3.844480e+00	5.940256e+01
2.170000e-06	5.662560e-07	9.026055e-10	3.733408e+00	5.771870e+01
2.180000e-06	5.492151e-07	8.719873e-10	3.621055e+00	5.604944e+01
2.190000e-06	5.320404e-07	8.201839e-10	3.507820e+00	5.443612e+01
2.200000e-06	5.146993e-07	7.955986e-10	3.393488e+00	5.288984e+01
2.210000e-06	4.972015e-07	7.912745e-10	3.278122e+00	5.138636e+01
2.220000e-06	4.795933e-07	7.750033e-10	3.162029e+00	4.987747e+01
2.230000e-06	4.619202e-07	7.410465e-10	3.045507e+00	4.831435e+01
2.240000e-06	4.441309e-07	7.018467e-10	2.928220e+00	4.667104e+01
2.250000e-06	4.261373e-07	6.770458e-10	2.809585e+00	4.495579e+01
2.260000e-06	4.079493e-07	6.675568e-10	2.689669e+00	4.320422e+01
2.270000e-06	3.896060e-07	6.479662e-10	2.568729e+00	4.145899e+01
2.280000e-06	3.710979e-07	6.047652e-10	2.446703e+00	3.974789e+01
2.290000e-06	3.524179e-07	5.655043e-10	2.323542e+00	3.807284e+01
2.300000e-06	3.335506e-07	5.514230e-10	2.199147e+00	3.641423e+01
2.310000e-06	3.145324e-07	5.396470e-10	2.073758e+00	3.474570e+01
2.320000e-06	2.954409e-07	5.060138e-10	1.947885e+00	3.304902e+01
2.330000e-06	2.762895e-07	4.635096e-10	1.821617e+00	3.132018e+01
2.340000e-06	2.571005e-07	4.380500e-10	1.695101e+00	2.956554e+01
2.350000e-06	2.378659e-07	4.271161e-10	1.568284e+00	2.779354e+01
2.360000e-06	2.185809e-07	4.061573e-10	1.441136e+00	2.600916e+01
2.370000e-06	1.992802e-07	3.650405e-10	1.313883e+00	2.421485e+01
2.380000e-06	1.799546e-07	3.253713e-10	1.186467e+00	2.241511e+01
2.390000e-06	1.605927e-07	3.051798e-10	1.058811e+00	2.061902e+01
2.400000e-06	1.412148e-07	2.913246e-10	9.310501e-01	1.883692e+01
2.410000e-06	1.218456e-07	2.620990e-10	8.033456e-01	1.707283e+01
2.420000e-06	1.024593e-07	2.222386e-10	6.755294e-01	1.531858e+01
2.430000e-06	8.304153e-08	1.945689e-10	5.475049e-01	1.355520e+01
2.440000e-06	6.361708e-08	1.816104e-10	4.194367e-01	1.176233e+01
2.450000e-06	4.419704e-08	1.633565e-10	2.913976e-01	9.930459e+00
2.460000e-06	2.477264e-08	1.274544e-10	1.633297e-01	8.067839e+00
2.470000e-06	5.320242e-09	8.873202e-11	3.507713e-02	6.197121e+00
2.480000e-06	-1.414263e-08	6.345644e-11	-9.324442e-02	4.342864e+00
2.490000e-06	-3.359204e-08	4.602258e-11	-2.214772e-01	2.517147e+00
2.500000e-06	-5.302031e-08	1.957975e-11	-3.495706e-01	7.119550e-01
2.510000e-06	-7.241882e-08	-1.619859e-11	-4.774678e-01	-1.096837e+00
2.520000e-06	-9.182343e-08	-4.527879e-11	-6.054053e-01	-2.935924e+00
2.530000e-06	-1.112391e-07	-6.418266e-11	-7.334158e-01	-4.819181e+00
2.540000e-06	-1.306375e-07	-8.625350e-11	-8.613118e-01	-6.739274e+00
2.550000e-06	-1.500169e-07	-1.218993e-10	-9.890832e-01	-8.671149e+00
2.560000e-06	-1.693638e-07	-1.604347e-10	-1.116640e+00	-1.058546e+01
2.570000e-06	-1.886986e-07	-1.870233e-10	-1.244117e+00	-1.246434e+01
2.580000e-06	-2.080258e-07	-2.046056e-10	-1.371544e+00	-1.431029e+01
2.590000e-06	-2.273152e-07	-2.300325e-10	-1.498722e+00	-1.614305e+01
2.600000e-06	-2.465707e-07	-2.666840e-10	-1.625677e+00	-1.798603e+01
2.610000e-06	-2.657897e-07	-2.990703e-10	-1.752390e+00	-1.985053e+01
2.620000e-06	-2.849078e-07	-3.208111e-10	-1.878439e+00	-2.172770e+01
2.630000e-06	-3.039517e-07	-3.425373e-10	-2.003998e+00	-2.359397e+01
2.640000e-06	-3.229322e-07	-3.733625e-10	-2.129139e+00	-2.542738e+01
2.650000e-06	-3.417801e-07	-4.069716e-10	-2.253406e+00	-2.722471e+01
2.660000e-06	-3.604755e-07	-4.340912e-10	-2.376668e+00	-2.900737e+01
2.670000e-06	-3.789872e-07	-4.565044e-10	-2.498718e+00	-3.081043e+01
2.680000e-06	-3.973462e-07	-4.838245e-10	-2.619762e+00	-3.265949e+01
2.690000e-06	-4.155176e-07	-5.188511e-10	-2.739568e+00	-3.454970e+01
2.700000e-06	-4.335108e-07	-5.519464e-10	-2.858200e+00	-3.644161e+01
2.710000e-06	-4.513611e-07	-5.753872e-10	-2.975890e+00	-3.827953e+01
2.720000e-06	-4.690519e-07	-5.949606e-10	-3.092528e+00	-4.002379e+01
2.730000e-06	-4.866002e-07	-6.211400e-10	-3.208226e+00	-4.167769e+01
2.740000e-06	-5.040045e-07	-6.522737e-10	-3.322975e+00	-4.329104e+01
2.750000e-06	-5.213345e-07	-6.795304e-10	-3.437234e+00	-4.493528e+01
2.760000e-06	-5.385724e-07	-7.018747e-10	-3.550886e+00	-4.666266e+01
2.770000e-06	-5.556167e-07	-7.280607e-10	-3.663262e+00	-4.847358e+01
2.780000e-06	-5.724346e-07	-7.612972e-10	-3.774145e+00	-5.031246e+01
2.790000e-06	-5.890288e-07	-7.930060e-10	-3.883553e+00	-5.209647e+01
2.800000e-06	-6.054116e-07	-8.152218e-10	-3.991567e+00	-5.376124e+01
2.810000e-06	-6.215334e-07	-8.316887e-10	-4.097861e+00	-5.529695e+01
2.820000e-06	-6.373769e-07	-8.533304e-10	-4.202319e+00	-5.675345e+01
2.830000e-06	-6.530263e-07	-8.826743e-10	-4.305498e+00	-5.821168e+01
2.840000e-06	-6.685468e-07	-9.105643e-10	-4.407826e+00	-5.973845e+01
2.850000e-06	-6.839739e-07	-9.326416e-10	-4.509540e+00	-6.135130e+01
2.860000e-06	-6.993047e-07	-9.559713e-10	-4.610618e+00	-6.301283e+01
2.870000e-06	-7.144910e-07	-9.849513e-10	-4.710743e+00	-6.465577e+01
2.880000e-06	-7.294167e-07	-1.012737e-09	-4.809151e+00	-6.622220e+01
2.890000e-06	-7.440479e-07	-1.032086e-09	-4.905616e+00	-6.769315e+01
2.900000e-06	-7.583102e-07	-1.047840e-09	-4.999650e+00	-6.909294e+01
2.910000e-06	-7.720159e-07	-1.069749e-09	-5.090014e+00	-7.046862e+01
2.920000e-06	-7.851911e-07	-1.099837e-09	-5.176880e+00	-7.185931e+01
2.930000e-06	-7.978493e-07	-1.127479e-09	-5.260337e+00	-7.327426e+01
2.940000e-06	-8.101003e-07	-1.146363e-09	-5.341110e+00	-7.469105e+01
