# Temperatura_=_20.0
# Concentracion g/m^3_=_10000.0
# C_Vs_to_Am_M_A/Vsm_=_65563218390.804596
# pendiente_HvsI_1/m_=_3716.3
# ordenada_HvsI_A/m_=_1297.0
# frecuencia_Hz_=_302298.2305873526

Tiempo_(s)	Campo_(V.s)	Magnetizacion_(V.s)	Campo_(kA/m)	Magnetizacion_(A/m)
0.000000e+00	-1.042593e-06	-1.530349e-09	-6.866626e+00	-1.006243e+02
1.000000e-08	-1.042479e-06	-1.530112e-09	-6.865876e+00	-1.006730e+02
2.000000e-08	-1.042123e-06	-1.532718e-09	-6.863529e+00	-1.004774e+02
3.000000e-08	-1.041544e-06	-1.539047e-09	-6.859718e+00	-1.001454e+02
4.000000e-08	-1.040675e-06	-1.543938e-09	-6.853993e+00	-9.986436e+01
5.000000e-08	-1.039402e-06	-1.541965e-09	-6.845606e+00	-9.979241e+01
6.000000e-08	-1.037703e-06	-1.561833e-09	-6.834421e+00	-9.995540e+01
7.000000e-08	-1.035533e-06	-1.594903e-09	-6.820126e+00	-1.002176e+02
8.000000e-08	-1.032736e-06	-1.581185e-09	-6.801703e+00	-1.003504e+02
9.000000e-08	-1.029363e-06	-1.508192e-09	-6.779488e+00	-1.001630e+02
1.000000e-07	-1.025519e-06	-1.435686e-09	-6.754172e+00	-9.961546e+01
1.100000e-07	-1.021322e-06	-1.443850e-09	-6.726536e+00	-9.884377e+01
1.200000e-07	-1.016915e-06	-1.503309e-09	-6.697508e+00	-9.807979e+01
1.300000e-07	-1.012316e-06	-1.537529e-09	-6.667215e+00	-9.751550e+01
1.400000e-07	-1.007428e-06	-1.519032e-09	-6.635027e+00	-9.719556e+01
1.500000e-07	-1.002112e-06	-1.467643e-09	-6.600011e+00	-9.700335e+01
1.600000e-07	-9.964410e-07	-1.464572e-09	-6.562663e+00	-9.674454e+01
1.700000e-07	-9.904614e-07	-1.519502e-09	-6.523281e+00	-9.627069e+01
1.800000e-07	-9.842090e-07	-1.513636e-09	-6.482103e+00	-9.556299e+01
1.900000e-07	-9.777050e-07	-1.414006e-09	-6.439266e+00	-9.472631e+01
2.000000e-07	-9.707940e-07	-1.362371e-09	-6.393750e+00	-9.390522e+01
2.100000e-07	-9.634324e-07	-1.420255e-09	-6.345265e+00	-9.318356e+01
2.200000e-07	-9.556623e-07	-1.467307e-09	-6.294091e+00	-9.253543e+01
2.300000e-07	-9.475793e-07	-1.430258e-09	-6.240855e+00	-9.185625e+01
2.400000e-07	-9.393019e-07	-1.374567e-09	-6.186340e+00	-9.104622e+01
2.500000e-07	-9.308405e-07	-1.354036e-09	-6.130612e+00	-9.008472e+01
2.600000e-07	-9.222213e-07	-1.354540e-09	-6.073845e+00	-8.904432e+01
2.700000e-07	-9.134117e-07	-1.360000e-09	-6.015824e+00	-8.803728e+01
2.800000e-07	-9.042253e-07	-1.355275e-09	-5.955322e+00	-8.713490e+01
2.900000e-07	-8.945169e-07	-1.311770e-09	-5.891381e+00	-8.631662e+01
3.000000e-07	-8.842780e-07	-1.270536e-09	-5.823947e+00	-8.548315e+01
3.100000e-07	-8.735800e-07	-1.296111e-09	-5.753489e+00	-8.452292e+01
3.200000e-07	-8.624247e-07	-1.325437e-09	-5.680018e+00	-8.338564e+01
3.300000e-07	-8.507406e-07	-1.259450e-09	-5.603065e+00	-8.211414e+01
3.400000e-07	-8.386593e-07	-1.173224e-09	-5.523497e+00	-8.081559e+01
3.500000e-07	-8.263926e-07	-1.198225e-09	-5.442707e+00	-7.959364e+01
3.600000e-07	-8.138920e-07	-1.262075e-09	-5.360377e+00	-7.848638e+01
3.700000e-07	-8.010532e-07	-1.224165e-09	-5.275820e+00	-7.744795e+01
3.800000e-07	-7.878996e-07	-1.134419e-09	-5.189188e+00	-7.638126e+01
3.900000e-07	-7.744800e-07	-1.117702e-09	-5.100805e+00	-7.519713e+01
4.000000e-07	-7.607335e-07	-1.146602e-09	-5.010269e+00	-7.386230e+01
4.100000e-07	-7.466642e-07	-1.129681e-09	-4.917607e+00	-7.241044e+01
4.200000e-07	-7.323654e-07	-1.075273e-09	-4.823434e+00	-7.091542e+01
4.300000e-07	-7.178688e-07	-1.036037e-09	-4.727958e+00	-6.944816e+01
4.400000e-07	-7.030534e-07	-1.028758e-09	-4.630382e+00	-6.804339e+01
4.500000e-07	-6.878997e-07	-1.041290e-09	-4.530578e+00	-6.669148e+01
4.600000e-07	-6.724124e-07	-1.032563e-09	-4.428577e+00	-6.535341e+01
4.700000e-07	-6.565579e-07	-9.720545e-10	-4.324158e+00	-6.398516e+01
4.800000e-07	-6.403888e-07	-9.145142e-10	-4.217667e+00	-6.255703e+01
4.900000e-07	-6.238650e-07	-9.229510e-10	-4.108840e+00	-6.106112e+01
5.000000e-07	-6.069985e-07	-9.423249e-10	-3.997755e+00	-5.950822e+01
5.100000e-07	-5.898039e-07	-8.958659e-10	-3.884509e+00	-5.791978e+01
5.200000e-07	-5.723972e-07	-8.286239e-10	-3.769867e+00	-5.631955e+01
5.300000e-07	-5.548980e-07	-8.187954e-10	-3.654615e+00	-5.472676e+01
5.400000e-07	-5.371928e-07	-8.378805e-10	-3.538007e+00	-5.315161e+01
5.500000e-07	-5.192688e-07	-8.151516e-10	-3.419958e+00	-5.159374e+01
5.600000e-07	-5.012542e-07	-7.550306e-10	-3.301312e+00	-5.004436e+01
5.700000e-07	-4.831922e-07	-7.132746e-10	-3.182354e+00	-4.849163e+01
5.800000e-07	-4.650348e-07	-7.102827e-10	-3.062767e+00	-4.692640e+01
5.900000e-07	-4.467310e-07	-7.114798e-10	-2.942217e+00	-4.534481e+01
6.000000e-07	-4.283239e-07	-6.795254e-10	-2.820985e+00	-4.374624e+01
6.100000e-07	-4.098458e-07	-6.261943e-10	-2.699287e+00	-4.212896e+01
6.200000e-07	-3.912703e-07	-5.992247e-10	-2.576947e+00	-4.048786e+01
6.300000e-07	-3.725946e-07	-6.044768e-10	-2.453947e+00	-3.881744e+01
6.400000e-07	-3.537522e-07	-5.928935e-10	-2.329848e+00	-3.711852e+01
6.500000e-07	-3.347436e-07	-5.434789e-10	-2.204656e+00	-3.540301e+01
6.600000e-07	-3.156102e-07	-4.964981e-10	-2.078641e+00	-3.369154e+01
6.700000e-07	-2.963695e-07	-4.841759e-10	-1.951920e+00	-3.200308e+01
6.800000e-07	-2.770199e-07	-4.826750e-10	-1.824482e+00	-3.034252e+01
6.900000e-07	-2.575015e-07	-4.540717e-10	-1.695931e+00	-2.869471e+01
7.000000e-07	-2.378720e-07	-4.039273e-10	-1.566650e+00	-2.703040e+01
7.100000e-07	-2.182186e-07	-3.717368e-10	-1.437210e+00	-2.532155e+01
7.200000e-07	-1.984802e-07	-3.670430e-10	-1.307211e+00	-2.355701e+01
7.300000e-07	-1.785635e-07	-3.543278e-10	-1.176038e+00	-2.174841e+01
7.400000e-07	-1.585558e-07	-3.107777e-10	-1.044265e+00	-1.992263e+01
7.500000e-07	-1.385775e-07	-2.623522e-10	-9.126855e-01	-1.810548e+01
7.600000e-07	-1.185725e-07	-2.417736e-10	-7.809305e-01	-1.630746e+01
7.700000e-07	-9.846119e-08	-2.343247e-10	-6.484756e-01	-1.452032e+01
7.800000e-07	-7.828566e-08	-2.048955e-10	-5.155974e-01	-1.272600e+01
7.900000e-07	-5.808804e-08	-1.563793e-10	-3.825738e-01	-1.091095e+01
8.000000e-07	-3.788821e-08	-1.210438e-10	-2.495357e-01	-9.075724e+00
8.100000e-07	-1.770335e-08	-1.085717e-10	-1.165961e-01	-7.233527e+00
8.200000e-07	2.510170e-09	-9.318346e-11	1.653224e-02	-5.399348e+00
8.300000e-07	2.271966e-08	-5.608887e-11	1.496340e-01	-3.577847e+00
8.400000e-07	4.286902e-08	-1.260248e-11	2.823398e-01	-1.758891e+00
8.500000e-07	6.299877e-08	1.340087e-11	4.149164e-01	7.586519e-02
8.600000e-07	8.313791e-08	2.738530e-11	5.475549e-01	1.939685e+00
8.700000e-07	1.032494e-07	5.529446e-11	6.800115e-01	3.829862e+00
8.800000e-07	1.233388e-07	1.004572e-10	8.123224e-01	5.726966e+00
8.900000e-07	1.433891e-07	1.386897e-10	9.443751e-01	7.605460e+00
9.000000e-07	1.633719e-07	1.571287e-10	1.075985e+00	9.449430e+00
9.100000e-07	1.832724e-07	1.733070e-10	1.207051e+00	1.126350e+01
9.200000e-07	2.030570e-07	2.065720e-10	1.337354e+00	1.307144e+01
9.300000e-07	2.228287e-07	2.487879e-10	1.467573e+00	1.490223e+01
9.400000e-07	2.425171e-07	2.785853e-10	1.597243e+00	1.677113e+01
9.500000e-07	2.620402e-07	2.952749e-10	1.725824e+00	1.866719e+01
9.600000e-07	2.814595e-07	3.196041e-10	1.853721e+00	2.055557e+01
9.700000e-07	3.007315e-07	3.581041e-10	1.980649e+00	2.239528e+01
9.800000e-07	3.199070e-07	3.925221e-10	2.106941e+00	2.416347e+01
9.900000e-07	3.389839e-07	4.113739e-10	2.232583e+00	2.587258e+01
1.000000e-06	3.578803e-07	4.270848e-10	2.357037e+00	2.756911e+01
1.010000e-06	3.766022e-07	4.569546e-10	2.480341e+00	2.931234e+01
1.020000e-06	3.951640e-07	4.967666e-10	2.602591e+00	3.114279e+01
1.030000e-06	4.135997e-07	5.278465e-10	2.724010e+00	3.305736e+01
1.040000e-06	4.319366e-07	5.480866e-10	2.844779e+00	3.500592e+01
1.050000e-06	4.501797e-07	5.708918e-10	2.964930e+00	3.691344e+01
1.060000e-06	4.683349e-07	6.042225e-10	3.084502e+00	3.871728e+01
1.070000e-06	4.864005e-07	6.384213e-10	3.203484e+00	4.039998e+01
1.080000e-06	5.043728e-07	6.599488e-10	3.321851e+00	4.199929e+01
1.090000e-06	5.222540e-07	6.756353e-10	3.439619e+00	4.358901e+01
1.100000e-06	5.399860e-07	7.003607e-10	3.556404e+00	4.524037e+01
1.110000e-06	5.576171e-07	7.343449e-10	3.672524e+00	4.698452e+01
1.120000e-06	5.751297e-07	7.641483e-10	3.787864e+00	4.879653e+01
1.130000e-06	5.923636e-07	7.840859e-10	3.901368e+00	5.060899e+01
1.140000e-06	6.092852e-07	8.053038e-10	4.012815e+00	5.234741e+01
1.150000e-06	6.258394e-07	8.350855e-10	4.121843e+00	5.396783e+01
1.160000e-06	6.420802e-07	8.648465e-10	4.228806e+00	5.547705e+01
1.170000e-06	6.579890e-07	8.851142e-10	4.333584e+00	5.692584e+01
1.180000e-06	6.735034e-07	9.004912e-10	4.435763e+00	5.838071e+01
1.190000e-06	6.886860e-07	9.232170e-10	4.535757e+00	5.989010e+01
1.200000e-06	7.035975e-07	9.534304e-10	4.633966e+00	6.146263e+01
1.210000e-06	7.183241e-07	9.803984e-10	4.730957e+00	6.306722e+01
1.220000e-06	7.328561e-07	9.987130e-10	4.826666e+00	6.465277e+01
1.230000e-06	7.470895e-07	1.015695e-09	4.920409e+00	6.617575e+01
1.240000e-06	7.610089e-07	1.039240e-09	5.012084e+00	6.762085e+01
1.250000e-06	7.746296e-07	1.064249e-09	5.101790e+00	6.900495e+01
1.260000e-06	7.879176e-07	1.082684e-09	5.189307e+00	7.036330e+01
1.270000e-06	8.008923e-07	1.096577e-09	5.274759e+00	7.172644e+01
1.280000e-06	8.136098e-07	1.115470e-09	5.358518e+00	7.310084e+01
1.290000e-06	8.261151e-07	1.141032e-09	5.440879e+00	7.446421e+01
1.300000e-06	8.383604e-07	1.164002e-09	5.521528e+00	7.577890e+01
1.310000e-06	8.503178e-07	1.178684e-09	5.600281e+00	7.701602e+01
1.320000e-06	8.619363e-07	1.191930e-09	5.676802e+00	7.817654e+01
1.330000e-06	8.731006e-07	1.210813e-09	5.750331e+00	7.929552e+01
1.340000e-06	8.837020e-07	1.232027e-09	5.820153e+00	8.042468e+01
1.350000e-06	8.937153e-07	1.248537e-09	5.886101e+00	8.160166e+01
1.360000e-06	9.032458e-07	1.260494e-09	5.948870e+00	8.282344e+01
1.370000e-06	9.123702e-07	1.276514e-09	6.008964e+00	8.404163e+01
1.380000e-06	9.212188e-07	1.297650e-09	6.067242e+00	8.518492e+01
1.390000e-06	9.298757e-07	1.314800e-09	6.124258e+00	8.619804e+01
1.400000e-06	9.383348e-07	1.324409e-09	6.179970e+00	8.707476e+01
1.410000e-06	9.466086e-07	1.332898e-09	6.234462e+00	8.786461e+01
1.420000e-06	9.545954e-07	1.347144e-09	6.287064e+00	8.864768e+01
1.430000e-06	9.622623e-07	1.364690e-09	6.337559e+00	8.949168e+01
1.440000e-06	9.695708e-07	1.378413e-09	6.385693e+00	9.041582e+01
1.450000e-06	9.764999e-07	1.388256e-09	6.431330e+00	9.138258e+01
1.460000e-06	9.831645e-07	1.400212e-09	6.475223e+00	9.232041e+01
1.470000e-06	9.895173e-07	1.415327e-09	6.517063e+00	9.316249e+01
1.480000e-06	9.954751e-07	1.427676e-09	6.556302e+00	9.387793e+01
1.490000e-06	1.001053e-06	1.433816e-09	6.593037e+00	9.447979e+01
1.500000e-06	1.006249e-06	1.438147e-09	6.627261e+00	9.500988e+01
1.510000e-06	1.011137e-06	1.447159e-09	6.659451e+00	9.551460e+01
1.520000e-06	1.015818e-06	1.460171e-09	6.690286e+00	9.602712e+01
1.530000e-06	1.020336e-06	1.470376e-09	6.720037e+00	9.656250e+01
1.540000e-06	1.024664e-06	1.476806e-09	6.748541e+00	9.712016e+01
1.550000e-06	1.028670e-06	1.483607e-09	6.774928e+00	9.768518e+01
1.560000e-06	1.032218e-06	1.491826e-09	6.798297e+00	9.822612e+01
1.570000e-06	1.035234e-06	1.498158e-09	6.818159e+00	9.869677e+01
1.580000e-06	1.037651e-06	1.500613e-09	6.834078e+00	9.905104e+01
1.590000e-06	1.039478e-06	1.501808e-09	6.846112e+00	9.927021e+01
1.600000e-06	1.040810e-06	1.506393e-09	6.854883e+00	9.938668e+01
1.610000e-06	1.041799e-06	1.514257e-09	6.861396e+00	9.948238e+01
1.620000e-06	1.042556e-06	1.518547e-09	6.866384e+00	9.965131e+01
1.630000e-06	1.043062e-06	1.517877e-09	6.869715e+00	9.994141e+01
1.640000e-06	1.043326e-06	1.520414e-09	6.871450e+00	1.003118e+02
1.650000e-06	1.043283e-06	1.528149e-09	6.871173e+00	1.006399e+02
1.660000e-06	1.042857e-06	1.536842e-09	6.868367e+00	1.007860e+02
1.670000e-06	1.042042e-06	1.540287e-09	6.862994e+00	1.006808e+02
1.680000e-06	1.040876e-06	1.530243e-09	6.855315e+00	1.003827e+02
1.690000e-06	1.039410e-06	1.515427e-09	6.845664e+00	1.000588e+02
1.700000e-06	1.037585e-06	1.506492e-09	6.833641e+00	9.989301e+01
1.710000e-06	1.035375e-06	1.483818e-09	6.819087e+00	9.997183e+01
1.720000e-06	1.032793e-06	1.456677e-09	6.802082e+00	1.002201e+02
1.730000e-06	1.029852e-06	1.473366e-09	6.782713e+00	1.004320e+02
1.740000e-06	1.026628e-06	1.548805e-09	6.761480e+00	1.003856e+02
1.750000e-06	1.023206e-06	1.613839e-09	6.738939e+00	9.997268e+01
1.760000e-06	1.019644e-06	1.561554e-09	6.715478e+00	9.926428e+01
1.770000e-06	1.015922e-06	1.472924e-09	6.690969e+00	9.846943e+01
1.780000e-06	1.011849e-06	1.458468e-09	6.664145e+00	9.781207e+01
1.790000e-06	1.007139e-06	1.490011e-09	6.633123e+00	9.740244e+01
1.800000e-06	1.001785e-06	1.505673e-09	6.597860e+00	9.718198e+01
1.810000e-06	9.959363e-07	1.446493e-09	6.559339e+00	9.697257e+01
1.820000e-06	9.895826e-07	1.391145e-09	6.517493e+00	9.659389e+01
1.830000e-06	9.827268e-07	1.431455e-09	6.472340e+00	9.597151e+01
1.840000e-06	9.755361e-07	1.505663e-09	6.424982e+00	9.516840e+01
1.850000e-06	9.681748e-07	1.494930e-09	6.376499e+00	9.432629e+01
1.860000e-06	9.606290e-07	1.412410e-09	6.326802e+00	9.356277e+01
1.870000e-06	9.527814e-07	1.365294e-09	6.275117e+00	9.289577e+01
1.880000e-06	9.445134e-07	1.385132e-09	6.220663e+00	9.224338e+01
1.890000e-06	9.359213e-07	1.410792e-09	6.164074e+00	9.149306e+01
1.900000e-06	9.270982e-07	1.397411e-09	6.105965e+00	9.058735e+01
1.910000e-06	9.179510e-07	1.359929e-09	6.045720e+00	8.956534e+01
1.920000e-06	9.085164e-07	1.322999e-09	5.983583e+00	8.853308e+01
1.930000e-06	8.988350e-07	1.322522e-09	5.919820e+00	8.758686e+01
1.940000e-06	8.888225e-07	1.352559e-09	5.853877e+00	8.674445e+01
1.950000e-06	8.784059e-07	1.336703e-09	5.785272e+00	8.593174e+01
1.960000e-06	8.676457e-07	1.253365e-09	5.714404e+00	8.503239e+01
1.970000e-06	8.566351e-07	1.227905e-09	5.641887e+00	8.396506e+01
1.980000e-06	8.453380e-07	1.298436e-09	5.567484e+00	8.273615e+01
1.990000e-06	8.337153e-07	1.310287e-09	5.490935e+00	8.143436e+01
2.000000e-06	8.218023e-07	1.199812e-09	5.412475e+00	8.017351e+01
2.010000e-06	8.096139e-07	1.131010e-09	5.332201e+00	7.902261e+01
2.020000e-06	7.970028e-07	1.187251e-09	5.249143e+00	7.796744e+01
2.030000e-06	7.838559e-07	1.219887e-09	5.162556e+00	7.692463e+01
2.040000e-06	7.702131e-07	1.151793e-09	5.072703e+00	7.579476e+01
2.050000e-06	7.560869e-07	1.094607e-09	4.979666e+00	7.451892e+01
2.060000e-06	7.414842e-07	1.108784e-09	4.883492e+00	7.310590e+01
2.070000e-06	7.265359e-07	1.116898e-09	4.785040e+00	7.161861e+01
2.080000e-06	7.113860e-07	1.085894e-09	4.685262e+00	7.013417e+01
2.090000e-06	6.960881e-07	1.041808e-09	4.584508e+00	6.870404e+01
2.100000e-06	6.806697e-07	9.959526e-10	4.482961e+00	6.733526e+01
2.110000e-06	6.651550e-07	9.800695e-10	4.380780e+00	6.599762e+01
2.120000e-06	6.495523e-07	1.005996e-09	4.278018e+00	6.464622e+01
2.130000e-06	6.337617e-07	9.986889e-10	4.174020e+00	6.324414e+01
2.140000e-06	6.176771e-07	9.239954e-10	4.068086e+00	6.177481e+01
2.150000e-06	6.013927e-07	8.805501e-10	3.960835e+00	6.024248e+01
2.160000e-06	5.849176e-07	9.081541e-10	3.852328e+00	5.866548e+01
2.170000e-06	5.681876e-07	9.076603e-10	3.742142e+00	5.706757e+01
2.180000e-06	5.512216e-07	8.369393e-10	3.630402e+00	5.547042e+01
2.190000e-06	5.340646e-07	7.813630e-10	3.517404e+00	5.388816e+01
2.200000e-06	5.167607e-07	7.858548e-10	3.403439e+00	5.232454e+01
2.210000e-06	4.993048e-07	7.941454e-10	3.288473e+00	5.077356e+01
2.220000e-06	4.817619e-07	7.632893e-10	3.172934e+00	4.922384e+01
2.230000e-06	4.641346e-07	7.118480e-10	3.056839e+00	4.766463e+01
2.240000e-06	4.463033e-07	6.785021e-10	2.939399e+00	4.608998e+01
2.250000e-06	4.282531e-07	6.762590e-10	2.820519e+00	4.449849e+01
2.260000e-06	4.100455e-07	6.724062e-10	2.700602e+00	4.288935e+01
2.270000e-06	3.916696e-07	6.304512e-10	2.579576e+00	4.125872e+01
2.280000e-06	3.731592e-07	5.744075e-10	2.457665e+00	3.960059e+01
2.290000e-06	3.545387e-07	5.536692e-10	2.335028e+00	3.791245e+01
2.300000e-06	3.357290e-07	5.584791e-10	2.211146e+00	3.620168e+01
2.310000e-06	3.167389e-07	5.380943e-10	2.086075e+00	3.448633e+01
2.320000e-06	2.976718e-07	4.851880e-10	1.960497e+00	3.278758e+01
2.330000e-06	2.785325e-07	4.442312e-10	1.834444e+00	3.111711e+01
2.340000e-06	2.593126e-07	4.383359e-10	1.707860e+00	2.946762e+01
2.350000e-06	2.400231e-07	4.357456e-10	1.580817e+00	2.781395e+01
2.360000e-06	2.207002e-07	3.995551e-10	1.453554e+00	2.612550e+01
2.370000e-06	2.013801e-07	3.465688e-10	1.326310e+00	2.438304e+01
2.380000e-06	1.820378e-07	3.203096e-10	1.198920e+00	2.258943e+01
2.390000e-06	1.626481e-07	3.178987e-10	1.071217e+00	2.076723e+01
2.400000e-06	1.432276e-07	2.979563e-10	9.433119e-01	1.894472e+01
2.410000e-06	1.238111e-07	2.504513e-10	8.154329e-01	1.713957e+01
2.420000e-06	1.043768e-07	2.106465e-10	6.874362e-01	1.535042e+01
2.430000e-06	8.493554e-08	1.995733e-10	5.593942e-01	1.356145e+01
2.440000e-06	6.548760e-08	1.926687e-10	4.313081e-01	1.175572e+01
2.450000e-06	4.602671e-08	1.594213e-10	3.031366e-01	9.927728e+00
2.460000e-06	2.658642e-08	1.103261e-10	1.751009e-01	8.086631e+00
2.470000e-06	7.151402e-09	7.900095e-11	4.709987e-02	6.248316e+00
2.480000e-06	-1.230422e-08	6.894857e-11	-8.103688e-02	4.422611e+00
2.490000e-06	-3.175506e-08	5.117870e-11	-2.091421e-01	2.605004e+00
2.500000e-06	-5.118158e-08	1.191807e-11	-3.370872e-01	7.789860e-01
2.510000e-06	-7.060236e-08	-2.704372e-11	-4.649944e-01	-1.072351e+00
2.520000e-06	-9.001521e-08	-4.542292e-11	-5.928495e-01	-2.953339e+00
2.530000e-06	-1.094149e-07	-5.674841e-11	-7.206176e-01	-4.850414e+00
2.540000e-06	-1.288103e-07	-8.627271e-11	-8.483577e-01	-6.738635e+00
2.550000e-06	-1.482030e-07	-1.309099e-10	-9.760805e-01	-8.596520e+00
2.560000e-06	-1.675815e-07	-1.637208e-10	-1.103709e+00	-1.042001e+01
2.570000e-06	-1.869453e-07	-1.761292e-10	-1.231241e+00	-1.222642e+01
2.580000e-06	-2.062906e-07	-1.918097e-10	-1.358651e+00	-1.404490e+01
2.590000e-06	-2.255801e-07	-2.283893e-10	-1.485694e+00	-1.589820e+01
2.600000e-06	-2.448069e-07	-2.690405e-10	-1.612324e+00	-1.778632e+01
2.610000e-06	-2.640055e-07	-2.924143e-10	-1.738767e+00	-1.968243e+01
2.620000e-06	-2.831921e-07	-3.067266e-10	-1.865132e+00	-2.154516e+01
2.630000e-06	-3.023081e-07	-3.334128e-10	-1.991033e+00	-2.334177e+01
2.640000e-06	-3.212811e-07	-3.731695e-10	-2.115991e+00	-2.506980e+01
2.650000e-06	-3.401580e-07	-4.061328e-10	-2.240316e+00	-2.676389e+01
2.660000e-06	-3.589230e-07	-4.238182e-10	-2.363904e+00	-2.848183e+01
2.670000e-06	-3.774899e-07	-4.416442e-10	-2.486187e+00	-3.027527e+01
2.680000e-06	-3.957931e-07	-4.745576e-10	-2.606735e+00	-3.216005e+01
2.690000e-06	-4.139121e-07	-5.147945e-10	-2.726068e+00	-3.410321e+01
2.700000e-06	-4.319336e-07	-5.433934e-10	-2.844760e+00	-3.603554e+01
2.710000e-06	-4.498310e-07	-5.585525e-10	-2.962633e+00	-3.788487e+01
2.720000e-06	-4.675860e-07	-5.788537e-10	-3.079570e+00	-3.961324e+01
2.730000e-06	-4.851891e-07	-6.127971e-10	-3.195506e+00	-4.123741e+01
2.740000e-06	-5.026946e-07	-6.457577e-10	-3.310798e+00	-4.282096e+01
2.750000e-06	-5.200966e-07	-6.656036e-10	-3.425410e+00	-4.444115e+01
2.760000e-06	-5.373435e-07	-6.828571e-10	-3.539000e+00	-4.614835e+01
2.770000e-06	-5.543611e-07	-7.124845e-10	-3.651079e+00	-4.793966e+01
2.780000e-06	-5.711616e-07	-7.504901e-10	-3.761729e+00	-4.976100e+01
2.790000e-06	-5.877451e-07	-7.801465e-10	-3.870950e+00	-5.153580e+01
2.800000e-06	-6.040582e-07	-7.968846e-10	-3.978390e+00	-5.320436e+01
2.810000e-06	-6.201404e-07	-8.140432e-10	-4.084309e+00	-5.475283e+01
2.820000e-06	-6.360437e-07	-8.415291e-10	-4.189050e+00	-5.621716e+01
2.830000e-06	-6.517706e-07	-8.715220e-10	-4.292629e+00	-5.766184e+01
2.840000e-06	-6.673428e-07	-8.919830e-10	-4.395189e+00	-5.914597e+01
2.850000e-06	-6.828036e-07	-9.091385e-10	-4.497015e+00	-6.069511e+01
2.860000e-06	-6.981226e-07	-9.350000e-10	-4.597908e+00	-6.229234e+01
2.870000e-06	-7.132438e-07	-9.690071e-10	-4.697497e+00	-6.389123e+01
2.880000e-06	-7.281362e-07	-9.971829e-10	-4.795580e+00	-6.544211e+01
2.890000e-06	-7.427770e-07	-1.012020e-09	-4.892006e+00	-6.691708e+01
2.900000e-06	-7.570626e-07	-1.026731e-09	-4.986092e+00	-6.832114e+01
2.910000e-06	-7.708512e-07	-1.052344e-09	-5.076906e+00	-6.968481e+01
2.920000e-06	-7.841145e-07	-1.082804e-09	-5.164259e+00	-7.104332e+01
2.930000e-06	-7.969061e-07	-1.105392e-09	-5.248506e+00	-7.241411e+01
2.940000e-06	-8.092581e-07	-1.120389e-09	-5.329858e+00	-7.378558e+01
