# Temperatura_=_20.0
# Concentracion g/m^3_=_10000.0
# C_Vs_to_Am_M_A/Vsm_=_65563218390.804596
# pendiente_HvsI_1/m_=_3716.3
# ordenada_HvsI_A/m_=_1297.0
# frecuencia_Hz_=_300946.9326729419

Tiempo_(s)	Campo_(V.s)	Magnetizacion_(V.s)	Campo_(kA/m)	Magnetizacion_(A/m)
0.000000e+00	-4.560023e-06	-8.893438e-09	-3.087867e+01	-5.827054e+02
1.000000e-08	-4.557760e-06	-8.894573e-09	-3.086334e+01	-5.826718e+02
2.000000e-08	-4.553854e-06	-8.893148e-09	-3.083689e+01	-5.825221e+02
3.000000e-08	-4.548559e-06	-8.888880e-09	-3.080104e+01	-5.821820e+02
4.000000e-08	-4.541870e-06	-8.879514e-09	-3.075575e+01	-5.816350e+02
5.000000e-08	-4.533887e-06	-8.866728e-09	-3.070169e+01	-5.809374e+02
6.000000e-08	-4.524419e-06	-8.852497e-09	-3.063757e+01	-5.801862e+02
7.000000e-08	-4.513128e-06	-8.828375e-09	-3.056111e+01	-5.794596e+02
8.000000e-08	-4.499950e-06	-8.831091e-09	-3.047188e+01	-5.787678e+02
9.000000e-08	-4.484559e-06	-8.865421e-09	-3.036766e+01	-5.780466e+02
1.000000e-07	-4.466899e-06	-8.840800e-09	-3.024807e+01	-5.771986e+02
1.100000e-07	-4.447585e-06	-8.810467e-09	-3.011728e+01	-5.761556e+02
1.200000e-07	-4.427231e-06	-8.720461e-09	-2.997945e+01	-5.749234e+02
1.300000e-07	-4.406005e-06	-8.679586e-09	-2.983572e+01	-5.735794e+02
1.400000e-07	-4.383497e-06	-8.826106e-09	-2.968331e+01	-5.722274e+02
1.500000e-07	-4.359603e-06	-8.715126e-09	-2.952150e+01	-5.709368e+02
1.600000e-07	-4.334360e-06	-8.603989e-09	-2.935057e+01	-5.697056e+02
1.700000e-07	-4.307301e-06	-8.745661e-09	-2.916734e+01	-5.684657e+02
1.800000e-07	-4.278531e-06	-8.641601e-09	-2.897252e+01	-5.671258e+02
1.900000e-07	-4.248572e-06	-8.561285e-09	-2.876965e+01	-5.656205e+02
2.000000e-07	-4.217264e-06	-8.693177e-09	-2.855764e+01	-5.639369e+02
2.100000e-07	-4.184262e-06	-8.539104e-09	-2.833416e+01	-5.621045e+02
2.200000e-07	-4.149547e-06	-8.433710e-09	-2.809909e+01	-5.601609e+02
2.300000e-07	-4.113405e-06	-8.547125e-09	-2.785435e+01	-5.581176e+02
2.400000e-07	-4.075925e-06	-8.475257e-09	-2.760055e+01	-5.559497e+02
2.500000e-07	-4.036946e-06	-8.433782e-09	-2.733660e+01	-5.536128e+02
2.600000e-07	-3.996520e-06	-8.389560e-09	-2.706285e+01	-5.510762e+02
2.700000e-07	-3.954692e-06	-8.294830e-09	-2.677961e+01	-5.483478e+02
2.800000e-07	-3.911322e-06	-8.317925e-09	-2.648592e+01	-5.454758e+02
2.900000e-07	-3.866432e-06	-8.286435e-09	-2.618194e+01	-5.425267e+02
3.000000e-07	-3.820149e-06	-8.180680e-09	-2.586853e+01	-5.395507e+02
3.100000e-07	-3.772482e-06	-8.142261e-09	-2.554575e+01	-5.365555e+02
3.200000e-07	-3.723392e-06	-8.128236e-09	-2.521333e+01	-5.335012e+02
3.300000e-07	-3.672708e-06	-8.096436e-09	-2.487012e+01	-5.303187e+02
3.400000e-07	-3.620290e-06	-8.036365e-09	-2.451517e+01	-5.269418e+02
3.500000e-07	-3.566353e-06	-7.960480e-09	-2.414993e+01	-5.233383e+02
3.600000e-07	-3.511187e-06	-7.872176e-09	-2.377637e+01	-5.195248e+02
3.700000e-07	-3.455089e-06	-7.835190e-09	-2.339649e+01	-5.155588e+02
3.800000e-07	-3.397908e-06	-7.825399e-09	-2.300929e+01	-5.115106e+02
3.900000e-07	-3.339127e-06	-7.718509e-09	-2.261125e+01	-5.074291e+02
4.000000e-07	-3.278968e-06	-7.638055e-09	-2.220387e+01	-5.033158e+02
4.100000e-07	-3.217778e-06	-7.601112e-09	-2.178952e+01	-4.991235e+02
4.200000e-07	-3.155573e-06	-7.550633e-09	-2.136829e+01	-4.947772e+02
4.300000e-07	-3.092324e-06	-7.482700e-09	-2.093999e+01	-4.902113e+02
4.400000e-07	-3.028051e-06	-7.370455e-09	-2.050476e+01	-4.854009e+02
4.500000e-07	-2.962677e-06	-7.283955e-09	-2.006207e+01	-4.803715e+02
4.600000e-07	-2.895914e-06	-7.237202e-09	-1.960998e+01	-4.751813e+02
4.700000e-07	-2.828003e-06	-7.178350e-09	-1.915012e+01	-4.698871e+02
4.800000e-07	-2.759254e-06	-7.082655e-09	-1.868458e+01	-4.645125e+02
4.900000e-07	-2.689576e-06	-6.977090e-09	-1.821274e+01	-4.590376e+02
5.000000e-07	-2.618975e-06	-6.898490e-09	-1.773466e+01	-4.534142e+02
5.100000e-07	-2.547560e-06	-6.827586e-09	-1.725107e+01	-4.475950e+02
5.200000e-07	-2.475416e-06	-6.736078e-09	-1.676253e+01	-4.415578e+02
5.300000e-07	-2.402280e-06	-6.621155e-09	-1.626729e+01	-4.353102e+02
5.400000e-07	-2.327874e-06	-6.510204e-09	-1.576344e+01	-4.288736e+02
5.500000e-07	-2.252388e-06	-6.434167e-09	-1.525228e+01	-4.222615e+02
5.600000e-07	-2.176099e-06	-6.351523e-09	-1.473568e+01	-4.154681e+02
5.700000e-07	-2.099023e-06	-6.231447e-09	-1.421375e+01	-4.084744e+02
5.800000e-07	-2.021117e-06	-6.098974e-09	-1.368620e+01	-4.012666e+02
5.900000e-07	-1.942475e-06	-5.984222e-09	-1.315367e+01	-3.938498e+02
6.000000e-07	-1.863069e-06	-5.890158e-09	-1.261597e+01	-3.862450e+02
6.100000e-07	-1.782706e-06	-5.777792e-09	-1.207178e+01	-3.784699e+02
6.200000e-07	-1.701471e-06	-5.642121e-09	-1.152169e+01	-3.705184e+02
6.300000e-07	-1.619700e-06	-5.505067e-09	-1.096797e+01	-3.623534e+02
6.400000e-07	-1.537525e-06	-5.389534e-09	-1.041151e+01	-3.539234e+02
6.500000e-07	-1.454914e-06	-5.274779e-09	-9.852098e+00	-3.451918e+02
6.600000e-07	-1.371825e-06	-5.130942e-09	-9.289453e+00	-3.361607e+02
6.700000e-07	-1.288207e-06	-4.972655e-09	-8.723229e+00	-3.268720e+02
6.800000e-07	-1.204181e-06	-4.825108e-09	-8.154239e+00	-3.173828e+02
6.900000e-07	-1.119904e-06	-4.695353e-09	-7.583549e+00	-3.077300e+02
7.000000e-07	-1.035381e-06	-4.553812e-09	-7.011188e+00	-2.979047e+02
7.100000e-07	-9.506067e-07	-4.387472e-09	-6.437132e+00	-2.878521e+02
7.200000e-07	-8.655012e-07	-4.216798e-09	-5.860831e+00	-2.774959e+02
7.300000e-07	-7.800139e-07	-4.060708e-09	-5.281945e+00	-2.667729e+02
7.400000e-07	-6.942776e-07	-3.906691e-09	-4.701373e+00	-2.556578e+02
7.500000e-07	-6.083666e-07	-3.733282e-09	-4.119618e+00	-2.441666e+02
7.600000e-07	-5.222411e-07	-3.540819e-09	-3.536410e+00	-2.323420e+02
7.700000e-07	-4.358859e-07	-3.350628e-09	-2.951646e+00	-2.202293e+02
7.800000e-07	-3.494198e-07	-3.173674e-09	-2.366132e+00	-2.078578e+02
7.900000e-07	-2.628926e-07	-2.989148e-09	-1.780205e+00	-1.952316e+02
8.000000e-07	-1.762235e-07	-2.784363e-09	-1.193316e+00	-1.823297e+02
8.100000e-07	-8.947320e-08	-2.569819e-09	-6.058771e-01	-1.691106e+02
8.200000e-07	-2.717746e-09	-2.363510e-09	-1.840350e-02	-1.555195e+02
8.300000e-07	8.401550e-08	-2.161443e-09	5.689197e-01	-1.414990e+02
8.400000e-07	1.707241e-07	-1.944286e-09	1.156076e+00	-1.270051e+02
8.500000e-07	2.574090e-07	-1.706241e-09	1.743071e+00	-1.120235e+02
8.600000e-07	3.440145e-07	-1.463616e-09	2.329530e+00	-9.658024e+01
8.700000e-07	4.304871e-07	-1.229276e-09	2.915088e+00	-8.073542e+01
8.800000e-07	5.168025e-07	-9.910900e-10	3.499582e+00	-6.456058e+01
8.900000e-07	6.029531e-07	-7.375806e-10	4.082959e+00	-4.810655e+01
9.000000e-07	6.888665e-07	-4.739668e-10	4.664731e+00	-3.137924e+01
9.100000e-07	7.744961e-07	-2.129541e-10	5.244580e+00	-1.433762e+01
9.200000e-07	8.598435e-07	4.575871e-11	5.822519e+00	3.081580e+00
9.300000e-07	9.449467e-07	3.157030e-10	6.398805e+00	2.092305e+01
9.400000e-07	1.029793e-06	6.019936e-10	6.973352e+00	3.917558e+01
9.500000e-07	1.114314e-06	8.917972e-10	7.545692e+00	5.775749e+01
9.600000e-07	1.198511e-06	1.172465e-09	8.115838e+00	7.653238e+01
9.700000e-07	1.282402e-06	1.450020e-09	8.683918e+00	9.534786e+01
9.800000e-07	1.365925e-06	1.735195e-09	9.249505e+00	1.140787e+02
9.900000e-07	1.448981e-06	2.026905e-09	9.811926e+00	1.326543e+02
1.000000e-06	1.531461e-06	2.310826e-09	1.037044e+01	1.510587e+02
1.010000e-06	1.613386e-06	2.583487e-09	1.092521e+01	1.693051e+02
1.020000e-06	1.694762e-06	2.856783e-09	1.147625e+01	1.873986e+02
1.030000e-06	1.775551e-06	3.135945e-09	1.202333e+01	2.053055e+02
1.040000e-06	1.855641e-06	3.410276e-09	1.256566e+01	2.229428e+02
1.050000e-06	1.934945e-06	3.668778e-09	1.310268e+01	2.401937e+02
1.060000e-06	2.013544e-06	3.914726e-09	1.363492e+01	2.569398e+02
1.070000e-06	2.091405e-06	4.158044e-09	1.416217e+01	2.730951e+02
1.080000e-06	2.168562e-06	4.400980e-09	1.468464e+01	2.886262e+02
1.090000e-06	2.244979e-06	4.633276e-09	1.520211e+01	3.035496e+02
1.100000e-06	2.320460e-06	4.848948e-09	1.571324e+01	3.179095e+02
1.110000e-06	2.394914e-06	5.056222e-09	1.621741e+01	3.317492e+02
1.120000e-06	2.468285e-06	5.262148e-09	1.671425e+01	3.450898e+02
1.130000e-06	2.540662e-06	5.461908e-09	1.720435e+01	3.579268e+02
1.140000e-06	2.612221e-06	5.646055e-09	1.768893e+01	3.702420e+02
1.150000e-06	2.682913e-06	5.818407e-09	1.816762e+01	3.820210e+02
1.160000e-06	2.752639e-06	5.987536e-09	1.863978e+01	3.932639e+02
1.170000e-06	2.821435e-06	6.155494e-09	1.910564e+01	4.039836e+02
1.180000e-06	2.889378e-06	6.316354e-09	1.956572e+01	4.141959e+02
1.190000e-06	2.956320e-06	6.462763e-09	2.001903e+01	4.239124e+02
1.200000e-06	3.021955e-06	6.598869e-09	2.046348e+01	4.331424e+02
1.210000e-06	3.086367e-06	6.731642e-09	2.089966e+01	4.419045e+02
1.220000e-06	3.149855e-06	6.861447e-09	2.132957e+01	4.502375e+02
1.230000e-06	3.212385e-06	6.983372e-09	2.175300e+01	4.581982e+02
1.240000e-06	3.273845e-06	7.095899e-09	2.216918e+01	4.658444e+02
1.250000e-06	3.334303e-06	7.205746e-09	2.257857e+01	4.732082e+02
1.260000e-06	3.393720e-06	7.318590e-09	2.298092e+01	4.802804e+02
1.270000e-06	3.451739e-06	7.423938e-09	2.337381e+01	4.870149e+02
1.280000e-06	3.508273e-06	7.516736e-09	2.375664e+01	4.933580e+02
1.290000e-06	3.563573e-06	7.602694e-09	2.413110e+01	4.992855e+02
1.300000e-06	3.617709e-06	7.689304e-09	2.449769e+01	5.048262e+02
1.310000e-06	3.670565e-06	7.775563e-09	2.485561e+01	5.100578e+02
1.320000e-06	3.721861e-06	7.854569e-09	2.520296e+01	5.150751e+02
1.330000e-06	3.771446e-06	7.926129e-09	2.553874e+01	5.199475e+02
1.340000e-06	3.819543e-06	7.994389e-09	2.586443e+01	5.246900e+02
1.350000e-06	3.866301e-06	8.063812e-09	2.618106e+01	5.292624e+02
1.360000e-06	3.911744e-06	8.128636e-09	2.648878e+01	5.335972e+02
1.370000e-06	3.955947e-06	8.185755e-09	2.678810e+01	5.376390e+02
1.380000e-06	3.998715e-06	8.238421e-09	2.707771e+01	5.413748e+02
1.390000e-06	4.039847e-06	8.292813e-09	2.735624e+01	5.448413e+02
1.400000e-06	4.079587e-06	8.349169e-09	2.762535e+01	5.481066e+02
1.410000e-06	4.118019e-06	8.400372e-09	2.788559e+01	5.512389e+02
1.420000e-06	4.155052e-06	8.444035e-09	2.813637e+01	5.542782e+02
1.430000e-06	4.190748e-06	8.484690e-09	2.837809e+01	5.572227e+02
1.440000e-06	4.224856e-06	8.526600e-09	2.860905e+01	5.600355e+02
1.450000e-06	4.257351e-06	8.566840e-09	2.882909e+01	5.626661e+02
1.460000e-06	4.288444e-06	8.601669e-09	2.903964e+01	5.650772e+02
1.470000e-06	4.318148e-06	8.631817e-09	2.924078e+01	5.672636e+02
1.480000e-06	4.346515e-06	8.663532e-09	2.943287e+01	5.692561e+02
1.490000e-06	4.373266e-06	8.697718e-09	2.961403e+01	5.711079e+02
1.500000e-06	4.398199e-06	8.728990e-09	2.978286e+01	5.728687e+02
1.510000e-06	4.421542e-06	8.752832e-09	2.994093e+01	5.745606e+02
1.520000e-06	4.443382e-06	8.771292e-09	3.008882e+01	5.761681e+02
1.530000e-06	4.463809e-06	8.790727e-09	3.022715e+01	5.776492e+02
1.540000e-06	4.482839e-06	8.811915e-09	3.035601e+01	5.789632e+02
1.550000e-06	4.500264e-06	8.830534e-09	3.047400e+01	5.800975e+02
1.560000e-06	4.516051e-06	8.843365e-09	3.058090e+01	5.810790e+02
1.570000e-06	4.530211e-06	8.855144e-09	3.067679e+01	5.819582e+02
1.580000e-06	4.542664e-06	8.871569e-09	3.076112e+01	5.827770e+02
1.590000e-06	4.553166e-06	8.887792e-09	3.083224e+01	5.835387e+02
1.600000e-06	4.561809e-06	8.897348e-09	3.089076e+01	5.842035e+02
1.610000e-06	4.568923e-06	8.901060e-09	3.093894e+01	5.847129e+02
1.620000e-06	4.574519e-06	8.904618e-09	3.097683e+01	5.850314e+02
1.630000e-06	4.578708e-06	8.910194e-09	3.100520e+01	5.851753e+02
1.640000e-06	4.581258e-06	8.914421e-09	3.102246e+01	5.852091e+02
1.650000e-06	4.581987e-06	8.912663e-09	3.102740e+01	5.852079e+02
1.660000e-06	4.581175e-06	8.907107e-09	3.102190e+01	5.852091e+02
1.670000e-06	4.578900e-06	8.903589e-09	3.100650e+01	5.851849e+02
1.680000e-06	4.575350e-06	8.903980e-09	3.098245e+01	5.850572e+02
1.690000e-06	4.570349e-06	8.899081e-09	3.094859e+01	5.847471e+02
1.700000e-06	4.563567e-06	8.888351e-09	3.090267e+01	5.842278e+02
1.710000e-06	4.555275e-06	8.879268e-09	3.084651e+01	5.835461e+02
1.720000e-06	4.545703e-06	8.879702e-09	3.078170e+01	5.827966e+02
1.730000e-06	4.534783e-06	8.900215e-09	3.070775e+01	5.820640e+02
1.740000e-06	4.522199e-06	8.838948e-09	3.062254e+01	5.813698e+02
1.750000e-06	4.507311e-06	8.786299e-09	3.052172e+01	5.806586e+02
1.760000e-06	4.489932e-06	8.780903e-09	3.040404e+01	5.798342e+02
1.770000e-06	4.470768e-06	8.803824e-09	3.027427e+01	5.788207e+02
1.780000e-06	4.450861e-06	8.897005e-09	3.013946e+01	5.776122e+02
1.790000e-06	4.430582e-06	8.742162e-09	3.000215e+01	5.762778e+02
1.800000e-06	4.408699e-06	8.657997e-09	2.985396e+01	5.749213e+02
1.810000e-06	4.384461e-06	8.852564e-09	2.968984e+01	5.736203e+02
1.820000e-06	4.358997e-06	8.705201e-09	2.951740e+01	5.723835e+02
1.830000e-06	4.332362e-06	8.635523e-09	2.933704e+01	5.711506e+02
1.840000e-06	4.303526e-06	8.813572e-09	2.914177e+01	5.698300e+02
1.850000e-06	4.272881e-06	8.604309e-09	2.893426e+01	5.683505e+02
1.860000e-06	4.240976e-06	8.560098e-09	2.871821e+01	5.666912e+02
1.870000e-06	4.207682e-06	8.771175e-09	2.849276e+01	5.648775e+02
1.880000e-06	4.173155e-06	8.592159e-09	2.825895e+01	5.629482e+02
1.890000e-06	4.137058e-06	8.531460e-09	2.801452e+01	5.609200e+02
1.900000e-06	4.099123e-06	8.569620e-09	2.775764e+01	5.587725e+02
1.910000e-06	4.059776e-06	8.448333e-09	2.749119e+01	5.564623e+02
1.920000e-06	4.018977e-06	8.548276e-09	2.721492e+01	5.539549e+02
1.930000e-06	3.976850e-06	8.440312e-09	2.692965e+01	5.512517e+02
1.940000e-06	3.933636e-06	8.294467e-09	2.663703e+01	5.483963e+02
1.950000e-06	3.889052e-06	8.391418e-09	2.633512e+01	5.454544e+02
1.960000e-06	3.843012e-06	8.309822e-09	2.602335e+01	5.424806e+02
1.970000e-06	3.795466e-06	8.255658e-09	2.570139e+01	5.394896e+02
1.980000e-06	3.746516e-06	8.195256e-09	2.536992e+01	5.364477e+02
1.990000e-06	3.696297e-06	8.100492e-09	2.502986e+01	5.332880e+02
2.000000e-06	3.644700e-06	8.118160e-09	2.468047e+01	5.299419e+02
2.010000e-06	3.591692e-06	8.058367e-09	2.432151e+01	5.263709e+02
2.020000e-06	3.537097e-06	8.024132e-09	2.395182e+01	5.225846e+02
2.030000e-06	3.481030e-06	7.912102e-09	2.357216e+01	5.186361e+02
2.040000e-06	3.423784e-06	7.822627e-09	2.318451e+01	5.145958e+02
2.050000e-06	3.365374e-06	7.856695e-09	2.278898e+01	5.105177e+02
2.060000e-06	3.305996e-06	7.737332e-09	2.238690e+01	5.064109e+02
2.070000e-06	3.245437e-06	7.663608e-09	2.197681e+01	5.022342e+02
2.080000e-06	3.183331e-06	7.583819e-09	2.155626e+01	4.979145e+02
2.090000e-06	3.120048e-06	7.525234e-09	2.112773e+01	4.933828e+02
2.100000e-06	3.055759e-06	7.525632e-09	2.069239e+01	4.886069e+02
2.110000e-06	2.990339e-06	7.389519e-09	2.024939e+01	4.836056e+02
2.120000e-06	2.923895e-06	7.303839e-09	1.979946e+01	4.784345e+02
2.130000e-06	2.856647e-06	7.212817e-09	1.934408e+01	4.731527e+02
2.140000e-06	2.788436e-06	7.150109e-09	1.888219e+01	4.677899e+02
2.150000e-06	2.718883e-06	7.090797e-09	1.841120e+01	4.623319e+02
2.160000e-06	2.648138e-06	6.956762e-09	1.793214e+01	4.567330e+02
2.170000e-06	2.576521e-06	6.877680e-09	1.744718e+01	4.509439e+02
2.180000e-06	2.504124e-06	6.789234e-09	1.695694e+01	4.449381e+02
2.190000e-06	2.430898e-06	6.728074e-09	1.646108e+01	4.387193e+02
2.200000e-06	2.356846e-06	6.620270e-09	1.595963e+01	4.323085e+02
2.210000e-06	2.281887e-06	6.478782e-09	1.545203e+01	4.257214e+02
2.220000e-06	2.205986e-06	6.388302e-09	1.493806e+01	4.189549e+02
2.230000e-06	2.129166e-06	6.295181e-09	1.441787e+01	4.119910e+02
2.240000e-06	2.051246e-06	6.206155e-09	1.389023e+01	4.048140e+02
2.250000e-06	1.972385e-06	6.068092e-09	1.335621e+01	3.974260e+02
2.260000e-06	1.892878e-06	5.933358e-09	1.281782e+01	3.898467e+02
2.270000e-06	1.812871e-06	5.830620e-09	1.227604e+01	3.820956e+02
2.280000e-06	1.732327e-06	5.726263e-09	1.173063e+01	3.741710e+02
2.290000e-06	1.651139e-06	5.603313e-09	1.118086e+01	3.660396e+02
2.300000e-06	1.569420e-06	5.444770e-09	1.062749e+01	3.576504e+02
2.310000e-06	1.487173e-06	5.312578e-09	1.007055e+01	3.489628e+02
2.320000e-06	1.404406e-06	5.196759e-09	9.510083e+00	3.399727e+02
2.330000e-06	1.321277e-06	5.065671e-09	8.947164e+00	3.307173e+02
2.340000e-06	1.237878e-06	4.905883e-09	8.382420e+00	3.212537e+02
2.350000e-06	1.154192e-06	4.736720e-09	7.815732e+00	3.116237e+02
2.360000e-06	1.070094e-06	4.598802e-09	7.246253e+00	3.018255e+02
2.370000e-06	9.855303e-07	4.461963e-09	6.673620e+00	2.918098e+02
2.380000e-06	9.005111e-07	4.302923e-09	6.097904e+00	2.815016e+02
2.390000e-06	8.150373e-07	4.124331e-09	5.519110e+00	2.708336e+02
2.400000e-06	7.290853e-07	3.952688e-09	4.937077e+00	2.597744e+02
2.410000e-06	6.426966e-07	3.795001e-09	4.352087e+00	2.483347e+02
2.420000e-06	5.561100e-07	3.622839e-09	3.765757e+00	2.365548e+02
2.430000e-06	4.693777e-07	3.425309e-09	3.178440e+00	2.244810e+02
2.440000e-06	3.824331e-07	3.220053e-09	2.589685e+00	2.121456e+02
2.450000e-06	2.953821e-07	3.032929e-09	2.000211e+00	1.995566e+02
2.460000e-06	2.082870e-07	2.850852e-09	1.410437e+00	1.866962e+02
2.470000e-06	1.211360e-07	2.651215e-09	8.202852e-01	1.735256e+02
2.480000e-06	3.389816e-08	2.430734e-09	2.295449e-01	1.599912e+02
2.490000e-06	-5.332153e-08	2.211491e-09	-3.610722e-01	1.460353e+02
2.500000e-06	-1.404584e-07	2.007435e-09	-9.511285e-01	1.316108e+02
2.510000e-06	-2.275481e-07	1.792830e-09	-1.540866e+00	1.166983e+02
2.520000e-06	-3.145673e-07	1.551667e-09	-2.130125e+00	1.013179e+02
2.530000e-06	-4.014831e-07	1.297092e-09	-2.718684e+00	8.552604e+01
2.540000e-06	-4.881953e-07	1.052105e-09	-3.305865e+00	6.939443e+01
2.550000e-06	-5.746432e-07	8.139578e-10	-3.891256e+00	5.297875e+01
2.560000e-06	-6.608733e-07	5.606829e-10	-4.475172e+00	3.629207e+01
2.570000e-06	-7.468259e-07	2.888801e-10	-5.057209e+00	1.929914e+01
2.580000e-06	-8.323751e-07	1.707820e-11	-5.636514e+00	1.937539e+00
2.590000e-06	-9.174924e-07	-2.429266e-10	-6.212895e+00	-1.584267e+01
2.600000e-06	-1.002191e-06	-5.070026e-10	-6.786440e+00	-3.403984e+01
2.610000e-06	-1.086474e-06	-7.908895e-10	-7.357170e+00	-5.258210e+01
2.620000e-06	-1.170349e-06	-1.087216e-09	-7.925140e+00	-7.133885e+01
2.630000e-06	-1.253800e-06	-1.375803e-09	-8.490236e+00	-9.015722e+01
2.640000e-06	-1.336840e-06	-1.654783e-09	-9.052549e+00	-1.089059e+02
2.650000e-06	-1.419540e-06	-1.937049e-09	-9.612563e+00	-1.275057e+02
2.660000e-06	-1.501832e-06	-2.227200e-09	-1.016981e+01	-1.459340e+02
2.670000e-06	-1.583581e-06	-2.512822e-09	-1.072338e+01	-1.642020e+02
2.680000e-06	-1.664757e-06	-2.781719e-09	-1.127308e+01	-1.823183e+02
2.690000e-06	-1.745356e-06	-3.042852e-09	-1.181886e+01	-2.002558e+02
2.700000e-06	-1.825399e-06	-3.310105e-09	-1.236088e+01	-2.179383e+02
2.710000e-06	-1.904974e-06	-3.582940e-09	-1.289973e+01	-2.352520e+02
2.720000e-06	-1.983955e-06	-3.845394e-09	-1.343456e+01	-2.520765e+02
2.730000e-06	-2.062044e-06	-4.090542e-09	-1.396334e+01	-2.683195e+02
2.740000e-06	-2.139087e-06	-4.326292e-09	-1.448505e+01	-2.839398e+02
2.750000e-06	-2.215113e-06	-4.559686e-09	-1.499986e+01	-2.989475e+02
2.760000e-06	-2.290243e-06	-4.786764e-09	-1.550862e+01	-3.133850e+02
2.770000e-06	-2.364548e-06	-4.996452e-09	-1.601178e+01	-3.272970e+02
2.780000e-06	-2.437978e-06	-5.192444e-09	-1.650902e+01	-3.407087e+02
2.790000e-06	-2.510554e-06	-5.387471e-09	-1.700048e+01	-3.536186e+02
2.800000e-06	-2.582385e-06	-5.583266e-09	-1.748689e+01	-3.660094e+02
2.810000e-06	-2.653417e-06	-5.769703e-09	-1.796789e+01	-3.778654e+02
2.820000e-06	-2.723434e-06	-5.939388e-09	-1.844202e+01	-3.891843e+02
2.830000e-06	-2.792264e-06	-6.099400e-09	-1.890810e+01	-3.999776e+02
2.840000e-06	-2.860003e-06	-6.259208e-09	-1.936681e+01	-4.102616e+02
2.850000e-06	-2.926799e-06	-6.415191e-09	-1.981912e+01	-4.200484e+02
2.860000e-06	-2.992599e-06	-6.556307e-09	-2.026470e+01	-4.293471e+02
2.870000e-06	-3.057399e-06	-6.684586e-09	-2.070349e+01	-4.381742e+02
2.880000e-06	-3.121266e-06	-6.810765e-09	-2.113598e+01	-4.465652e+02
2.890000e-06	-3.184109e-06	-6.937608e-09	-2.156153e+01	-4.545753e+02
2.900000e-06	-3.245589e-06	-7.058650e-09	-2.197784e+01	-4.622635e+02
2.910000e-06	-3.305721e-06	-7.169233e-09	-2.238503e+01	-4.696673e+02
2.920000e-06	-3.364816e-06	-7.274144e-09	-2.278520e+01	-4.767832e+02
2.930000e-06	-3.422822e-06	-7.379035e-09	-2.317799e+01	-4.835695e+02
2.940000e-06	-3.479574e-06	-7.480510e-09	-2.356229e+01	-4.899710e+02
