# Temperatura_=_20.0
# Concentracion g/m^3_=_10000.0
# C_Vs_to_Am_M_A/Vsm_=_65563218390.804596
# pendiente_HvsI_1/m_=_3716.3
# ordenada_HvsI_A/m_=_1297.0
# frecuencia_Hz_=_300949.0744113964

Tiempo_(s)	Campo_(V.s)	Magnetizacion_(V.s)	Campo_(kA/m)	Magnetizacion_(A/m)
0.000000e+00	-4.555778e-06	-8.941468e-09	-3.088510e+01	-5.856408e+02
1.000000e-08	-4.554835e-06	-8.944001e-09	-3.087870e+01	-5.854775e+02
2.000000e-08	-4.552272e-06	-8.944308e-09	-3.086133e+01	-5.853149e+02
3.000000e-08	-4.548111e-06	-8.941596e-09	-3.083312e+01	-5.851401e+02
4.000000e-08	-4.542590e-06	-8.937071e-09	-3.079569e+01	-5.849117e+02
5.000000e-08	-4.535633e-06	-8.929181e-09	-3.074852e+01	-5.845854e+02
6.000000e-08	-4.527345e-06	-8.918305e-09	-3.069234e+01	-5.841328e+02
7.000000e-08	-4.517594e-06	-8.900027e-09	-3.062624e+01	-5.835442e+02
8.000000e-08	-4.506008e-06	-8.877959e-09	-3.054769e+01	-5.828195e+02
9.000000e-08	-4.492477e-06	-8.907411e-09	-3.045596e+01	-5.819586e+02
1.000000e-07	-4.476644e-06	-8.931074e-09	-3.034862e+01	-5.809615e+02
1.100000e-07	-4.458635e-06	-8.896468e-09	-3.022653e+01	-5.798378e+02
1.200000e-07	-4.439124e-06	-8.847404e-09	-3.009426e+01	-5.786168e+02
1.300000e-07	-4.418592e-06	-8.724837e-09	-2.995507e+01	-5.773474e+02
1.400000e-07	-4.397144e-06	-8.779179e-09	-2.980966e+01	-5.760846e+02
1.500000e-07	-4.374297e-06	-8.893528e-09	-2.965478e+01	-5.748656e+02
1.600000e-07	-4.350032e-06	-8.692117e-09	-2.949028e+01	-5.736906e+02
1.700000e-07	-4.324491e-06	-8.698032e-09	-2.931712e+01	-5.725157e+02
1.800000e-07	-4.297136e-06	-8.812228e-09	-2.913168e+01	-5.712665e+02
1.900000e-07	-4.268061e-06	-8.640640e-09	-2.893457e+01	-5.698648e+02
2.000000e-07	-4.237809e-06	-8.671332e-09	-2.872948e+01	-5.682589e+02
2.100000e-07	-4.206201e-06	-8.735644e-09	-2.851520e+01	-5.664432e+02
2.200000e-07	-4.173021e-06	-8.525162e-09	-2.829026e+01	-5.644590e+02
2.300000e-07	-4.138263e-06	-8.516980e-09	-2.805463e+01	-5.623743e+02
2.400000e-07	-4.102022e-06	-8.587502e-09	-2.780894e+01	-5.602495e+02
2.500000e-07	-4.064404e-06	-8.507353e-09	-2.755392e+01	-5.581036e+02
2.600000e-07	-4.025256e-06	-8.490098e-09	-2.728851e+01	-5.558974e+02
2.700000e-07	-3.984657e-06	-8.404219e-09	-2.701328e+01	-5.535443e+02
2.800000e-07	-3.942669e-06	-8.353249e-09	-2.672863e+01	-5.509487e+02
2.900000e-07	-3.899125e-06	-8.395690e-09	-2.643343e+01	-5.480556e+02
3.000000e-07	-3.854057e-06	-8.311974e-09	-2.612790e+01	-5.448862e+02
3.100000e-07	-3.807482e-06	-8.204601e-09	-2.581215e+01	-5.415394e+02
3.200000e-07	-3.759515e-06	-8.180470e-09	-2.548697e+01	-5.381510e+02
3.300000e-07	-3.710268e-06	-8.161089e-09	-2.515311e+01	-5.348309e+02
3.400000e-07	-3.659401e-06	-8.120230e-09	-2.480827e+01	-5.316062e+02
3.500000e-07	-3.606778e-06	-8.066517e-09	-2.445152e+01	-5.284037e+02
3.600000e-07	-3.552698e-06	-7.983937e-09	-2.408489e+01	-5.250824e+02
3.700000e-07	-3.497438e-06	-7.909149e-09	-2.371026e+01	-5.214995e+02
3.800000e-07	-3.441174e-06	-7.904440e-09	-2.332883e+01	-5.175774e+02
3.900000e-07	-3.383729e-06	-7.855155e-09	-2.293940e+01	-5.133361e+02
4.000000e-07	-3.324800e-06	-7.728117e-09	-2.253989e+01	-5.088769e+02
4.100000e-07	-3.264538e-06	-7.659183e-09	-2.213136e+01	-5.043282e+02
4.200000e-07	-3.203274e-06	-7.616879e-09	-2.171603e+01	-4.997845e+02
4.300000e-07	-3.141013e-06	-7.568730e-09	-2.129395e+01	-4.952697e+02
4.400000e-07	-3.077657e-06	-7.493001e-09	-2.086444e+01	-4.907367e+02
4.500000e-07	-3.013231e-06	-7.381314e-09	-2.042767e+01	-4.860987e+02
4.600000e-07	-2.947669e-06	-7.312734e-09	-1.998321e+01	-4.812688e+02
4.700000e-07	-2.880797e-06	-7.267958e-09	-1.952986e+01	-4.761889e+02
4.800000e-07	-2.812787e-06	-7.196191e-09	-1.906879e+01	-4.708404e+02
4.900000e-07	-2.743915e-06	-7.084668e-09	-1.860189e+01	-4.652384e+02
5.000000e-07	-2.674146e-06	-6.978129e-09	-1.812890e+01	-4.594206e+02
5.100000e-07	-2.603459e-06	-6.906598e-09	-1.764969e+01	-4.534367e+02
5.200000e-07	-2.531950e-06	-6.836927e-09	-1.716491e+01	-4.473366e+02
5.300000e-07	-2.459684e-06	-6.739256e-09	-1.667499e+01	-4.411566e+02
5.400000e-07	-2.386494e-06	-6.613256e-09	-1.617882e+01	-4.349038e+02
5.500000e-07	-2.312134e-06	-6.511986e-09	-1.567471e+01	-4.285465e+02
5.600000e-07	-2.236684e-06	-6.442004e-09	-1.516320e+01	-4.220184e+02
5.700000e-07	-2.160371e-06	-6.348488e-09	-1.464585e+01	-4.152414e+02
5.800000e-07	-2.083245e-06	-6.219141e-09	-1.412299e+01	-4.081573e+02
5.900000e-07	-2.005262e-06	-6.088578e-09	-1.359432e+01	-4.007537e+02
6.000000e-07	-1.926535e-06	-5.980667e-09	-1.306061e+01	-3.930700e+02
6.100000e-07	-1.847065e-06	-5.882461e-09	-1.252186e+01	-3.851773e+02
6.200000e-07	-1.766688e-06	-5.760899e-09	-1.197695e+01	-3.771450e+02
6.300000e-07	-1.685531e-06	-5.615659e-09	-1.142676e+01	-3.690075e+02
6.400000e-07	-1.603830e-06	-5.481464e-09	-1.087289e+01	-3.607506e+02
6.500000e-07	-1.521648e-06	-5.372147e-09	-1.031575e+01	-3.523187e+02
6.600000e-07	-1.439008e-06	-5.254317e-09	-9.755502e+00	-3.436396e+02
6.700000e-07	-1.355875e-06	-5.103878e-09	-9.191917e+00	-3.346510e+02
6.800000e-07	-1.272239e-06	-4.942816e-09	-8.624922e+00	-3.253193e+02
6.900000e-07	-1.188188e-06	-4.798864e-09	-8.055112e+00	-3.156444e+02
7.000000e-07	-1.103857e-06	-4.667725e-09	-7.483403e+00	-3.056531e+02
7.100000e-07	-1.019328e-06	-4.514820e-09	-6.910352e+00	-2.953857e+02
7.200000e-07	-9.345340e-07	-4.336439e-09	-6.335509e+00	-2.848799e+02
7.300000e-07	-8.494030e-07	-4.164730e-09	-5.758379e+00	-2.741567e+02
7.400000e-07	-7.639316e-07	-4.010880e-09	-5.178940e+00	-2.632102e+02
7.500000e-07	-6.781888e-07	-3.852778e-09	-4.597661e+00	-2.520057e+02
7.600000e-07	-5.922248e-07	-3.670142e-09	-4.014884e+00	-2.404883e+02
7.700000e-07	-5.060926e-07	-3.474241e-09	-3.430966e+00	-2.286010e+02
7.800000e-07	-4.198457e-07	-3.287244e-09	-2.846270e+00	-2.163050e+02
7.900000e-07	-3.335050e-07	-3.106737e-09	-2.260938e+00	-2.035933e+02
8.000000e-07	-2.470707e-07	-2.910247e-09	-1.674972e+00	-1.904891e+02
8.100000e-07	-1.605313e-07	-2.692369e-09	-1.088294e+00	-1.770309e+02
8.200000e-07	-7.390830e-08	-2.472795e-09	-5.010483e-01	-1.632502e+02
8.300000e-07	1.277803e-08	-2.265982e-09	8.662644e-02	-1.491540e+02
8.400000e-07	9.944582e-08	-2.057900e-09	6.741754e-01	-1.347210e+02
8.500000e-07	1.860456e-07	-1.830084e-09	1.261263e+00	-1.199107e+02
8.600000e-07	2.725762e-07	-1.587801e-09	1.847883e+00	-1.046797e+02
8.700000e-07	3.590135e-07	-1.347504e-09	2.433869e+00	-8.899635e+01
8.800000e-07	4.453451e-07	-1.111342e-09	3.019139e+00	-7.284752e+01
8.900000e-07	5.315995e-07	-8.617209e-10	3.603886e+00	-5.623846e+01
9.000000e-07	6.176832e-07	-5.919132e-10	4.187475e+00	-3.918945e+01
9.100000e-07	7.034926e-07	-3.167298e-10	4.769204e+00	-2.173326e+01
9.200000e-07	7.890180e-07	-5.052813e-11	5.349009e+00	-3.913951e+00
9.300000e-07	8.742490e-07	2.146567e-10	5.926817e+00	1.421549e+01
9.400000e-07	9.592068e-07	4.968372e-10	6.502774e+00	3.259857e+01
9.500000e-07	1.043870e-06	7.925014e-10	7.076730e+00	5.118300e+01
9.600000e-07	1.128252e-06	1.081596e-09	7.648789e+00	6.992658e+01
9.700000e-07	1.212388e-06	1.359927e-09	8.219174e+00	8.879670e+01
9.800000e-07	1.296243e-06	1.643631e-09	8.787652e+00	1.077623e+02
9.900000e-07	1.379686e-06	1.940337e-09	9.353339e+00	1.267811e+02
1.000000e-06	1.462510e-06	2.239162e-09	9.914827e+00	1.457882e+02
1.010000e-06	1.544680e-06	2.524330e-09	1.047189e+01	1.646918e+02
1.020000e-06	1.626347e-06	2.798628e-09	1.102553e+01	1.833788e+02
1.030000e-06	1.707544e-06	3.077257e-09	1.157600e+01	2.017293e+02
1.040000e-06	1.788178e-06	3.360641e-09	1.212264e+01	2.196360e+02
1.050000e-06	1.868032e-06	3.631634e-09	1.266400e+01	2.370224e+02
1.060000e-06	1.947056e-06	3.882123e-09	1.319972e+01	2.538554e+02
1.070000e-06	2.025398e-06	4.122443e-09	1.373083e+01	2.701451e+02
1.080000e-06	2.103086e-06	4.365231e-09	1.425750e+01	2.859293e+02
1.090000e-06	2.180051e-06	4.607061e-09	1.477927e+01	3.012476e+02
1.100000e-06	2.256259e-06	4.833080e-09	1.529591e+01	3.161108e+02
1.110000e-06	2.331543e-06	5.043647e-09	1.580629e+01	3.304844e+02
1.120000e-06	2.405650e-06	5.251867e-09	1.630868e+01	3.442930e+02
1.130000e-06	2.478634e-06	5.460397e-09	1.680346e+01	3.574502e+02
1.140000e-06	2.550793e-06	5.656499e-09	1.729265e+01	3.699005e+02
1.150000e-06	2.622146e-06	5.831026e-09	1.777638e+01	3.816515e+02
1.160000e-06	2.692521e-06	5.991818e-09	1.825347e+01	3.927788e+02
1.170000e-06	2.761974e-06	6.152177e-09	1.872432e+01	4.033984e+02
1.180000e-06	2.830615e-06	6.313617e-09	1.918966e+01	4.136184e+02
1.190000e-06	2.898418e-06	6.467165e-09	1.964932e+01	4.234967e+02
1.200000e-06	2.965025e-06	6.607874e-09	2.010087e+01	4.330253e+02
1.210000e-06	3.030309e-06	6.743538e-09	2.054345e+01	4.421486e+02
1.220000e-06	3.094600e-06	6.880715e-09	2.097930e+01	4.508035e+02
1.230000e-06	3.157941e-06	7.012657e-09	2.140871e+01	4.589568e+02
1.240000e-06	3.220151e-06	7.129036e-09	2.183045e+01	4.666227e+02
1.250000e-06	3.281274e-06	7.230480e-09	2.224482e+01	4.738540e+02
1.260000e-06	3.341534e-06	7.330694e-09	2.265334e+01	4.807181e+02
1.270000e-06	3.400689e-06	7.435796e-09	2.305438e+01	4.872741e+02
1.280000e-06	3.458277e-06	7.535647e-09	2.344478e+01	4.935626e+02
1.290000e-06	3.514510e-06	7.625415e-09	2.382600e+01	4.996072e+02
1.300000e-06	3.569624e-06	7.712698e-09	2.419964e+01	5.054190e+02
1.310000e-06	3.623515e-06	7.803078e-09	2.456498e+01	5.109968e+02
1.320000e-06	3.676043e-06	7.890872e-09	2.492109e+01	5.163246e+02
1.330000e-06	3.726878e-06	7.966522e-09	2.526572e+01	5.213713e+02
1.340000e-06	3.776011e-06	8.029738e-09	2.559880e+01	5.261031e+02
1.350000e-06	3.823759e-06	8.090401e-09	2.592250e+01	5.305046e+02
1.360000e-06	3.870251e-06	8.155217e-09	2.623768e+01	5.345981e+02
1.370000e-06	3.915517e-06	8.218865e-09	2.654456e+01	5.384466e+02
1.380000e-06	3.959475e-06	8.274344e-09	2.684256e+01	5.421345e+02
1.390000e-06	4.001801e-06	8.325545e-09	2.712951e+01	5.457327e+02
1.400000e-06	4.042572e-06	8.380984e-09	2.740591e+01	5.492671e+02
1.410000e-06	4.082055e-06	8.437451e-09	2.767358e+01	5.527081e+02
1.420000e-06	4.120205e-06	8.485553e-09	2.793221e+01	5.559868e+02
1.430000e-06	4.157066e-06	8.524062e-09	2.818210e+01	5.590289e+02
1.440000e-06	4.192524e-06	8.561067e-09	2.842248e+01	5.617895e+02
1.450000e-06	4.226279e-06	8.603155e-09	2.865132e+01	5.642697e+02
1.460000e-06	4.258501e-06	8.642845e-09	2.886976e+01	5.665139e+02
1.470000e-06	4.289379e-06	8.673639e-09	2.907909e+01	5.685902e+02
1.480000e-06	4.318843e-06	8.700453e-09	2.927884e+01	5.705677e+02
1.490000e-06	4.346905e-06	8.728891e-09	2.946908e+01	5.724974e+02
1.500000e-06	4.373200e-06	8.760067e-09	2.964734e+01	5.744009e+02
1.510000e-06	4.397727e-06	8.788426e-09	2.981362e+01	5.762668e+02
1.520000e-06	4.420820e-06	8.810874e-09	2.997017e+01	5.780522e+02
1.530000e-06	4.442457e-06	8.831605e-09	3.011686e+01	5.796957e+02
1.540000e-06	4.462751e-06	8.854039e-09	3.025444e+01	5.811382e+02
1.550000e-06	4.481544e-06	8.876396e-09	3.038184e+01	5.823488e+02
1.560000e-06	4.498594e-06	8.893359e-09	3.049743e+01	5.833440e+02
1.570000e-06	4.513975e-06	8.903249e-09	3.060170e+01	5.841857e+02
1.580000e-06	4.527759e-06	8.912425e-09	3.069514e+01	5.849560e+02
1.590000e-06	4.539832e-06	8.925683e-09	3.077699e+01	5.857179e+02
1.600000e-06	4.549950e-06	8.938603e-09	3.084558e+01	5.864827e+02
1.610000e-06	4.558261e-06	8.947869e-09	3.090193e+01	5.872031e+02
1.620000e-06	4.565062e-06	8.955517e-09	3.094804e+01	5.877976e+02
1.630000e-06	4.570429e-06	8.963683e-09	3.098442e+01	5.881947e+02
1.640000e-06	4.574286e-06	8.971389e-09	3.101057e+01	5.883707e+02
1.650000e-06	4.576368e-06	8.975161e-09	3.102468e+01	5.883606e+02
1.660000e-06	4.576769e-06	8.970218e-09	3.102740e+01	5.882378e+02
1.670000e-06	4.575760e-06	8.959168e-09	3.102056e+01	5.880752e+02
1.680000e-06	4.573378e-06	8.953319e-09	3.100441e+01	5.879117e+02
1.690000e-06	4.569593e-06	8.951121e-09	3.097875e+01	5.877401e+02
1.700000e-06	4.564176e-06	8.947273e-09	3.094203e+01	5.875215e+02
1.710000e-06	4.557147e-06	8.942483e-09	3.089438e+01	5.872107e+02
1.720000e-06	4.548735e-06	8.942016e-09	3.083735e+01	5.867765e+02
1.730000e-06	4.538977e-06	8.957456e-09	3.077120e+01	5.862068e+02
1.740000e-06	4.527841e-06	8.957529e-09	3.069570e+01	5.855008e+02
1.750000e-06	4.514894e-06	8.872661e-09	3.060793e+01	5.846587e+02
1.760000e-06	4.499518e-06	8.834408e-09	3.050369e+01	5.836801e+02
1.770000e-06	4.481759e-06	8.826719e-09	3.038330e+01	5.825726e+02
1.780000e-06	4.462412e-06	8.902256e-09	3.025214e+01	5.813622e+02
1.790000e-06	4.442440e-06	8.924206e-09	3.011674e+01	5.800956e+02
1.800000e-06	4.421933e-06	8.712863e-09	2.997772e+01	5.788281e+02
1.810000e-06	4.399589e-06	8.786012e-09	2.982624e+01	5.776012e+02
1.820000e-06	4.375065e-06	8.892351e-09	2.965999e+01	5.764210e+02
1.830000e-06	4.349449e-06	8.682756e-09	2.948632e+01	5.752494e+02
1.840000e-06	4.322466e-06	8.750425e-09	2.930340e+01	5.740152e+02
1.850000e-06	4.293284e-06	8.816556e-09	2.910557e+01	5.726387e+02
1.860000e-06	4.262440e-06	8.570537e-09	2.889646e+01	5.710628e+02
1.870000e-06	4.230325e-06	8.672507e-09	2.867874e+01	5.692748e+02
1.880000e-06	4.196878e-06	8.777863e-09	2.845200e+01	5.673101e+02
1.890000e-06	4.162197e-06	8.579618e-09	2.821688e+01	5.652348e+02
1.900000e-06	4.125803e-06	8.588823e-09	2.797015e+01	5.631127e+02
1.910000e-06	4.087656e-06	8.540865e-09	2.771155e+01	5.609701e+02
1.920000e-06	4.048181e-06	8.497455e-09	2.744393e+01	5.587764e+02
1.930000e-06	4.007218e-06	8.587830e-09	2.716623e+01	5.564497e+02
1.940000e-06	3.964964e-06	8.402825e-09	2.687977e+01	5.538929e+02
1.950000e-06	3.921574e-06	8.345889e-09	2.658562e+01	5.510423e+02
1.960000e-06	3.876747e-06	8.419413e-09	2.628172e+01	5.479072e+02
1.970000e-06	3.830490e-06	8.319560e-09	2.596813e+01	5.445769e+02
1.980000e-06	3.782758e-06	8.264944e-09	2.564454e+01	5.411858e+02
1.990000e-06	3.733661e-06	8.175317e-09	2.531170e+01	5.378512e+02
2.000000e-06	3.683252e-06	8.129955e-09	2.496996e+01	5.346144e+02
2.010000e-06	3.631377e-06	8.123134e-09	2.461828e+01	5.314158e+02
2.020000e-06	3.578037e-06	8.073067e-09	2.425668e+01	5.281203e+02
2.030000e-06	3.523161e-06	8.027525e-09	2.388465e+01	5.245809e+02
2.040000e-06	3.466921e-06	7.894128e-09	2.350339e+01	5.207077e+02
2.050000e-06	3.409523e-06	7.871047e-09	2.311426e+01	5.165066e+02
2.060000e-06	3.351021e-06	7.857967e-09	2.271766e+01	5.120699e+02
2.070000e-06	3.291532e-06	7.737559e-09	2.231436e+01	5.075261e+02
2.080000e-06	3.230775e-06	7.665559e-09	2.190247e+01	5.029778e+02
2.090000e-06	3.168562e-06	7.567520e-09	2.148071e+01	4.984596e+02
2.100000e-06	3.105150e-06	7.543890e-09	2.105082e+01	4.939333e+02
2.110000e-06	3.040714e-06	7.503853e-09	2.061398e+01	4.893154e+02
2.120000e-06	2.975291e-06	7.377894e-09	2.017046e+01	4.845166e+02
2.130000e-06	2.908879e-06	7.299916e-09	1.972023e+01	4.794738e+02
2.140000e-06	2.841561e-06	7.213678e-09	1.926387e+01	4.741628e+02
2.150000e-06	2.773176e-06	7.165783e-09	1.880026e+01	4.685943e+02
2.160000e-06	2.703396e-06	7.074232e-09	1.832719e+01	4.628038e+02
2.170000e-06	2.632494e-06	6.944809e-09	1.784653e+01	4.568398e+02
2.180000e-06	2.560814e-06	6.857515e-09	1.736059e+01	4.507529e+02
2.190000e-06	2.488350e-06	6.776268e-09	1.686933e+01	4.445823e+02
2.200000e-06	2.415052e-06	6.712696e-09	1.637242e+01	4.383403e+02
2.210000e-06	2.340908e-06	6.588238e-09	1.586977e+01	4.320006e+02
2.220000e-06	2.265848e-06	6.466300e-09	1.536092e+01	4.255011e+02
2.230000e-06	2.189852e-06	6.379425e-09	1.484572e+01	4.187633e+02
2.240000e-06	2.112889e-06	6.287960e-09	1.432396e+01	4.117244e+02
2.250000e-06	2.034843e-06	6.184450e-09	1.379486e+01	4.043645e+02
2.260000e-06	1.955923e-06	6.040805e-09	1.325984e+01	3.967162e+02
2.270000e-06	1.876386e-06	5.913132e-09	1.272063e+01	3.888480e+02
2.280000e-06	1.796383e-06	5.804530e-09	1.217826e+01	3.808317e+02
2.290000e-06	1.715886e-06	5.698438e-09	1.163255e+01	3.727083e+02
2.300000e-06	1.634779e-06	5.564370e-09	1.108270e+01	3.644704e+02
2.310000e-06	1.553029e-06	5.410062e-09	1.052849e+01	3.560672e+02
2.320000e-06	1.470699e-06	5.285266e-09	9.970348e+00	3.474270e+02
2.330000e-06	1.387966e-06	5.169436e-09	9.409474e+00	3.384848e+02
2.340000e-06	1.304942e-06	5.035706e-09	8.846624e+00	3.292022e+02
2.350000e-06	1.221697e-06	4.867980e-09	8.282280e+00	3.195745e+02
2.360000e-06	1.138150e-06	4.701391e-09	7.715885e+00	3.096254e+02
2.370000e-06	1.054085e-06	4.560606e-09	7.145986e+00	2.993942e+02
2.380000e-06	9.695226e-07	4.412661e-09	6.572708e+00	2.889199e+02
2.390000e-06	8.845412e-07	4.243627e-09	5.996592e+00	2.782268e+02
2.400000e-06	7.990174e-07	4.063162e-09	5.416798e+00	2.673130e+02
2.410000e-06	7.129298e-07	3.894762e-09	4.833183e+00	2.561478e+02
2.420000e-06	6.264922e-07	3.736785e-09	4.247194e+00	2.446781e+02
2.430000e-06	5.399206e-07	3.561896e-09	3.660297e+00	2.328459e+02
2.440000e-06	4.532235e-07	3.361303e-09	3.072549e+00	2.206089e+02
2.450000e-06	3.663727e-07	3.154784e-09	2.483759e+00	2.079550e+02
2.460000e-06	2.794020e-07	2.961803e-09	1.894157e+00	1.949040e+02
2.470000e-06	1.923619e-07	2.771455e-09	1.304084e+00	1.814933e+02
2.480000e-06	1.053116e-07	2.563035e-09	7.139418e-01	1.677569e+02
2.490000e-06	1.824646e-08	2.336334e-09	1.236987e-01	1.537058e+02
2.500000e-06	-6.880558e-08	2.113980e-09	-4.664554e-01	1.393225e+02
2.510000e-06	-1.558265e-07	1.903670e-09	-1.056399e+00	1.245681e+02
2.520000e-06	-2.428215e-07	1.679723e-09	-1.646166e+00	1.093989e+02
2.530000e-06	-3.297517e-07	1.430146e-09	-2.235493e+00	9.378070e+01
2.540000e-06	-4.165687e-07	1.174233e-09	-2.824054e+00	7.769775e+01
2.550000e-06	-5.032589e-07	9.274138e-10	-3.411755e+00	6.115283e+01
2.560000e-06	-5.897455e-07	6.827983e-10	-3.998076e+00	4.416425e+01
2.570000e-06	-6.759666e-07	4.188200e-10	-4.582597e+00	2.676311e+01
2.580000e-06	-7.618785e-07	1.356960e-10	-5.165021e+00	8.991909e+00
2.590000e-06	-8.473784e-07	-1.451594e-10	-5.744653e+00	-9.097368e+00
2.600000e-06	-9.323673e-07	-4.154967e-10	-6.320820e+00	-2.744828e+01
2.610000e-06	-1.016781e-06	-6.882272e-10	-6.893085e+00	-4.600748e+01
2.620000e-06	-1.100746e-06	-9.776382e-10	-7.462311e+00	-6.473117e+01
2.630000e-06	-1.184361e-06	-1.274071e-09	-8.029165e+00	-8.358571e+01
2.640000e-06	-1.267664e-06	-1.561396e-09	-8.593906e+00	-1.025406e+02
2.650000e-06	-1.350684e-06	-1.843553e-09	-9.156728e+00	-1.215558e+02
2.660000e-06	-1.433311e-06	-2.132429e-09	-9.716883e+00	-1.405702e+02
2.670000e-06	-1.515375e-06	-2.429669e-09	-1.027322e+01	-1.594958e+02
2.680000e-06	-1.596825e-06	-2.721374e-09	-1.082539e+01	-1.782218e+02
2.690000e-06	-1.677768e-06	-2.996465e-09	-1.137414e+01	-1.966282e+02
2.700000e-06	-1.758195e-06	-3.261078e-09	-1.191938e+01	-2.146046e+02
2.710000e-06	-1.838021e-06	-3.526511e-09	-1.246054e+01	-2.320691e+02
2.720000e-06	-1.917363e-06	-3.790982e-09	-1.299843e+01	-2.489821e+02
2.730000e-06	-1.996229e-06	-4.043351e-09	-1.353309e+01	-2.653481e+02
2.740000e-06	-2.074187e-06	-4.280959e-09	-1.406159e+01	-2.812026e+02
2.750000e-06	-2.150890e-06	-4.514590e-09	-1.458158e+01	-2.965865e+02
2.760000e-06	-2.226534e-06	-4.749601e-09	-1.509440e+01	-3.115164e+02
2.770000e-06	-2.301376e-06	-4.976587e-09	-1.560177e+01	-3.259645e+02
2.780000e-06	-2.375394e-06	-5.185839e-09	-1.610356e+01	-3.398599e+02
2.790000e-06	-2.448575e-06	-5.380026e-09	-1.659968e+01	-3.531155e+02
2.800000e-06	-2.520931e-06	-5.568723e-09	-1.709021e+01	-3.656687e+02
2.810000e-06	-2.592489e-06	-5.754209e-09	-1.757532e+01	-3.775170e+02
2.820000e-06	-2.663288e-06	-5.929705e-09	-1.805530e+01	-3.887275e+02
2.830000e-06	-2.732991e-06	-6.091179e-09	-1.852783e+01	-3.994130e+02
2.840000e-06	-2.801376e-06	-6.246399e-09	-1.899144e+01	-4.096857e+02
2.850000e-06	-2.868769e-06	-6.402530e-09	-1.944832e+01	-4.196125e+02
2.860000e-06	-2.935321e-06	-6.554903e-09	-1.989949e+01	-4.291943e+02
2.870000e-06	-3.000891e-06	-6.692671e-09	-2.034402e+01	-4.383805e+02
2.880000e-06	-3.065450e-06	-6.816739e-09	-2.078168e+01	-4.471060e+02
2.890000e-06	-3.129064e-06	-6.938868e-09	-2.121294e+01	-4.553318e+02
2.900000e-06	-3.191651e-06	-7.061481e-09	-2.163724e+01	-4.630655e+02
2.910000e-06	-3.252794e-06	-7.177865e-09	-2.205175e+01	-4.703555e+02
2.920000e-06	-3.312549e-06	-7.283305e-09	-2.245684e+01	-4.772687e+02
2.930000e-06	-3.371361e-06	-7.382308e-09	-2.285555e+01	-4.838665e+02
2.940000e-06	-3.429105e-06	-7.479879e-09	-2.324702e+01	-4.901921e+02
