# Temperatura_=_20.0
# Concentracion g/m^3_=_10000.0
# C_Vs_to_Am_M_A/Vsm_=_65563218390.804596
# pendiente_HvsI_1/m_=_3716.3
# ordenada_HvsI_A/m_=_1297.0
# frecuencia_Hz_=_300950.3233102761

Tiempo_(s)	Campo_(V.s)	Magnetizacion_(V.s)	Campo_(kA/m)	Magnetizacion_(A/m)
0.000000e+00	-4.534535e-06	-8.861552e-09	-3.088536e+01	-5.805310e+02
1.000000e-08	-4.533669e-06	-8.863780e-09	-3.087946e+01	-5.804618e+02
2.000000e-08	-4.531097e-06	-8.865137e-09	-3.086194e+01	-5.804146e+02
3.000000e-08	-4.526920e-06	-8.865740e-09	-3.083349e+01	-5.803212e+02
4.000000e-08	-4.521482e-06	-8.862824e-09	-3.079645e+01	-5.800879e+02
5.000000e-08	-4.514685e-06	-8.851251e-09	-3.075016e+01	-5.796636e+02
6.000000e-08	-4.506508e-06	-8.836615e-09	-3.069446e+01	-5.790743e+02
7.000000e-08	-4.496718e-06	-8.818556e-09	-3.062778e+01	-5.783995e+02
8.000000e-08	-4.485137e-06	-8.791412e-09	-3.054890e+01	-5.777079e+02
9.000000e-08	-4.471782e-06	-8.826499e-09	-3.045793e+01	-5.770003e+02
1.000000e-07	-4.456183e-06	-8.868469e-09	-3.035169e+01	-5.762041e+02
1.100000e-07	-4.438343e-06	-8.823978e-09	-3.023018e+01	-5.752262e+02
1.200000e-07	-4.418956e-06	-8.776175e-09	-3.009814e+01	-5.740289e+02
1.300000e-07	-4.398556e-06	-8.621277e-09	-2.995919e+01	-5.726732e+02
1.400000e-07	-4.377241e-06	-8.675900e-09	-2.981401e+01	-5.712946e+02
1.500000e-07	-4.354569e-06	-8.870776e-09	-2.965958e+01	-5.700232e+02
1.600000e-07	-4.330540e-06	-8.602787e-09	-2.949592e+01	-5.688993e+02
1.700000e-07	-4.305244e-06	-8.595090e-09	-2.932362e+01	-5.678408e+02
1.800000e-07	-4.278029e-06	-8.785926e-09	-2.913826e+01	-5.666864e+02
1.900000e-07	-4.249080e-06	-8.548113e-09	-2.894108e+01	-5.652874e+02
2.000000e-07	-4.219064e-06	-8.575499e-09	-2.873664e+01	-5.635917e+02
2.100000e-07	-4.187704e-06	-8.715945e-09	-2.852305e+01	-5.616673e+02
2.200000e-07	-4.154687e-06	-8.425578e-09	-2.829816e+01	-5.596533e+02
2.300000e-07	-4.119996e-06	-8.406540e-09	-2.806187e+01	-5.576705e+02
2.400000e-07	-4.083862e-06	-8.558831e-09	-2.781576e+01	-5.557484e+02
2.500000e-07	-4.046431e-06	-8.435323e-09	-2.756081e+01	-5.538090e+02
2.600000e-07	-4.007478e-06	-8.417420e-09	-2.729550e+01	-5.517136e+02
2.700000e-07	-3.967066e-06	-8.333471e-09	-2.702024e+01	-5.493394e+02
2.800000e-07	-3.925315e-06	-8.268562e-09	-2.673587e+01	-5.466423e+02
2.900000e-07	-3.881963e-06	-8.337054e-09	-2.644059e+01	-5.436719e+02
3.000000e-07	-3.837036e-06	-8.244849e-09	-2.613459e+01	-5.405399e+02
3.100000e-07	-3.790704e-06	-8.126821e-09	-2.581902e+01	-5.373634e+02
3.200000e-07	-3.743043e-06	-8.113611e-09	-2.549440e+01	-5.342141e+02
3.300000e-07	-3.694126e-06	-8.102432e-09	-2.516121e+01	-5.310952e+02
3.400000e-07	-3.643610e-06	-8.072771e-09	-2.481714e+01	-5.279497e+02
3.500000e-07	-3.591378e-06	-8.005306e-09	-2.446138e+01	-5.246900e+02
3.600000e-07	-3.537692e-06	-7.905841e-09	-2.409572e+01	-5.212343e+02
3.700000e-07	-3.482777e-06	-7.828527e-09	-2.372169e+01	-5.175362e+02
3.800000e-07	-3.426807e-06	-7.837674e-09	-2.334047e+01	-5.135994e+02
3.900000e-07	-3.369724e-06	-7.812652e-09	-2.295166e+01	-5.094722e+02
4.000000e-07	-3.311143e-06	-7.667102e-09	-2.255266e+01	-5.052246e+02
4.100000e-07	-3.251109e-06	-7.600558e-09	-2.214376e+01	-5.009171e+02
4.200000e-07	-3.190094e-06	-7.575040e-09	-2.172818e+01	-4.965728e+02
4.300000e-07	-3.128047e-06	-7.527219e-09	-2.130557e+01	-4.921686e+02
4.400000e-07	-3.064856e-06	-7.441569e-09	-2.087516e+01	-4.876486e+02
4.500000e-07	-3.000688e-06	-7.309885e-09	-2.043811e+01	-4.829531e+02
4.600000e-07	-2.935510e-06	-7.248751e-09	-1.999417e+01	-4.780465e+02
4.700000e-07	-2.869040e-06	-7.220159e-09	-1.954143e+01	-4.729285e+02
4.800000e-07	-2.801312e-06	-7.156155e-09	-1.908013e+01	-4.676241e+02
4.900000e-07	-2.732701e-06	-7.039000e-09	-1.861281e+01	-4.621616e+02
5.000000e-07	-2.663274e-06	-6.926109e-09	-1.813994e+01	-4.565550e+02
5.100000e-07	-2.592959e-06	-6.863540e-09	-1.766101e+01	-4.508018e+02
5.200000e-07	-2.521815e-06	-6.800420e-09	-1.717644e+01	-4.448944e+02
5.300000e-07	-2.449819e-06	-6.696762e-09	-1.668606e+01	-4.388336e+02
5.400000e-07	-2.376957e-06	-6.563967e-09	-1.618979e+01	-4.326284e+02
5.500000e-07	-2.303107e-06	-6.465602e-09	-1.568678e+01	-4.262833e+02
5.600000e-07	-2.228130e-06	-6.410272e-09	-1.517610e+01	-4.197816e+02
5.700000e-07	-2.152164e-06	-6.325492e-09	-1.465869e+01	-4.130807e+02
5.800000e-07	-2.075374e-06	-6.189674e-09	-1.413566e+01	-4.061280e+02
5.900000e-07	-1.997745e-06	-6.053656e-09	-1.360692e+01	-3.988891e+02
6.000000e-07	-1.919358e-06	-5.950921e-09	-1.307302e+01	-3.913710e+02
6.100000e-07	-1.840362e-06	-5.862791e-09	-1.253497e+01	-3.836225e+02
6.200000e-07	-1.760624e-06	-5.736389e-09	-1.199186e+01	-3.757099e+02
6.300000e-07	-1.679927e-06	-5.582309e-09	-1.144222e+01	-3.676814e+02
6.400000e-07	-1.598535e-06	-5.449190e-09	-1.088785e+01	-3.595404e+02
6.500000e-07	-1.516687e-06	-5.352352e-09	-1.033037e+01	-3.512436e+02
6.600000e-07	-1.434392e-06	-5.245328e-09	-9.769845e+00	-3.427214e+02
6.700000e-07	-1.351678e-06	-5.093596e-09	-9.206472e+00	-3.339085e+02
6.800000e-07	-1.268429e-06	-4.932680e-09	-8.639450e+00	-3.247664e+02
6.900000e-07	-1.184677e-06	-4.792756e-09	-8.069001e+00	-3.152903e+02
7.000000e-07	-1.100645e-06	-4.668161e-09	-7.496651e+00	-3.055016e+02
7.100000e-07	-1.016426e-06	-4.513126e-09	-6.923023e+00	-2.954353e+02
7.200000e-07	-9.319583e-07	-4.328595e-09	-6.347699e+00	-2.851283e+02
7.300000e-07	-8.472535e-07	-4.158607e-09	-5.770763e+00	-2.746081e+02
7.400000e-07	-7.622869e-07	-4.014980e-09	-5.192043e+00	-2.638824e+02
7.500000e-07	-6.770586e-07	-3.868038e-09	-4.611541e+00	-2.529281e+02
7.600000e-07	-5.915920e-07	-3.688755e-09	-4.029417e+00	-2.416891e+02
7.700000e-07	-5.058503e-07	-3.492842e-09	-3.445418e+00	-2.300889e+02
7.800000e-07	-4.199089e-07	-3.311260e-09	-2.860059e+00	-2.180594e+02
7.900000e-07	-3.338943e-07	-3.140486e-09	-2.274201e+00	-2.055737e+02
8.000000e-07	-2.477938e-07	-2.945673e-09	-1.687758e+00	-1.926645e+02
8.100000e-07	-1.615826e-07	-2.724694e-09	-1.100562e+00	-1.794117e+02
8.200000e-07	-7.528162e-08	-2.505971e-09	-5.127537e-01	-1.659030e+02
8.300000e-07	1.103944e-08	-2.310422e-09	7.519117e-02	-1.521844e+02
8.400000e-07	9.735262e-08	-2.118182e-09	6.630824e-01	-1.382295e+02
8.500000e-07	1.836900e-07	-1.896806e-09	1.251138e+00	-1.239449e+02
8.600000e-07	2.699468e-07	-1.654976e-09	1.838646e+00	-1.092112e+02
8.700000e-07	3.560529e-07	-1.419219e-09	2.425126e+00	-9.393728e+01
8.800000e-07	4.420222e-07	-1.193090e-09	3.010675e+00	-7.810043e+01
8.900000e-07	5.278270e-07	-9.496626e-10	3.595104e+00	-6.175343e+01
9.000000e-07	6.134527e-07	-6.801172e-10	4.178313e+00	-4.499756e+01
9.100000e-07	6.988031e-07	-4.078775e-10	4.759647e+00	-2.793867e+01
9.200000e-07	7.838660e-07	-1.512775e-10	5.339022e+00	-1.064864e+01
9.300000e-07	8.687052e-07	1.015808e-10	5.916873e+00	6.851511e+00
9.400000e-07	9.533382e-07	3.745479e-10	6.493321e+00	2.458312e+01
9.500000e-07	1.037789e-06	6.640573e-10	7.068528e+00	4.258320e+01
9.600000e-07	1.121991e-06	9.468976e-10	7.642042e+00	6.087230e+01
9.700000e-07	1.205911e-06	1.215928e-09	8.213627e+00	7.942897e+01
9.800000e-07	1.289447e-06	1.493560e-09	8.782605e+00	9.817924e+01
9.900000e-07	1.372471e-06	1.790048e-09	9.348093e+00	1.170045e+02
1.000000e-06	1.454905e-06	2.087201e-09	9.909566e+00	1.357651e+02
1.010000e-06	1.536743e-06	2.365393e-09	1.046697e+01	1.543318e+02
1.020000e-06	1.618065e-06	2.631025e-09	1.102087e+01	1.726111e+02
1.030000e-06	1.698871e-06	2.905052e-09	1.157125e+01	1.905550e+02
1.040000e-06	1.779098e-06	3.185676e-09	1.211768e+01	2.081494e+02
1.050000e-06	1.858569e-06	3.453223e-09	1.265898e+01	2.253900e+02
1.060000e-06	1.937267e-06	3.701241e-09	1.319500e+01	2.422592e+02
1.070000e-06	2.015307e-06	3.943714e-09	1.372654e+01	2.587179e+02
1.080000e-06	2.092662e-06	4.191392e-09	1.425341e+01	2.747150e+02
1.090000e-06	2.169316e-06	4.435610e-09	1.477551e+01	2.902050e+02
1.100000e-06	2.245161e-06	4.661670e-09	1.529211e+01	3.051589e+02
1.110000e-06	2.319954e-06	4.871001e-09	1.580154e+01	3.195600e+02
1.120000e-06	2.393560e-06	5.079638e-09	1.630288e+01	3.333906e+02
1.130000e-06	2.466192e-06	5.289906e-09	1.679758e+01	3.466233e+02
1.140000e-06	2.538070e-06	5.486802e-09	1.728716e+01	3.592307e+02
1.150000e-06	2.609114e-06	5.661228e-09	1.777105e+01	3.712100e+02
1.160000e-06	2.679196e-06	5.825371e-09	1.824838e+01	3.826049e+02
1.170000e-06	2.748324e-06	5.994688e-09	1.871922e+01	3.935031e+02
1.180000e-06	2.816678e-06	6.164584e-09	1.918479e+01	4.040024e+02
1.190000e-06	2.884216e-06	6.321187e-09	1.964480e+01	4.141611e+02
1.200000e-06	2.950462e-06	6.462496e-09	2.009602e+01	4.239639e+02
1.210000e-06	3.015373e-06	6.601529e-09	2.053813e+01	4.333298e+02
1.220000e-06	3.079335e-06	6.743111e-09	2.097378e+01	4.421627e+02
1.230000e-06	3.142367e-06	6.875060e-09	2.140310e+01	4.504166e+02
1.240000e-06	3.204329e-06	6.986671e-09	2.182514e+01	4.581350e+02
1.250000e-06	3.265280e-06	7.086822e-09	2.224028e+01	4.654385e+02
1.260000e-06	3.325366e-06	7.192173e-09	2.264954e+01	4.724653e+02
1.270000e-06	3.384219e-06	7.304979e-09	2.305039e+01	4.793026e+02
1.280000e-06	3.441492e-06	7.410440e-09	2.344049e+01	4.859488e+02
1.290000e-06	3.497499e-06	7.502769e-09	2.382196e+01	4.923290e+02
1.300000e-06	3.552387e-06	7.591430e-09	2.419581e+01	4.983512e+02
1.310000e-06	3.606046e-06	7.682035e-09	2.456129e+01	5.039660e+02
1.320000e-06	3.658337e-06	7.768004e-09	2.491745e+01	5.091940e+02
1.330000e-06	3.708931e-06	7.841212e-09	2.526205e+01	5.141097e+02
1.340000e-06	3.757823e-06	7.905398e-09	2.559506e+01	5.187973e+02
1.350000e-06	3.805371e-06	7.970775e-09	2.591892e+01	5.233109e+02
1.360000e-06	3.851652e-06	8.040305e-09	2.623414e+01	5.276610e+02
1.370000e-06	3.896677e-06	8.105680e-09	2.654082e+01	5.318310e+02
1.380000e-06	3.940519e-06	8.162481e-09	2.683943e+01	5.358030e+02
1.390000e-06	3.982800e-06	8.215214e-09	2.712741e+01	5.395745e+02
1.400000e-06	4.023446e-06	8.271911e-09	2.740426e+01	5.431561e+02
1.410000e-06	4.062787e-06	8.329336e-09	2.767221e+01	5.465576e+02
1.420000e-06	4.100779e-06	8.377134e-09	2.793098e+01	5.497780e+02
1.430000e-06	4.137463e-06	8.417322e-09	2.818084e+01	5.528064e+02
1.440000e-06	4.172782e-06	8.457359e-09	2.842141e+01	5.556328e+02
1.450000e-06	4.206396e-06	8.500507e-09	2.865036e+01	5.582573e+02
1.460000e-06	4.238482e-06	8.540400e-09	2.886890e+01	5.606914e+02
1.470000e-06	4.269211e-06	8.571628e-09	2.907820e+01	5.629518e+02
1.480000e-06	4.298477e-06	8.598965e-09	2.927753e+01	5.650563e+02
1.490000e-06	4.326418e-06	8.630615e-09	2.946784e+01	5.670244e+02
1.500000e-06	4.352633e-06	8.666094e-09	2.964640e+01	5.688804e+02
1.510000e-06	4.377045e-06	8.695809e-09	2.981267e+01	5.706510e+02
1.520000e-06	4.399996e-06	8.717800e-09	2.996900e+01	5.723520e+02
1.530000e-06	4.421482e-06	8.738346e-09	3.011533e+01	5.739722e+02
1.540000e-06	4.441670e-06	8.760863e-09	3.025284e+01	5.754697e+02
1.550000e-06	4.460358e-06	8.781961e-09	3.038013e+01	5.767902e+02
1.560000e-06	4.477358e-06	8.796859e-09	3.049592e+01	5.779017e+02
1.570000e-06	4.492748e-06	8.806551e-09	3.060074e+01	5.788231e+02
1.580000e-06	4.506465e-06	8.817687e-09	3.069417e+01	5.796232e+02
1.590000e-06	4.518475e-06	8.833324e-09	3.077597e+01	5.803842e+02
1.600000e-06	4.528558e-06	8.848217e-09	3.084465e+01	5.811497e+02
1.610000e-06	4.536858e-06	8.857402e-09	3.090118e+01	5.818917e+02
1.620000e-06	4.543660e-06	8.863826e-09	3.094751e+01	5.825234e+02
1.630000e-06	4.548968e-06	8.871939e-09	3.098366e+01	5.829534e+02
1.640000e-06	4.552856e-06	8.878753e-09	3.101015e+01	5.831471e+02
1.650000e-06	4.555005e-06	8.881469e-09	3.102478e+01	5.831528e+02
1.660000e-06	4.555390e-06	8.877438e-09	3.102740e+01	5.830731e+02
1.670000e-06	4.554345e-06	8.869079e-09	3.102029e+01	5.829989e+02
1.680000e-06	4.551901e-06	8.865464e-09	3.100364e+01	5.829510e+02
1.690000e-06	4.548156e-06	8.864810e-09	3.097813e+01	5.828697e+02
1.700000e-06	4.542836e-06	8.860538e-09	3.094189e+01	5.826607e+02
1.710000e-06	4.535834e-06	8.854355e-09	3.089420e+01	5.822635e+02
1.720000e-06	4.527466e-06	8.851429e-09	3.083721e+01	5.816932e+02
1.730000e-06	4.517797e-06	8.863703e-09	3.077135e+01	5.810249e+02
1.740000e-06	4.506749e-06	8.879636e-09	3.069610e+01	5.803333e+02
1.750000e-06	4.493954e-06	8.771127e-09	3.060896e+01	5.796307e+02
1.760000e-06	4.478773e-06	8.733177e-09	3.050555e+01	5.788528e+02
1.770000e-06	4.461084e-06	8.735809e-09	3.038507e+01	5.779048e+02
1.780000e-06	4.441779e-06	8.821157e-09	3.025358e+01	5.767370e+02
1.790000e-06	4.421931e-06	8.886503e-09	3.011840e+01	5.753963e+02
1.800000e-06	4.401636e-06	8.602424e-09	2.998017e+01	5.740114e+02
1.810000e-06	4.379498e-06	8.661143e-09	2.982938e+01	5.727191e+02
1.820000e-06	4.355062e-06	8.859071e-09	2.966294e+01	5.715760e+02
1.830000e-06	4.329553e-06	8.571637e-09	2.948920e+01	5.705167e+02
1.840000e-06	4.302776e-06	8.636427e-09	2.930681e+01	5.693861e+02
1.850000e-06	4.273769e-06	8.801684e-09	2.910924e+01	5.680276e+02
1.860000e-06	4.243038e-06	8.448598e-09	2.889993e+01	5.663723e+02
1.870000e-06	4.211049e-06	8.567180e-09	2.868205e+01	5.644724e+02
1.880000e-06	4.177699e-06	8.776446e-09	2.845490e+01	5.624620e+02
1.890000e-06	4.143140e-06	8.472524e-09	2.821951e+01	5.604700e+02
1.900000e-06	4.106952e-06	8.502138e-09	2.797303e+01	5.585413e+02
1.910000e-06	4.068999e-06	8.510662e-09	2.771453e+01	5.566119e+02
1.920000e-06	4.029645e-06	8.416036e-09	2.744648e+01	5.545470e+02
1.930000e-06	3.988794e-06	8.562522e-09	2.716823e+01	5.522172e+02
1.940000e-06	3.946753e-06	8.334015e-09	2.688189e+01	5.495648e+02
1.950000e-06	3.903651e-06	8.261393e-09	2.658832e+01	5.466270e+02
1.960000e-06	3.859076e-06	8.389948e-09	2.628471e+01	5.435101e+02
1.970000e-06	3.813108e-06	8.244131e-09	2.597162e+01	5.403337e+02
1.980000e-06	3.765660e-06	8.226605e-09	2.564844e+01	5.371783e+02
1.990000e-06	3.716733e-06	8.121530e-09	2.531519e+01	5.340569e+02
2.000000e-06	3.666540e-06	8.050237e-09	2.497332e+01	5.309199e+02
2.010000e-06	3.614996e-06	8.098720e-09	2.462225e+01	5.276816e+02
2.020000e-06	3.562059e-06	8.026789e-09	2.426168e+01	5.242574e+02
2.030000e-06	3.507493e-06	7.990567e-09	2.389003e+01	5.205945e+02
2.040000e-06	3.451496e-06	7.832651e-09	2.350863e+01	5.166893e+02
2.050000e-06	3.394389e-06	7.797600e-09	2.311966e+01	5.125848e+02
2.060000e-06	3.336098e-06	7.833221e-09	2.272263e+01	5.083497e+02
2.070000e-06	3.276788e-06	7.669542e-09	2.231867e+01	5.040479e+02
2.080000e-06	3.216269e-06	7.610999e-09	2.190646e+01	4.997088e+02
2.090000e-06	3.154275e-06	7.520940e-09	2.148421e+01	4.953157e+02
2.100000e-06	3.091073e-06	7.502293e-09	2.105373e+01	4.908158e+02
2.110000e-06	3.026868e-06	7.494090e-09	2.061643e+01	4.861479e+02
2.120000e-06	2.961674e-06	7.326480e-09	2.017238e+01	4.812718e+02
2.130000e-06	2.895491e-06	7.255597e-09	1.972160e+01	4.761824e+02
2.140000e-06	2.828429e-06	7.161500e-09	1.926483e+01	4.709024e+02
2.150000e-06	2.760452e-06	7.123840e-09	1.880183e+01	4.654608e+02
2.160000e-06	2.691184e-06	7.046890e-09	1.833003e+01	4.598742e+02
2.170000e-06	2.620671e-06	6.896165e-09	1.784976e+01	4.541420e+02
2.180000e-06	2.549259e-06	6.827636e-09	1.736336e+01	4.482565e+02
2.190000e-06	2.477122e-06	6.744503e-09	1.687203e+01	4.422168e+02
2.200000e-06	2.404204e-06	6.696970e-09	1.637537e+01	4.360312e+02
2.210000e-06	2.330433e-06	6.563847e-09	1.587290e+01	4.297061e+02
2.220000e-06	2.255763e-06	6.422804e-09	1.536432e+01	4.232284e+02
2.230000e-06	2.180166e-06	6.344685e-09	1.484942e+01	4.165589e+02
2.240000e-06	2.103763e-06	6.256697e-09	1.432903e+01	4.096445e+02
2.250000e-06	2.026378e-06	6.166189e-09	1.380194e+01	4.024468e+02
2.260000e-06	1.947891e-06	6.011191e-09	1.326736e+01	3.949660e+02
2.270000e-06	1.868606e-06	5.884053e-09	1.272734e+01	3.872459e+02
2.280000e-06	1.788866e-06	5.788444e-09	1.218422e+01	3.793527e+02
2.290000e-06	1.708704e-06	5.689278e-09	1.163822e+01	3.713390e+02
2.300000e-06	1.627947e-06	5.556969e-09	1.108817e+01	3.632153e+02
2.310000e-06	1.546602e-06	5.390643e-09	1.053413e+01	3.549443e+02
2.320000e-06	1.464712e-06	5.269435e-09	9.976360e+00	3.464583e+02
2.330000e-06	1.382355e-06	5.160327e-09	9.415411e+00	3.376896e+02
2.340000e-06	1.299573e-06	5.029614e-09	8.851575e+00	3.285953e+02
2.350000e-06	1.216425e-06	4.861159e-09	8.285244e+00	3.191657e+02
2.360000e-06	1.133002e-06	4.694009e-09	7.717039e+00	3.094192e+02
2.370000e-06	1.049254e-06	4.564581e-09	7.146615e+00	2.993899e+02
2.380000e-06	9.651861e-07	4.427788e-09	6.574018e+00	2.891148e+02
2.390000e-06	8.808303e-07	4.261110e-09	5.999460e+00	2.786236e+02
2.400000e-06	7.961169e-07	4.076563e-09	5.422464e+00	2.679274e+02
2.410000e-06	7.108967e-07	3.909873e-09	4.842018e+00	2.570081e+02
2.420000e-06	6.251655e-07	3.760696e-09	4.258090e+00	2.458139e+02
2.430000e-06	5.392084e-07	3.591902e-09	3.672625e+00	2.342696e+02
2.440000e-06	4.530735e-07	3.390474e-09	3.085947e+00	2.223039e+02
2.450000e-06	3.666855e-07	3.183153e-09	2.497547e+00	2.098824e+02
2.460000e-06	2.801272e-07	2.999427e-09	1.907986e+00	1.970292e+02
2.470000e-06	1.934434e-07	2.818114e-09	1.317570e+00	1.838193e+02
2.480000e-06	1.066850e-07	2.611233e-09	7.266469e-01	1.703425e+02
2.490000e-06	1.989710e-08	2.384005e-09	1.355219e-01	1.566533e+02
2.500000e-06	-6.689348e-08	2.165105e-09	-4.556209e-01	1.427362e+02
2.510000e-06	-1.536397e-07	1.966314e-09	-1.046461e+00	1.285056e+02
2.520000e-06	-2.403189e-07	1.752622e-09	-1.636846e+00	1.138425e+02
2.530000e-06	-3.269086e-07	1.507604e-09	-2.226621e+00	9.864851e+01
2.540000e-06	-4.133459e-07	1.252727e-09	-2.815357e+00	8.289004e+01
2.550000e-06	-4.995690e-07	1.010342e-09	-3.402635e+00	6.661000e+01
2.560000e-06	-5.854538e-07	7.741302e-10	-3.987609e+00	4.990527e+01
2.570000e-06	-6.709735e-07	5.178082e-10	-4.570095e+00	3.288376e+01
2.580000e-06	-7.560965e-07	2.398515e-10	-5.149880e+00	1.562386e+01
2.590000e-06	-8.407755e-07	-3.391268e-11	-5.726640e+00	-1.846138e+00
2.600000e-06	-9.250526e-07	-2.898014e-10	-6.300664e+00	-1.954284e+01
2.610000e-06	-1.009027e-06	-5.506941e-10	-6.872625e+00	-3.750300e+01
2.620000e-06	-1.092750e-06	-8.350160e-10	-7.442875e+00	-5.575136e+01
2.630000e-06	-1.176167e-06	-1.129490e-09	-8.011039e+00	-7.427351e+01
2.640000e-06	-1.259169e-06	-1.412730e-09	-8.576376e+00	-9.300294e+01
2.650000e-06	-1.341744e-06	-1.688487e-09	-9.138805e+00	-1.118263e+02
2.660000e-06	-1.423918e-06	-1.975032e-09	-9.698509e+00	-1.306051e+02
2.670000e-06	-1.505712e-06	-2.270537e-09	-1.025562e+01	-1.492066e+02
2.680000e-06	-1.587056e-06	-2.555603e-09	-1.080966e+01	-1.675313e+02
2.690000e-06	-1.667726e-06	-2.820265e-09	-1.135912e+01	-1.855249e+02
2.700000e-06	-1.747784e-06	-3.078188e-09	-1.190440e+01	-2.031699e+02
2.710000e-06	-1.827415e-06	-3.344071e-09	-1.244678e+01	-2.204620e+02
2.720000e-06	-1.906613e-06	-3.612460e-09	-1.298621e+01	-2.373866e+02
2.730000e-06	-1.985116e-06	-3.866591e-09	-1.352090e+01	-2.539074e+02
2.740000e-06	-2.062501e-06	-4.104022e-09	-1.404798e+01	-2.699739e+02
2.750000e-06	-2.138747e-06	-4.338915e-09	-1.456731e+01	-2.855390e+02
2.760000e-06	-2.214101e-06	-4.577066e-09	-1.508055e+01	-3.005710e+02
2.770000e-06	-2.288655e-06	-4.806570e-09	-1.558835e+01	-3.150524e+02
2.780000e-06	-2.362389e-06	-5.014617e-09	-1.609056e+01	-3.289664e+02
2.790000e-06	-2.435269e-06	-5.209130e-09	-1.658696e+01	-3.422868e+02
2.800000e-06	-2.507358e-06	-5.403016e-09	-1.707797e+01	-3.549850e+02
2.810000e-06	-2.578756e-06	-5.595785e-09	-1.756427e+01	-3.670530e+02
2.820000e-06	-2.649273e-06	-5.775201e-09	-1.804457e+01	-3.785272e+02
2.830000e-06	-2.718551e-06	-5.937314e-09	-1.851643e+01	-3.894904e+02
2.840000e-06	-2.786633e-06	-6.093692e-09	-1.898015e+01	-4.000421e+02
2.850000e-06	-2.853769e-06	-6.254235e-09	-1.943742e+01	-4.102490e+02
2.860000e-06	-2.920028e-06	-6.411787e-09	-1.988872e+01	-4.201068e+02
2.870000e-06	-2.985336e-06	-6.552438e-09	-2.033355e+01	-4.295418e+02
2.880000e-06	-3.049649e-06	-6.678517e-09	-2.077159e+01	-4.384559e+02
2.890000e-06	-3.113053e-06	-6.803430e-09	-2.120344e+01	-4.467924e+02
2.900000e-06	-3.175381e-06	-6.931712e-09	-2.162797e+01	-4.545818e+02
2.910000e-06	-3.236211e-06	-7.051917e-09	-2.204229e+01	-4.619360e+02
2.920000e-06	-3.295760e-06	-7.156791e-09	-2.244789e+01	-4.689956e+02
2.930000e-06	-3.354371e-06	-7.254938e-09	-2.284710e+01	-4.758583e+02
2.940000e-06	-3.411850e-06	-7.357074e-09	-2.323859e+01	-4.825356e+02
