# Temperatura_=_20.0
# Concentracion g/m^3_=_10000.0
# C_Vs_to_Am_M_A/Vsm_=_65563218390.804596
# pendiente_HvsI_1/m_=_3716.3
# ordenada_HvsI_A/m_=_1297.0
# frecuencia_Hz_=_300947.6433982965

Tiempo_(s)	Campo_(V.s)	Magnetizacion_(V.s)	Campo_(kA/m)	Magnetizacion_(A/m)
0.000000e+00	-4.552437e-06	-8.916465e-09	-3.088551e+01	-5.841623e+02
1.000000e-08	-4.551546e-06	-8.911944e-09	-3.087946e+01	-5.839563e+02
2.000000e-08	-4.549034e-06	-8.911993e-09	-3.086242e+01	-5.837642e+02
3.000000e-08	-4.544940e-06	-8.911627e-09	-3.083465e+01	-5.836132e+02
4.000000e-08	-4.539495e-06	-8.906636e-09	-3.079771e+01	-5.834792e+02
5.000000e-08	-4.532719e-06	-8.900706e-09	-3.075174e+01	-5.833051e+02
6.000000e-08	-4.524599e-06	-8.897331e-09	-3.069664e+01	-5.830233e+02
7.000000e-08	-4.514950e-06	-8.894110e-09	-3.063118e+01	-5.825740e+02
8.000000e-08	-4.503474e-06	-8.890940e-09	-3.055332e+01	-5.819191e+02
9.000000e-08	-4.490081e-06	-8.880355e-09	-3.046246e+01	-5.810514e+02
1.000000e-07	-4.474512e-06	-8.857456e-09	-3.035684e+01	-5.800011e+02
1.100000e-07	-4.456780e-06	-8.840472e-09	-3.023654e+01	-5.788322e+02
1.200000e-07	-4.437450e-06	-8.813310e-09	-3.010539e+01	-5.776257e+02
1.300000e-07	-4.417058e-06	-8.794740e-09	-2.996704e+01	-5.764504e+02
1.400000e-07	-4.395665e-06	-8.797018e-09	-2.982191e+01	-5.753342e+02
1.500000e-07	-4.372929e-06	-8.758026e-09	-2.966765e+01	-5.742498e+02
1.600000e-07	-4.348818e-06	-8.740564e-09	-2.950408e+01	-5.731246e+02
1.700000e-07	-4.323380e-06	-8.749714e-09	-2.933150e+01	-5.718731e+02
1.800000e-07	-4.296178e-06	-8.703599e-09	-2.914695e+01	-5.704345e+02
1.900000e-07	-4.267257e-06	-8.674340e-09	-2.895074e+01	-5.687974e+02
2.000000e-07	-4.237092e-06	-8.673099e-09	-2.874608e+01	-5.670007e+02
2.100000e-07	-4.205646e-06	-8.616534e-09	-2.853274e+01	-5.651103e+02
2.200000e-07	-4.172625e-06	-8.571534e-09	-2.830872e+01	-5.631861e+02
2.300000e-07	-4.137936e-06	-8.564581e-09	-2.807337e+01	-5.612536e+02
2.400000e-07	-4.101751e-06	-8.525753e-09	-2.782788e+01	-5.592918e+02
2.500000e-07	-4.064158e-06	-8.489024e-09	-2.757283e+01	-5.572404e+02
2.600000e-07	-4.025068e-06	-8.464386e-09	-2.730764e+01	-5.550213e+02
2.700000e-07	-3.984538e-06	-8.423330e-09	-2.703266e+01	-5.525660e+02
2.800000e-07	-3.942582e-06	-8.370832e-09	-2.674801e+01	-5.498416e+02
2.900000e-07	-3.899121e-06	-8.333099e-09	-2.645316e+01	-5.468662e+02
3.000000e-07	-3.854165e-06	-8.287859e-09	-2.614816e+01	-5.437067e+02
3.100000e-07	-3.807740e-06	-8.220222e-09	-2.583319e+01	-5.404581e+02
3.200000e-07	-3.759974e-06	-8.182233e-09	-2.550913e+01	-5.372070e+02
3.300000e-07	-3.710843e-06	-8.148296e-09	-2.517581e+01	-5.339950e+02
3.400000e-07	-3.660065e-06	-8.086173e-09	-2.483131e+01	-5.307977e+02
3.500000e-07	-3.607596e-06	-8.040113e-09	-2.447534e+01	-5.275327e+02
3.600000e-07	-3.553666e-06	-7.990387e-09	-2.410946e+01	-5.240954e+02
3.700000e-07	-3.498495e-06	-7.924734e-09	-2.373515e+01	-5.204054e+02
3.800000e-07	-3.442277e-06	-7.872045e-09	-2.335375e+01	-5.164419e+02
3.900000e-07	-3.384931e-06	-7.809368e-09	-2.296469e+01	-5.122484e+02
4.000000e-07	-3.326150e-06	-7.737564e-09	-2.256590e+01	-5.079077e+02
4.100000e-07	-3.266027e-06	-7.672883e-09	-2.215800e+01	-5.035003e+02
4.200000e-07	-3.204845e-06	-7.611170e-09	-2.174292e+01	-4.990690e+02
4.300000e-07	-3.142599e-06	-7.540917e-09	-2.132062e+01	-4.946071e+02
4.400000e-07	-3.079286e-06	-7.467398e-09	-2.089108e+01	-4.900695e+02
4.500000e-07	-3.014983e-06	-7.397004e-09	-2.045482e+01	-4.853969e+02
4.600000e-07	-2.949589e-06	-7.325002e-09	-2.001116e+01	-4.805376e+02
4.700000e-07	-2.882910e-06	-7.251213e-09	-1.955879e+01	-4.754589e+02
4.800000e-07	-2.815072e-06	-7.165902e-09	-1.909855e+01	-4.701496e+02
4.900000e-07	-2.746351e-06	-7.077369e-09	-1.863231e+01	-4.646191e+02
5.000000e-07	-2.676749e-06	-6.993722e-09	-1.816011e+01	-4.588960e+02
5.100000e-07	-2.606221e-06	-6.904839e-09	-1.768162e+01	-4.530236e+02
5.200000e-07	-2.534851e-06	-6.812516e-09	-1.719742e+01	-4.470477e+02
5.300000e-07	-2.462666e-06	-6.722516e-09	-1.670769e+01	-4.409956e+02
5.400000e-07	-2.389538e-06	-6.629225e-09	-1.621156e+01	-4.348574e+02
5.500000e-07	-2.315271e-06	-6.533309e-09	-1.570770e+01	-4.285812e+02
5.600000e-07	-2.239907e-06	-6.437187e-09	-1.519640e+01	-4.220919e+02
5.700000e-07	-2.163648e-06	-6.334070e-09	-1.467903e+01	-4.153251e+02
5.800000e-07	-2.086570e-06	-6.222130e-09	-1.415611e+01	-4.082601e+02
5.900000e-07	-2.008712e-06	-6.108650e-09	-1.362789e+01	-4.009291e+02
6.000000e-07	-1.930152e-06	-5.996192e-09	-1.309490e+01	-3.933981e+02
6.100000e-07	-1.850850e-06	-5.880568e-09	-1.255689e+01	-3.857275e+02
6.200000e-07	-1.770602e-06	-5.762024e-09	-1.201245e+01	-3.779388e+02
6.300000e-07	-1.689527e-06	-5.640576e-09	-1.146241e+01	-3.700047e+02
6.400000e-07	-1.607901e-06	-5.519003e-09	-1.090863e+01	-3.618688e+02
6.500000e-07	-1.525824e-06	-5.393828e-09	-1.035178e+01	-3.534786e+02
6.600000e-07	-1.443286e-06	-5.261023e-09	-9.791816e+00	-3.448100e+02
6.700000e-07	-1.360257e-06	-5.124038e-09	-9.228514e+00	-3.358688e+02
6.800000e-07	-1.276715e-06	-4.982620e-09	-8.661733e+00	-3.266730e+02
6.900000e-07	-1.192740e-06	-4.837352e-09	-8.092012e+00	-3.172313e+02
7.000000e-07	-1.108525e-06	-4.688393e-09	-7.520663e+00	-3.075345e+02
7.100000e-07	-1.024082e-06	-4.535070e-09	-6.947771e+00	-2.975661e+02
7.200000e-07	-9.393669e-07	-4.377860e-09	-6.373032e+00	-2.873181e+02
7.300000e-07	-8.543214e-07	-4.220206e-09	-5.796050e+00	-2.767985e+02
7.400000e-07	-7.689495e-07	-4.060202e-09	-5.216853e+00	-2.660210e+02
7.500000e-07	-6.833535e-07	-3.893681e-09	-4.636137e+00	-2.549840e+02
7.600000e-07	-5.975268e-07	-3.721523e-09	-4.053855e+00	-2.436566e+02
7.700000e-07	-5.114811e-07	-3.543085e-09	-3.470087e+00	-2.319863e+02
7.800000e-07	-4.252769e-07	-3.358053e-09	-2.885244e+00	-2.199250e+02
7.900000e-07	-3.389777e-07	-3.164829e-09	-2.299757e+00	-2.074582e+02
8.000000e-07	-2.526031e-07	-2.965923e-09	-1.713758e+00	-1.946156e+02
8.100000e-07	-1.660833e-07	-2.765051e-09	-1.126774e+00	-1.814518e+02
8.200000e-07	-7.945545e-08	-2.562533e-09	-5.390568e-01	-1.680095e+02
8.300000e-07	7.177755e-09	-2.356662e-09	4.869669e-02	-1.542857e+02
8.400000e-07	9.383695e-08	-2.144233e-09	6.366265e-01	-1.402256e+02
8.500000e-07	1.804805e-07	-1.924209e-09	1.224450e+00	-1.257477e+02
8.600000e-07	2.670162e-07	-1.694386e-09	1.811542e+00	-1.107863e+02
8.700000e-07	3.534238e-07	-1.453620e-09	2.397765e+00	-9.532460e+01
8.800000e-07	4.397246e-07	-1.206034e-09	2.983263e+00	-7.940061e+01
8.900000e-07	5.259688e-07	-9.557715e-10	3.568377e+00	-6.308208e+01
9.000000e-07	6.120425e-07	-7.032209e-10	4.152335e+00	-4.642881e+01
9.100000e-07	6.977949e-07	-4.472834e-10	4.734113e+00	-2.946496e+01
9.200000e-07	7.832562e-07	-1.849385e-10	5.313915e+00	-1.217728e+01
9.300000e-07	8.684534e-07	8.376245e-11	5.891927e+00	5.461804e+00
9.400000e-07	9.534215e-07	3.586079e-10	6.468384e+00	2.346139e+01
9.500000e-07	1.038133e-06	6.403730e-10	7.043097e+00	4.178911e+01
9.600000e-07	1.122487e-06	9.255613e-10	7.615388e+00	6.036975e+01
9.700000e-07	1.206502e-06	1.211963e-09	8.185379e+00	7.910438e+01
9.800000e-07	1.290201e-06	1.498877e-09	8.753228e+00	9.789779e+01
9.900000e-07	1.373496e-06	1.783772e-09	9.318332e+00	1.166789e+02
1.000000e-06	1.456277e-06	2.067615e-09	9.879949e+00	1.354039e+02
1.010000e-06	1.538489e-06	2.351721e-09	1.043771e+01	1.540418e+02
1.020000e-06	1.620175e-06	2.634936e-09	1.099190e+01	1.725511e+02
1.030000e-06	1.701333e-06	2.916887e-09	1.154251e+01	1.908610e+02
1.040000e-06	1.781825e-06	3.194197e-09	1.208860e+01	2.088699e+02
1.050000e-06	1.861616e-06	3.463366e-09	1.262993e+01	2.264629e+02
1.060000e-06	1.940703e-06	3.725223e-09	1.316649e+01	2.435439e+02
1.070000e-06	2.019087e-06	3.976748e-09	1.369827e+01	2.600635e+02
1.080000e-06	2.096775e-06	4.216606e-09	1.422534e+01	2.760297e+02
1.090000e-06	2.173733e-06	4.449348e-09	1.474745e+01	2.914890e+02
1.100000e-06	2.249889e-06	4.678798e-09	1.526412e+01	3.064884e+02
1.110000e-06	2.325075e-06	4.903142e-09	1.577422e+01	3.210346e+02
1.120000e-06	2.399143e-06	5.118877e-09	1.627672e+01	3.350770e+02
1.130000e-06	2.472158e-06	5.324103e-09	1.677208e+01	3.485263e+02
1.140000e-06	2.544322e-06	5.518137e-09	1.726168e+01	3.613011e+02
1.150000e-06	2.615668e-06	5.702662e-09	1.774571e+01	3.733781e+02
1.160000e-06	2.686103e-06	5.877020e-09	1.822357e+01	3.848151e+02
1.170000e-06	2.755608e-06	6.041889e-09	1.869512e+01	3.957303e+02
1.180000e-06	2.824234e-06	6.200475e-09	1.916071e+01	4.062476e+02
1.190000e-06	2.891958e-06	6.355917e-09	1.962017e+01	4.164369e+02
1.200000e-06	2.958492e-06	6.508100e-09	2.007157e+01	4.262845e+02
1.210000e-06	3.023723e-06	6.653652e-09	2.051412e+01	4.357100e+02
1.220000e-06	3.087937e-06	6.790527e-09	2.094977e+01	4.446208e+02
1.230000e-06	3.151228e-06	6.918918e-09	2.137916e+01	4.529719e+02
1.240000e-06	3.213471e-06	7.039497e-09	2.180144e+01	4.607966e+02
1.250000e-06	3.274688e-06	7.151490e-09	2.221676e+01	4.681926e+02
1.260000e-06	3.334918e-06	7.255732e-09	2.262538e+01	4.752738e+02
1.270000e-06	3.393962e-06	7.357158e-09	2.302597e+01	4.821171e+02
1.280000e-06	3.451576e-06	7.457323e-09	2.341684e+01	4.887344e+02
1.290000e-06	3.507867e-06	7.554253e-09	2.379874e+01	4.950818e+02
1.300000e-06	3.562985e-06	7.647901e-09	2.417268e+01	5.010977e+02
1.310000e-06	3.616898e-06	7.736268e-09	2.453845e+01	5.067447e+02
1.320000e-06	3.669456e-06	7.817615e-09	2.489502e+01	5.120310e+02
1.330000e-06	3.720351e-06	7.893815e-09	2.524031e+01	5.170057e+02
1.340000e-06	3.769591e-06	7.965465e-09	2.557438e+01	5.217316e+02
1.350000e-06	3.817397e-06	8.031438e-09	2.589871e+01	5.262568e+02
1.360000e-06	3.863920e-06	8.091970e-09	2.621434e+01	5.305983e+02
1.370000e-06	3.909235e-06	8.150836e-09	2.652178e+01	5.347459e+02
1.380000e-06	3.953294e-06	8.211814e-09	2.682069e+01	5.386799e+02
1.390000e-06	3.995826e-06	8.271989e-09	2.710924e+01	5.423916e+02
1.400000e-06	4.036762e-06	8.326766e-09	2.738697e+01	5.458951e+02
1.410000e-06	4.076352e-06	8.376063e-09	2.765556e+01	5.492239e+02
1.420000e-06	4.114616e-06	8.422287e-09	2.791516e+01	5.524146e+02
1.430000e-06	4.151536e-06	8.468014e-09	2.816564e+01	5.554854e+02
1.440000e-06	4.187076e-06	8.511350e-09	2.840676e+01	5.584226e+02
1.450000e-06	4.221052e-06	8.550003e-09	2.863726e+01	5.611827e+02
1.460000e-06	4.253440e-06	8.584938e-09	2.885700e+01	5.637146e+02
1.470000e-06	4.284349e-06	8.618491e-09	2.906670e+01	5.659912e+02
1.480000e-06	4.313841e-06	8.651175e-09	2.926678e+01	5.680343e+02
1.490000e-06	4.341910e-06	8.681658e-09	2.945722e+01	5.699164e+02
1.500000e-06	4.368351e-06	8.709859e-09	2.963660e+01	5.717331e+02
1.510000e-06	4.393065e-06	8.737656e-09	2.980427e+01	5.735553e+02
1.520000e-06	4.416225e-06	8.765522e-09	2.996139e+01	5.753889e+02
1.530000e-06	4.437953e-06	8.790766e-09	3.010881e+01	5.771644e+02
1.540000e-06	4.458273e-06	8.812000e-09	3.024666e+01	5.787690e+02
1.550000e-06	4.477043e-06	8.829654e-09	3.037400e+01	5.801060e+02
1.560000e-06	4.494154e-06	8.845362e-09	3.049009e+01	5.811511e+02
1.570000e-06	4.509651e-06	8.858818e-09	3.059523e+01	5.819707e+02
1.580000e-06	4.523510e-06	8.868923e-09	3.068926e+01	5.826921e+02
1.590000e-06	4.535645e-06	8.879905e-09	3.077159e+01	5.834381e+02
1.600000e-06	4.545918e-06	8.894096e-09	3.084128e+01	5.842631e+02
1.610000e-06	4.554400e-06	8.908940e-09	3.089883e+01	5.851266e+02
1.620000e-06	4.561328e-06	8.921581e-09	3.094583e+01	5.859167e+02
1.630000e-06	4.566759e-06	8.929304e-09	3.098267e+01	5.865098e+02
1.640000e-06	4.570655e-06	8.933398e-09	3.100911e+01	5.868326e+02
1.650000e-06	4.572851e-06	8.934808e-09	3.102401e+01	5.868931e+02
1.660000e-06	4.573351e-06	8.931380e-09	3.102740e+01	5.867691e+02
1.670000e-06	4.572355e-06	8.925845e-09	3.102064e+01	5.865657e+02
1.680000e-06	4.569959e-06	8.922996e-09	3.100438e+01	5.863677e+02
1.690000e-06	4.566209e-06	8.922413e-09	3.097894e+01	5.862105e+02
1.700000e-06	4.560899e-06	8.922914e-09	3.094292e+01	5.860763e+02
1.710000e-06	4.553988e-06	8.921139e-09	3.089603e+01	5.859112e+02
1.720000e-06	4.545702e-06	8.915088e-09	3.083982e+01	5.856479e+02
1.730000e-06	4.536030e-06	8.909410e-09	3.077420e+01	5.852247e+02
1.740000e-06	4.524898e-06	8.894666e-09	3.069867e+01	5.845996e+02
1.750000e-06	4.512063e-06	8.881435e-09	3.061159e+01	5.837605e+02
1.760000e-06	4.496955e-06	8.861189e-09	3.050910e+01	5.827322e+02
1.770000e-06	4.479458e-06	8.842158e-09	3.039039e+01	5.815746e+02
1.780000e-06	4.460321e-06	8.834465e-09	3.026056e+01	5.803678e+02
1.790000e-06	4.440436e-06	8.806145e-09	3.012565e+01	5.791843e+02
1.800000e-06	4.419893e-06	8.798780e-09	2.998628e+01	5.780593e+02
1.810000e-06	4.397656e-06	8.795597e-09	2.983542e+01	5.769731e+02
1.820000e-06	4.373357e-06	8.752166e-09	2.967056e+01	5.758583e+02
1.830000e-06	4.347834e-06	8.751087e-09	2.949741e+01	5.746287e+02
1.840000e-06	4.320994e-06	8.750305e-09	2.931531e+01	5.732180e+02
1.850000e-06	4.292111e-06	8.686857e-09	2.911936e+01	5.716071e+02
1.860000e-06	4.261434e-06	8.672314e-09	2.891123e+01	5.698286e+02
1.870000e-06	4.229405e-06	8.669747e-09	2.869393e+01	5.679465e+02
1.880000e-06	4.196085e-06	8.623303e-09	2.846788e+01	5.660238e+02
1.890000e-06	4.161446e-06	8.608318e-09	2.823287e+01	5.640918e+02
1.900000e-06	4.125144e-06	8.585399e-09	2.798659e+01	5.621363e+02
1.910000e-06	4.087135e-06	8.540237e-09	2.772872e+01	5.601016e+02
1.920000e-06	4.047684e-06	8.514114e-09	2.746107e+01	5.579103e+02
1.930000e-06	4.006775e-06	8.480453e-09	2.718352e+01	5.554910e+02
1.940000e-06	3.964619e-06	8.439632e-09	2.689752e+01	5.528044e+02
1.950000e-06	3.921341e-06	8.383274e-09	2.660391e+01	5.498609e+02
1.960000e-06	3.876652e-06	8.347958e-09	2.630072e+01	5.467214e+02
1.970000e-06	3.830493e-06	8.312762e-09	2.598756e+01	5.434788e+02
1.980000e-06	3.782874e-06	8.228357e-09	2.566450e+01	5.402233e+02
1.990000e-06	3.733856e-06	8.191002e-09	2.533194e+01	5.370048e+02
2.000000e-06	3.683558e-06	8.154579e-09	2.499069e+01	5.338085e+02
2.010000e-06	3.631873e-06	8.090299e-09	2.464004e+01	5.305588e+02
2.020000e-06	3.578700e-06	8.057238e-09	2.427929e+01	5.271512e+02
2.030000e-06	3.523953e-06	7.990717e-09	2.390787e+01	5.234994e+02
2.040000e-06	3.467811e-06	7.925509e-09	2.352698e+01	5.195728e+02
2.050000e-06	3.410527e-06	7.871508e-09	2.313835e+01	5.154067e+02
2.060000e-06	3.352165e-06	7.796877e-09	2.274240e+01	5.110808e+02
2.070000e-06	3.292761e-06	7.732704e-09	2.233938e+01	5.066783e+02
2.080000e-06	3.232040e-06	7.657062e-09	2.192742e+01	5.022489e+02
2.090000e-06	3.169879e-06	7.594405e-09	2.150570e+01	4.977927e+02
2.100000e-06	3.106563e-06	7.533718e-09	2.107614e+01	4.932687e+02
2.110000e-06	3.042248e-06	7.458524e-09	2.063980e+01	4.886181e+02
2.120000e-06	2.976909e-06	7.384308e-09	2.019651e+01	4.837871e+02
2.130000e-06	2.910593e-06	7.302702e-09	1.974660e+01	4.787401e+02
2.140000e-06	2.843405e-06	7.231404e-09	1.929077e+01	4.734628e+02
2.150000e-06	2.775193e-06	7.141962e-09	1.882799e+01	4.679618e+02
2.160000e-06	2.705672e-06	7.052654e-09	1.835633e+01	4.622629e+02
2.170000e-06	2.634942e-06	6.969013e-09	1.787647e+01	4.564081e+02
2.180000e-06	2.563341e-06	6.872549e-09	1.739071e+01	4.504438e+02
2.190000e-06	2.491000e-06	6.785817e-09	1.689992e+01	4.444014e+02
2.200000e-06	2.417839e-06	6.689604e-09	1.640357e+01	4.382769e+02
2.210000e-06	2.343827e-06	6.589923e-09	1.590143e+01	4.320240e+02
2.220000e-06	2.268884e-06	6.487110e-09	1.539300e+01	4.255689e+02
2.230000e-06	2.192981e-06	6.386792e-09	1.487804e+01	4.188435e+02
2.240000e-06	2.116198e-06	6.287317e-09	1.435712e+01	4.118194e+02
2.250000e-06	2.038421e-06	6.171640e-09	1.382944e+01	4.045220e+02
2.260000e-06	1.959684e-06	6.055162e-09	1.329526e+01	3.970145e+02
2.270000e-06	1.880245e-06	5.937675e-09	1.275631e+01	3.893605e+02
2.280000e-06	1.800308e-06	5.823203e-09	1.221399e+01	3.815885e+02
2.290000e-06	1.719883e-06	5.701437e-09	1.166836e+01	3.736775e+02
2.300000e-06	1.638860e-06	5.570857e-09	1.111867e+01	3.655733e+02
2.310000e-06	1.557222e-06	5.443689e-09	1.056480e+01	3.572209e+02
2.320000e-06	1.475014e-06	5.314946e-09	1.000707e+01	3.485913e+02
2.330000e-06	1.392358e-06	5.182831e-09	9.446301e+00	3.396872e+02
2.340000e-06	1.309335e-06	5.042748e-09	8.883037e+00	3.305260e+02
2.350000e-06	1.226009e-06	4.898139e-09	8.317726e+00	3.211188e+02
2.360000e-06	1.142408e-06	4.749939e-09	7.750544e+00	3.114587e+02
2.370000e-06	1.058418e-06	4.598598e-09	7.180722e+00	3.015291e+02
2.380000e-06	9.740141e-07	4.442296e-09	6.608092e+00	2.913200e+02
2.390000e-06	8.892170e-07	4.279373e-09	6.032795e+00	2.808375e+02
2.400000e-06	8.039001e-07	4.115948e-09	5.453972e+00	2.700956e+02
2.410000e-06	7.180400e-07	3.951071e-09	4.871464e+00	2.590959e+02
2.420000e-06	6.318359e-07	3.781038e-09	4.286621e+00	2.478122e+02
2.430000e-06	5.454128e-07	3.602142e-09	3.700293e+00	2.361935e+02
2.440000e-06	4.587456e-07	3.416730e-09	3.112309e+00	2.241890e+02
2.450000e-06	3.718758e-07	3.229541e-09	2.522951e+00	2.117785e+02
2.460000e-06	2.849216e-07	3.037605e-09	1.933019e+00	1.989856e+02
2.470000e-06	1.979379e-07	2.837222e-09	1.342888e+00	1.858636e+02
2.480000e-06	1.108777e-07	2.630195e-09	7.522375e-01	1.724591e+02
2.490000e-06	2.376302e-08	2.419552e-09	1.612176e-01	1.587770e+02
2.500000e-06	-6.330895e-08	2.207783e-09	-4.295126e-01	1.447689e+02
2.510000e-06	-1.503349e-07	1.991991e-09	-1.019931e+00	1.303548e+02
2.520000e-06	-2.373217e-07	1.765838e-09	-1.610083e+00	1.154639e+02
2.530000e-06	-3.242405e-07	1.530421e-09	-2.199774e+00	1.000717e+02
2.540000e-06	-4.110706e-07	1.289338e-09	-2.788863e+00	8.420909e+01
2.550000e-06	-4.977259e-07	1.044234e-09	-3.376767e+00	6.794186e+01
2.560000e-06	-5.840706e-07	7.924852e-10	-3.962563e+00	5.133312e+01
2.570000e-06	-6.701169e-07	5.315973e-10	-4.546334e+00	3.441291e+01
2.580000e-06	-7.558371e-07	2.657447e-10	-5.127894e+00	1.717238e+01
2.590000e-06	-8.410820e-07	-1.022522e-12	-5.706229e+00	-4.160089e-01
2.600000e-06	-9.258660e-07	-2.723286e-10	-6.281436e+00	-1.836581e+01
2.610000e-06	-1.010245e-06	-5.506182e-10	-6.853897e+00	-3.665121e+01
2.620000e-06	-1.094218e-06	-8.342857e-10	-7.423602e+00	-5.520234e+01
2.630000e-06	-1.177779e-06	-1.119169e-09	-7.990511e+00	-7.392199e+01
2.640000e-06	-1.261001e-06	-1.402131e-09	-8.555122e+00	-9.271287e+01
2.650000e-06	-1.343894e-06	-1.688547e-09	-9.117501e+00	-1.114998e+02
2.660000e-06	-1.426340e-06	-1.978649e-09	-9.676848e+00	-1.302356e+02
2.670000e-06	-1.508362e-06	-2.265740e-09	-1.023332e+01	-1.488888e+02
2.680000e-06	-1.589941e-06	-2.546527e-09	-1.078678e+01	-1.674208e+02
2.690000e-06	-1.670920e-06	-2.823072e-09	-1.133617e+01	-1.857656e+02
2.700000e-06	-1.751284e-06	-3.097038e-09	-1.188139e+01	-2.038254e+02
2.710000e-06	-1.831162e-06	-3.366626e-09	-1.242332e+01	-2.214853e+02
2.720000e-06	-1.910572e-06	-3.627457e-09	-1.296207e+01	-2.386446e+02
2.730000e-06	-1.989315e-06	-3.878696e-09	-1.349629e+01	-2.552461e+02
2.740000e-06	-2.067149e-06	-4.124260e-09	-1.402434e+01	-2.712898e+02
2.750000e-06	-2.143947e-06	-4.364860e-09	-1.454537e+01	-2.868190e+02
2.760000e-06	-2.219712e-06	-4.597412e-09	-1.505939e+01	-3.018832e+02
2.770000e-06	-2.294563e-06	-4.819746e-09	-1.556721e+01	-3.164968e+02
2.780000e-06	-2.368598e-06	-5.034517e-09	-1.606950e+01	-3.306170e+02
2.790000e-06	-2.441790e-06	-5.241712e-09	-1.656606e+01	-3.441576e+02
2.800000e-06	-2.514164e-06	-5.438071e-09	-1.705707e+01	-3.570328e+02
2.810000e-06	-2.585760e-06	-5.623105e-09	-1.754281e+01	-3.692087e+02
2.820000e-06	-2.656505e-06	-5.798437e-09	-1.802277e+01	-3.807316e+02
2.830000e-06	-2.726176e-06	-5.966367e-09	-1.849545e+01	-3.917140e+02
2.840000e-06	-2.794646e-06	-6.129676e-09	-1.895997e+01	-4.022829e+02
2.850000e-06	-2.862064e-06	-6.288233e-09	-1.941736e+01	-4.125187e+02
2.860000e-06	-2.928578e-06	-6.438703e-09	-1.986861e+01	-4.224198e+02
2.870000e-06	-2.994178e-06	-6.580479e-09	-2.031367e+01	-4.319125e+02
2.880000e-06	-3.058793e-06	-6.716492e-09	-2.075204e+01	-4.409020e+02
2.890000e-06	-3.122430e-06	-6.845939e-09	-2.118378e+01	-4.493338e+02
2.900000e-06	-3.184993e-06	-6.965341e-09	-2.160823e+01	-4.572296e+02
2.910000e-06	-3.246226e-06	-7.076780e-09	-2.202366e+01	-4.646804e+02
2.920000e-06	-3.306114e-06	-7.186414e-09	-2.242997e+01	-4.718014e+02
2.930000e-06	-3.364927e-06	-7.295873e-09	-2.282898e+01	-4.786772e+02
2.940000e-06	-3.422662e-06	-7.401347e-09	-2.322067e+01	-4.853293e+02
