# Temperatura_=_20.0
# Concentracion g/m^3_=_10000.0
# C_Vs_to_Am_M_A/Vsm_=_65563218390.804596
# pendiente_HvsI_1/m_=_3716.3
# ordenada_HvsI_A/m_=_1297.0
# frecuencia_Hz_=_300950.9661491711

Tiempo_(s)	Campo_(V.s)	Magnetizacion_(V.s)	Campo_(kA/m)	Magnetizacion_(A/m)
0.000000e+00	-4.551746e-06	-8.885749e-09	-3.088379e+01	-5.816613e+02
1.000000e-08	-4.550750e-06	-8.889663e-09	-3.087703e+01	-5.816624e+02
2.000000e-08	-4.548037e-06	-8.891100e-09	-3.085863e+01	-5.818407e+02
3.000000e-08	-4.543727e-06	-8.893032e-09	-3.082938e+01	-5.820232e+02
4.000000e-08	-4.538100e-06	-8.892992e-09	-3.079120e+01	-5.819902e+02
5.000000e-08	-4.531094e-06	-8.882966e-09	-3.074367e+01	-5.816023e+02
6.000000e-08	-4.522754e-06	-8.865493e-09	-3.068708e+01	-5.808747e+02
7.000000e-08	-4.512829e-06	-8.835148e-09	-3.061974e+01	-5.799548e+02
8.000000e-08	-4.501052e-06	-8.802347e-09	-3.053983e+01	-5.790203e+02
9.000000e-08	-4.487446e-06	-8.869181e-09	-3.044751e+01	-5.781683e+02
1.000000e-07	-4.471616e-06	-8.907694e-09	-3.034010e+01	-5.773665e+02
1.100000e-07	-4.453590e-06	-8.852843e-09	-3.021780e+01	-5.764961e+02
1.200000e-07	-4.433997e-06	-8.786153e-09	-3.008486e+01	-5.754494e+02
1.300000e-07	-4.413442e-06	-8.591052e-09	-2.994539e+01	-5.742121e+02
1.400000e-07	-4.391984e-06	-8.739954e-09	-2.979979e+01	-5.728732e+02
1.500000e-07	-4.369075e-06	-8.919872e-09	-2.964436e+01	-5.715571e+02
1.600000e-07	-4.344848e-06	-8.549664e-09	-2.947998e+01	-5.703299e+02
1.700000e-07	-4.319293e-06	-8.645315e-09	-2.930659e+01	-5.691471e+02
1.800000e-07	-4.291779e-06	-8.826967e-09	-2.911990e+01	-5.678803e+02
1.900000e-07	-4.262587e-06	-8.511991e-09	-2.892183e+01	-5.664019e+02
2.000000e-07	-4.232245e-06	-8.649538e-09	-2.871596e+01	-5.646701e+02
2.100000e-07	-4.200530e-06	-8.735550e-09	-2.850077e+01	-5.627529e+02
2.200000e-07	-4.167224e-06	-8.375490e-09	-2.827479e+01	-5.607759e+02
2.300000e-07	-4.132288e-06	-8.458400e-09	-2.803775e+01	-5.588298e+02
2.400000e-07	-4.095899e-06	-8.582755e-09	-2.779085e+01	-5.569003e+02
2.500000e-07	-4.058127e-06	-8.452019e-09	-2.753457e+01	-5.548679e+02
2.600000e-07	-4.018821e-06	-8.451710e-09	-2.726787e+01	-5.525771e+02
2.700000e-07	-3.978149e-06	-8.306793e-09	-2.699191e+01	-5.499310e+02
2.800000e-07	-3.936108e-06	-8.282137e-09	-2.670666e+01	-5.469533e+02
2.900000e-07	-3.892454e-06	-8.377577e-09	-2.641046e+01	-5.437805e+02
3.000000e-07	-3.847262e-06	-8.230856e-09	-2.610384e+01	-5.405917e+02
3.100000e-07	-3.800633e-06	-8.120749e-09	-2.578745e+01	-5.375187e+02
3.200000e-07	-3.752632e-06	-8.128826e-09	-2.546177e+01	-5.345834e+02
3.300000e-07	-3.703275e-06	-8.119199e-09	-2.512688e+01	-5.316919e+02
3.400000e-07	-3.652259e-06	-8.089452e-09	-2.478073e+01	-5.286839e+02
3.500000e-07	-3.599552e-06	-8.021211e-09	-2.442312e+01	-5.254057e+02
3.600000e-07	-3.545437e-06	-7.900262e-09	-2.405594e+01	-5.217747e+02
3.700000e-07	-3.490136e-06	-7.823107e-09	-2.368072e+01	-5.178085e+02
3.800000e-07	-3.433851e-06	-7.867997e-09	-2.329883e+01	-5.136110e+02
3.900000e-07	-3.376394e-06	-7.814926e-09	-2.290898e+01	-5.093252e+02
4.000000e-07	-3.317408e-06	-7.649392e-09	-2.250875e+01	-5.050722e+02
4.100000e-07	-3.257101e-06	-7.598826e-09	-2.209957e+01	-5.009002e+02
4.200000e-07	-3.195805e-06	-7.580840e-09	-2.168368e+01	-4.967647e+02
4.300000e-07	-3.133505e-06	-7.541231e-09	-2.126097e+01	-4.925482e+02
4.400000e-07	-3.070046e-06	-7.441249e-09	-2.083039e+01	-4.881127e+02
4.500000e-07	-3.005544e-06	-7.298285e-09	-2.039274e+01	-4.833611e+02
4.600000e-07	-2.940018e-06	-7.253624e-09	-1.994814e+01	-4.782779e+02
4.700000e-07	-2.873129e-06	-7.231639e-09	-1.949430e+01	-4.729303e+02
4.800000e-07	-2.805093e-06	-7.159592e-09	-1.903267e+01	-4.674289e+02
4.900000e-07	-2.736245e-06	-7.025553e-09	-1.856554e+01	-4.618712e+02
5.000000e-07	-2.666477e-06	-6.908135e-09	-1.809216e+01	-4.562983e+02
5.100000e-07	-2.595784e-06	-6.856582e-09	-1.761251e+01	-4.506854e+02
5.200000e-07	-2.524295e-06	-6.797893e-09	-1.712745e+01	-4.449648e+02
5.300000e-07	-2.452020e-06	-6.690438e-09	-1.663706e+01	-4.390633e+02
5.400000e-07	-2.378774e-06	-6.548173e-09	-1.614008e+01	-4.329279e+02
5.500000e-07	-2.304322e-06	-6.462985e-09	-1.563492e+01	-4.265323e+02
5.600000e-07	-2.228759e-06	-6.418615e-09	-1.512222e+01	-4.198686e+02
5.700000e-07	-2.152357e-06	-6.325141e-09	-1.460383e+01	-4.129399e+02
5.800000e-07	-2.075151e-06	-6.173783e-09	-1.407999e+01	-4.057643e+02
5.900000e-07	-1.997179e-06	-6.027224e-09	-1.355094e+01	-3.983819e+02
6.000000e-07	-1.918567e-06	-5.932649e-09	-1.301756e+01	-3.908520e+02
6.100000e-07	-1.839201e-06	-5.853723e-09	-1.247906e+01	-3.832295e+02
6.200000e-07	-1.758893e-06	-5.729883e-09	-1.193416e+01	-3.755295e+02
6.300000e-07	-1.677677e-06	-5.573738e-09	-1.138311e+01	-3.677032e+02
6.400000e-07	-1.595858e-06	-5.448866e-09	-1.082796e+01	-3.596476e+02
6.500000e-07	-1.513653e-06	-5.359208e-09	-1.027020e+01	-3.512511e+02
6.600000e-07	-1.431017e-06	-5.243582e-09	-9.709508e+00	-3.424524e+02
6.700000e-07	-1.347892e-06	-5.073780e-09	-9.145505e+00	-3.332751e+02
6.800000e-07	-1.264254e-06	-4.901157e-09	-8.578016e+00	-3.238159e+02
6.900000e-07	-1.180177e-06	-4.767687e-09	-8.007552e+00	-3.141885e+02
7.000000e-07	-1.095843e-06	-4.652904e-09	-7.435342e+00	-3.044585e+02
7.100000e-07	-1.011304e-06	-4.500916e-09	-6.861739e+00	-2.946076e+02
7.200000e-07	-9.264989e-07	-4.316678e-09	-6.286334e+00	-2.845470e+02
7.300000e-07	-8.413628e-07	-4.151966e-09	-5.708682e+00	-2.741682e+02
7.400000e-07	-7.559075e-07	-4.012290e-09	-5.128864e+00	-2.633968e+02
7.500000e-07	-6.702333e-07	-3.861068e-09	-4.547561e+00	-2.522160e+02
7.600000e-07	-5.843782e-07	-3.668313e-09	-3.965031e+00	-2.406522e+02
7.700000e-07	-4.983621e-07	-3.462120e-09	-3.381408e+00	-2.287401e+02
7.800000e-07	-4.121692e-07	-3.280841e-09	-2.796585e+00	-2.164964e+02
7.900000e-07	-3.258690e-07	-3.113614e-09	-2.211035e+00	-2.039205e+02
8.000000e-07	-2.394522e-07	-2.919262e-09	-1.624693e+00	-1.910140e+02
8.100000e-07	-1.528712e-07	-2.693512e-09	-1.037237e+00	-1.777970e+02
8.200000e-07	-6.623194e-08	-2.475228e-09	-4.493865e-01	-1.643000e+02
8.300000e-07	2.039017e-08	-2.284230e-09	1.383482e-01	-1.505335e+02
8.400000e-07	1.069657e-07	-2.090580e-09	7.257671e-01	-1.364576e+02
8.500000e-07	1.935355e-07	-1.859005e-09	1.313146e+00	-1.219786e+02
8.600000e-07	2.800660e-07	-1.607385e-09	1.900260e+00	-1.069850e+02
8.700000e-07	3.664701e-07	-1.368770e-09	2.486515e+00	-9.140550e+01
8.800000e-07	4.527675e-07	-1.142058e-09	3.072046e+00	-7.525544e+01
8.900000e-07	5.389736e-07	-8.953202e-10	3.656959e+00	-5.864008e+01
9.000000e-07	6.249822e-07	-6.214106e-10	4.240531e+00	-4.170925e+01
9.100000e-07	7.106960e-07	-3.502815e-10	4.822102e+00	-2.458657e+01
9.200000e-07	7.960848e-07	-9.784662e-11	5.401469e+00	-7.312495e+00
9.300000e-07	8.812135e-07	1.536284e-10	5.979071e+00	1.016704e+01
9.400000e-07	9.661303e-07	4.322581e-10	6.555235e+00	2.796038e+01
9.500000e-07	1.050783e-06	7.297804e-10	7.129610e+00	4.615978e+01
9.600000e-07	1.135163e-06	1.016990e-09	7.702128e+00	6.477741e+01
9.700000e-07	1.219285e-06	1.288418e-09	8.272897e+00	8.371873e+01
9.800000e-07	1.303057e-06	1.570126e-09	8.841294e+00	1.028042e+02
9.900000e-07	1.386310e-06	1.871066e-09	9.406173e+00	1.218270e+02
1.000000e-06	1.468994e-06	2.168664e-09	9.967184e+00	1.406180e+02
1.010000e-06	1.551070e-06	2.443456e-09	1.052408e+01	1.590892e+02
1.020000e-06	1.632593e-06	2.705922e-09	1.107721e+01	1.772370e+02
1.030000e-06	1.713614e-06	2.981841e-09	1.162695e+01	1.951071e+02
1.040000e-06	1.794077e-06	3.265702e-09	1.217289e+01	2.127390e+02
1.050000e-06	1.873813e-06	3.534821e-09	1.271390e+01	2.301185e+02
1.060000e-06	1.952760e-06	3.782417e-09	1.324956e+01	2.471630e+02
1.070000e-06	2.031028e-06	4.024418e-09	1.378061e+01	2.637466e+02
1.080000e-06	2.108624e-06	4.274699e-09	1.430711e+01	2.797499e+02
1.090000e-06	2.185501e-06	4.518620e-09	1.482872e+01	2.951080e+02
1.100000e-06	2.261562e-06	4.739840e-09	1.534480e+01	3.098269e+02
1.110000e-06	2.336634e-06	4.946068e-09	1.585416e+01	3.239600e+02
1.120000e-06	2.410554e-06	5.153943e-09	1.635571e+01	3.375606e+02
1.130000e-06	2.483424e-06	5.362520e-09	1.685014e+01	3.506418e+02
1.140000e-06	2.555483e-06	5.555667e-09	1.733906e+01	3.631713e+02
1.150000e-06	2.626755e-06	5.728106e-09	1.782265e+01	3.751054e+02
1.160000e-06	2.697084e-06	5.893165e-09	1.829983e+01	3.864371e+02
1.170000e-06	2.766408e-06	6.062197e-09	1.877020e+01	3.972227e+02
1.180000e-06	2.834905e-06	6.228469e-09	1.923495e+01	4.075626e+02
1.190000e-06	2.902592e-06	6.381103e-09	1.969421e+01	4.175461e+02
1.200000e-06	2.969020e-06	6.520007e-09	2.014492e+01	4.271938e+02
1.210000e-06	3.034090e-06	6.657983e-09	2.058643e+01	4.364412e+02
1.220000e-06	3.098190e-06	6.798023e-09	2.102135e+01	4.451795e+02
1.230000e-06	3.161362e-06	6.926666e-09	2.144998e+01	4.533305e+02
1.240000e-06	3.223444e-06	7.036158e-09	2.187120e+01	4.609123e+02
1.250000e-06	3.284484e-06	7.138243e-09	2.228536e+01	4.680481e+02
1.260000e-06	3.344591e-06	7.245097e-09	2.269319e+01	4.749123e+02
1.270000e-06	3.403458e-06	7.356032e-09	2.309261e+01	4.816429e+02
1.280000e-06	3.460798e-06	7.456913e-09	2.348166e+01	4.882723e+02
1.290000e-06	3.516892e-06	7.546888e-09	2.386226e+01	4.947190e+02
1.300000e-06	3.571860e-06	7.639278e-09	2.423522e+01	5.008401e+02
1.310000e-06	3.625583e-06	7.730970e-09	2.459973e+01	5.065152e+02
1.320000e-06	3.677905e-06	7.814080e-09	2.495474e+01	5.117093e+02
1.330000e-06	3.728511e-06	7.883064e-09	2.529811e+01	5.164859e+02
1.340000e-06	3.777460e-06	7.945737e-09	2.563023e+01	5.209687e+02
1.350000e-06	3.825062e-06	8.011119e-09	2.595321e+01	5.252819e+02
1.360000e-06	3.871358e-06	8.078450e-09	2.626733e+01	5.295023e+02
1.370000e-06	3.916428e-06	8.140949e-09	2.657313e+01	5.336447e+02
1.380000e-06	3.960281e-06	8.196487e-09	2.687068e+01	5.376754e+02
1.390000e-06	4.002511e-06	8.252546e-09	2.715721e+01	5.415402e+02
1.400000e-06	4.043180e-06	8.311009e-09	2.743315e+01	5.451869e+02
1.410000e-06	4.082570e-06	8.365465e-09	2.770041e+01	5.485793e+02
1.420000e-06	4.120580e-06	8.410544e-09	2.795831e+01	5.517032e+02
1.430000e-06	4.157312e-06	8.449658e-09	2.820754e+01	5.545699e+02
1.440000e-06	4.192565e-06	8.490710e-09	2.844673e+01	5.572161e+02
1.450000e-06	4.226068e-06	8.533759e-09	2.867405e+01	5.596957e+02
1.460000e-06	4.258144e-06	8.571431e-09	2.889169e+01	5.620641e+02
1.470000e-06	4.288851e-06	8.602488e-09	2.910003e+01	5.643591e+02
1.480000e-06	4.318116e-06	8.632013e-09	2.929860e+01	5.665903e+02
1.490000e-06	4.346016e-06	8.664114e-09	2.948791e+01	5.687409e+02
1.500000e-06	4.372132e-06	8.696508e-09	2.966510e+01	5.707800e+02
1.510000e-06	4.396518e-06	8.725983e-09	2.983056e+01	5.726755e+02
1.520000e-06	4.419445e-06	8.751604e-09	2.998612e+01	5.744004e+02
1.530000e-06	4.440851e-06	8.773802e-09	3.013136e+01	5.759327e+02
1.540000e-06	4.460957e-06	8.795466e-09	3.026778e+01	5.772597e+02
1.550000e-06	4.479555e-06	8.814242e-09	3.039397e+01	5.783893e+02
1.560000e-06	4.496396e-06	8.826893e-09	3.050824e+01	5.793646e+02
1.570000e-06	4.511583e-06	8.836177e-09	3.061128e+01	5.802638e+02
1.580000e-06	4.525133e-06	8.848915e-09	3.070322e+01	5.811725e+02
1.590000e-06	4.536949e-06	8.866545e-09	3.078339e+01	5.821352e+02
1.600000e-06	4.546832e-06	8.882453e-09	3.085045e+01	5.831126e+02
1.610000e-06	4.554989e-06	8.893525e-09	3.090579e+01	5.839802e+02
1.620000e-06	4.561671e-06	8.901395e-09	3.095113e+01	5.845823e+02
1.630000e-06	4.566878e-06	8.906065e-09	3.098646e+01	5.848209e+02
1.640000e-06	4.570599e-06	8.907980e-09	3.101171e+01	5.847259e+02
1.650000e-06	4.572587e-06	8.908584e-09	3.102520e+01	5.844587e+02
1.660000e-06	4.572912e-06	8.903821e-09	3.102740e+01	5.842342e+02
1.670000e-06	4.571749e-06	8.894117e-09	3.101951e+01	5.842032e+02
1.680000e-06	4.569172e-06	8.892444e-09	3.100202e+01	5.843635e+02
1.690000e-06	4.565278e-06	8.894805e-09	3.097560e+01	5.845585e+02
1.700000e-06	4.559705e-06	8.895589e-09	3.093779e+01	5.845672e+02
1.710000e-06	4.552474e-06	8.893338e-09	3.088873e+01	5.842323e+02
1.720000e-06	4.543952e-06	8.892291e-09	3.083091e+01	5.835458e+02
1.730000e-06	4.534117e-06	8.917633e-09	3.076418e+01	5.826412e+02
1.740000e-06	4.522831e-06	8.916215e-09	3.068760e+01	5.816994e+02
1.750000e-06	4.509697e-06	8.773225e-09	3.059849e+01	5.808339e+02
1.760000e-06	4.494162e-06	8.744002e-09	3.049308e+01	5.800305e+02
1.770000e-06	4.476227e-06	8.750012e-09	3.037139e+01	5.791773e+02
1.780000e-06	4.456761e-06	8.912417e-09	3.023931e+01	5.781586e+02
1.790000e-06	4.436792e-06	8.929539e-09	3.010382e+01	5.769445e+02
1.800000e-06	4.416209e-06	8.561532e-09	2.996416e+01	5.756116e+02
1.810000e-06	4.393593e-06	8.774464e-09	2.981071e+01	5.742853e+02
1.820000e-06	4.368837e-06	8.904151e-09	2.964274e+01	5.730447e+02
1.830000e-06	4.343183e-06	8.531552e-09	2.946868e+01	5.718617e+02
1.840000e-06	4.316122e-06	8.736652e-09	2.928507e+01	5.706151e+02
1.850000e-06	4.286766e-06	8.803509e-09	2.908589e+01	5.691714e+02
1.860000e-06	4.255786e-06	8.386106e-09	2.887569e+01	5.674734e+02
1.870000e-06	4.223549e-06	8.669399e-09	2.865696e+01	5.655747e+02
1.880000e-06	4.189991e-06	8.786470e-09	2.842927e+01	5.635983e+02
1.890000e-06	4.155180e-06	8.442183e-09	2.819307e+01	5.616451e+02
1.900000e-06	4.118619e-06	8.553969e-09	2.794500e+01	5.597180e+02
1.910000e-06	4.080388e-06	8.456863e-09	2.768560e+01	5.577093e+02
1.920000e-06	4.040818e-06	8.445003e-09	2.741712e+01	5.554630e+02
1.930000e-06	3.999702e-06	8.605067e-09	2.713815e+01	5.528687e+02
1.940000e-06	3.957409e-06	8.249179e-09	2.685119e+01	5.499315e+02
1.950000e-06	3.913986e-06	8.275612e-09	2.655656e+01	5.467749e+02
1.960000e-06	3.869038e-06	8.402381e-09	2.625159e+01	5.435776e+02
1.970000e-06	3.822690e-06	8.214293e-09	2.593711e+01	5.404832e+02
1.980000e-06	3.774869e-06	8.227972e-09	2.561264e+01	5.375309e+02
1.990000e-06	3.725648e-06	8.092717e-09	2.527868e+01	5.346416e+02
2.000000e-06	3.675133e-06	8.055232e-09	2.493593e+01	5.316600e+02
2.010000e-06	3.623172e-06	8.092897e-09	2.458337e+01	5.284269e+02
2.020000e-06	3.569781e-06	8.035044e-09	2.422111e+01	5.248470e+02
2.030000e-06	3.514833e-06	7.984579e-09	2.384829e+01	5.209232e+02
2.040000e-06	3.458537e-06	7.777087e-09	2.346632e+01	5.167496e+02
2.050000e-06	3.401105e-06	7.815650e-09	2.307664e+01	5.124673e+02
2.060000e-06	3.342543e-06	7.819471e-09	2.267930e+01	5.082039e+02
2.070000e-06	3.282952e-06	7.650779e-09	2.227497e+01	5.040203e+02
2.080000e-06	3.222002e-06	7.603492e-09	2.186142e+01	4.998848e+02
2.090000e-06	3.159651e-06	7.491431e-09	2.143836e+01	4.956879e+02
2.100000e-06	3.096214e-06	7.530730e-09	2.100794e+01	4.912906e+02
2.110000e-06	3.031730e-06	7.487504e-09	2.057042e+01	4.865865e+02
2.120000e-06	2.966226e-06	7.310267e-09	2.012597e+01	4.815476e+02
2.130000e-06	2.899775e-06	7.242555e-09	1.967509e+01	4.762308e+02
2.140000e-06	2.832457e-06	7.138957e-09	1.921834e+01	4.707438e+02
2.150000e-06	2.763988e-06	7.125943e-09	1.875377e+01	4.651894e+02
2.160000e-06	2.694179e-06	7.023797e-09	1.828012e+01	4.596182e+02
2.170000e-06	2.623268e-06	6.886151e-09	1.779899e+01	4.540138e+02
2.180000e-06	2.551506e-06	6.823458e-09	1.731208e+01	4.483127e+02
2.190000e-06	2.479082e-06	6.752437e-09	1.682068e+01	4.424402e+02
2.200000e-06	2.405799e-06	6.711801e-09	1.632345e+01	4.363398e+02
2.210000e-06	2.331597e-06	6.548072e-09	1.581998e+01	4.299815e+02
2.220000e-06	2.256498e-06	6.415146e-09	1.531044e+01	4.233555e+02
2.230000e-06	2.180460e-06	6.335494e-09	1.479451e+01	4.164634e+02
2.240000e-06	2.103573e-06	6.256653e-09	1.427283e+01	4.093205e+02
2.250000e-06	2.025745e-06	6.162158e-09	1.374476e+01	4.019637e+02
2.260000e-06	1.946952e-06	5.992548e-09	1.321015e+01	3.944504e+02
2.270000e-06	1.867407e-06	5.876712e-09	1.267044e+01	3.868382e+02
2.280000e-06	1.787368e-06	5.786212e-09	1.212737e+01	3.791501e+02
2.290000e-06	1.706808e-06	5.693733e-09	1.158077e+01	3.713466e+02
2.300000e-06	1.625637e-06	5.545557e-09	1.103002e+01	3.633303e+02
2.310000e-06	1.543895e-06	5.375095e-09	1.047539e+01	3.549874e+02
2.320000e-06	1.461633e-06	5.264159e-09	9.917239e+00	3.462461e+02
2.330000e-06	1.378959e-06	5.157566e-09	9.356296e+00	3.371176e+02
2.340000e-06	1.295929e-06	5.022777e-09	8.792932e+00	3.276907e+02
2.350000e-06	1.212575e-06	4.838307e-09	8.227374e+00	3.180809e+02
2.360000e-06	1.128866e-06	4.673899e-09	7.659402e+00	3.083640e+02
2.370000e-06	1.044752e-06	4.550185e-09	7.088686e+00	2.985339e+02
2.380000e-06	9.602382e-07	4.414354e-09	6.515257e+00	2.885095e+02
2.390000e-06	8.753495e-07	4.244161e-09	5.939283e+00	2.781813e+02
2.400000e-06	7.900094e-07	4.057340e-09	5.360247e+00	2.674677e+02
2.410000e-06	7.041366e-07	3.896331e-09	4.777597e+00	2.563438e+02
2.420000e-06	6.179171e-07	3.748109e-09	4.192594e+00	2.448318e+02
2.430000e-06	5.315214e-07	3.572907e-09	3.606395e+00	2.329672e+02
2.440000e-06	4.449369e-07	3.359720e-09	3.018915e+00	2.207700e+02
2.450000e-06	3.581695e-07	3.149693e-09	2.430195e+00	2.082411e+02
2.460000e-06	2.713112e-07	2.969901e-09	1.840858e+00	1.953805e+02
2.470000e-06	1.843555e-07	2.791564e-09	1.250860e+00	1.822053e+02
2.480000e-06	9.734020e-08	2.582253e-09	6.604574e-01	1.687461e+02
2.490000e-06	1.030673e-08	2.351633e-09	6.993160e-02	1.550185e+02
2.500000e-06	-7.674599e-08	2.137657e-09	-5.207248e-01	1.409909e+02
2.510000e-06	-1.637079e-07	1.942918e-09	-1.110765e+00	1.265759e+02
2.520000e-06	-2.505651e-07	1.725206e-09	-1.700095e+00	1.116610e+02
2.530000e-06	-3.373601e-07	1.470933e-09	-2.289003e+00	9.616594e+01
2.540000e-06	-4.240642e-07	1.209757e-09	-2.877293e+00	8.009210e+01
2.550000e-06	-5.106034e-07	9.651190e-10	-3.464465e+00	6.353370e+01
2.560000e-06	-5.969003e-07	7.262564e-10	-4.049994e+00	4.663834e+01
2.570000e-06	-6.829246e-07	4.627770e-10	-4.633673e+00	2.953762e+01
2.580000e-06	-7.685495e-07	1.807469e-10	-5.214641e+00	1.228585e+01
2.590000e-06	-8.536854e-07	-8.855121e-11	-5.792292e+00	-5.158920e+00
2.600000e-06	-9.383829e-07	-3.398234e-10	-6.366968e+00	-2.290125e+01
2.610000e-06	-1.022691e-06	-6.024502e-10	-6.938999e+00	-4.104017e+01
2.620000e-06	-1.106619e-06	-8.969274e-10	-7.508454e+00	-5.960202e+01
2.630000e-06	-1.190161e-06	-1.201026e-09	-8.075290e+00	-7.850726e+01
2.640000e-06	-1.273333e-06	-1.488571e-09	-8.639617e+00	-9.758559e+01
2.650000e-06	-1.356133e-06	-1.766388e-09	-9.201418e+00	-1.166299e+02
2.660000e-06	-1.438554e-06	-2.054710e-09	-9.760651e+00	-1.354621e+02
2.670000e-06	-1.520554e-06	-2.351566e-09	-1.031702e+01	-1.539816e+02
2.680000e-06	-1.602034e-06	-2.634562e-09	-1.086987e+01	-1.721740e+02
2.690000e-06	-1.682900e-06	-2.893513e-09	-1.141855e+01	-1.900813e+02
2.700000e-06	-1.763154e-06	-3.148570e-09	-1.196307e+01	-2.077471e+02
2.710000e-06	-1.842897e-06	-3.419512e-09	-1.250413e+01	-2.251668e+02
2.720000e-06	-1.922191e-06	-3.695962e-09	-1.304215e+01	-2.422671e+02
2.730000e-06	-2.000869e-06	-3.954251e-09	-1.357598e+01	-2.589252e+02
2.740000e-06	-2.078546e-06	-4.190351e-09	-1.410303e+01	-2.750177e+02
2.750000e-06	-2.155052e-06	-4.422414e-09	-1.462212e+01	-2.904698e+02
2.760000e-06	-2.230587e-06	-4.658838e-09	-1.513463e+01	-3.052780e+02
2.770000e-06	-2.305309e-06	-4.883713e-09	-1.564162e+01	-3.194917e+02
2.780000e-06	-2.379210e-06	-5.084466e-09	-1.614304e+01	-3.331670e+02
2.790000e-06	-2.452294e-06	-5.273177e-09	-1.663892e+01	-3.463242e+02
2.800000e-06	-2.524533e-06	-5.466362e-09	-1.712906e+01	-3.589361e+02
2.810000e-06	-2.596038e-06	-5.662193e-09	-1.761423e+01	-3.709577e+02
2.820000e-06	-2.666742e-06	-5.841427e-09	-1.809396e+01	-3.823741e+02
2.830000e-06	-2.736276e-06	-5.998683e-09	-1.856575e+01	-3.932327e+02
2.840000e-06	-2.804570e-06	-6.150261e-09	-1.902913e+01	-4.036306e+02
2.850000e-06	-2.871858e-06	-6.309234e-09	-1.948568e+01	-4.136623e+02
2.860000e-06	-2.938234e-06	-6.467344e-09	-1.993605e+01	-4.233607e+02
2.870000e-06	-3.003635e-06	-6.606589e-09	-2.037979e+01	-4.326724e+02
2.880000e-06	-3.068034e-06	-6.730415e-09	-2.081674e+01	-4.414904e+02
2.890000e-06	-3.131481e-06	-6.854159e-09	-2.124723e+01	-4.497275e+02
2.900000e-06	-3.193880e-06	-6.980277e-09	-2.167061e+01	-4.573859e+02
2.910000e-06	-3.254871e-06	-7.096315e-09	-2.208444e+01	-4.645756e+02
2.920000e-06	-3.314529e-06	-7.195861e-09	-2.248922e+01	-4.714691e+02
2.930000e-06	-3.373176e-06	-7.291578e-09	-2.288714e+01	-4.782145e+02
2.940000e-06	-3.430697e-06	-7.395755e-09	-2.327742e+01	-4.848617e+02
