# Temperatura_=_20.0
# Concentracion g/m^3_=_10000.0
# C_Vs_to_Am_M_A/Vsm_=_65563218390.804596
# pendiente_HvsI_1/m_=_3716.3
# ordenada_HvsI_A/m_=_1297.0
# frecuencia_Hz_=_300948.29593520844

Tiempo_(s)	Campo_(V.s)	Magnetizacion_(V.s)	Campo_(kA/m)	Magnetizacion_(A/m)
0.000000e+00	-4.546870e-06	-8.882438e-09	-3.087805e+01	-5.820306e+02
1.000000e-08	-4.544553e-06	-8.880196e-09	-3.086232e+01	-5.818381e+02
2.000000e-08	-4.540597e-06	-8.878530e-09	-3.083545e+01	-5.816849e+02
3.000000e-08	-4.535303e-06	-8.877794e-09	-3.079951e+01	-5.815215e+02
4.000000e-08	-4.528693e-06	-8.874718e-09	-3.075462e+01	-5.812855e+02
5.000000e-08	-4.520761e-06	-8.867802e-09	-3.070075e+01	-5.809297e+02
6.000000e-08	-4.511348e-06	-8.856652e-09	-3.063682e+01	-5.804271e+02
7.000000e-08	-4.500132e-06	-8.835969e-09	-3.056065e+01	-5.797591e+02
8.000000e-08	-4.487033e-06	-8.835222e-09	-3.047170e+01	-5.789083e+02
9.000000e-08	-4.471729e-06	-8.848999e-09	-3.036777e+01	-5.778673e+02
1.000000e-07	-4.454138e-06	-8.826976e-09	-3.024831e+01	-5.766598e+02
1.100000e-07	-4.434879e-06	-8.797129e-09	-3.011752e+01	-5.753512e+02
1.200000e-07	-4.414554e-06	-8.716699e-09	-2.997949e+01	-5.740358e+02
1.300000e-07	-4.393362e-06	-8.703312e-09	-2.983557e+01	-5.727962e+02
1.400000e-07	-4.370928e-06	-8.793174e-09	-2.968322e+01	-5.716603e+02
1.500000e-07	-4.347081e-06	-8.695043e-09	-2.952127e+01	-5.705812e+02
1.600000e-07	-4.321913e-06	-8.640035e-09	-2.935036e+01	-5.694563e+02
1.700000e-07	-4.294952e-06	-8.720725e-09	-2.916727e+01	-5.681760e+02
1.800000e-07	-4.266198e-06	-8.634803e-09	-2.897200e+01	-5.666745e+02
1.900000e-07	-4.236204e-06	-8.598742e-09	-2.876830e+01	-5.649549e+02
2.000000e-07	-4.204924e-06	-8.653021e-09	-2.855588e+01	-5.630768e+02
2.100000e-07	-4.172086e-06	-8.527159e-09	-2.833288e+01	-5.611185e+02
2.200000e-07	-4.137516e-06	-8.465842e-09	-2.809811e+01	-5.591360e+02
2.300000e-07	-4.101433e-06	-8.511774e-09	-2.785307e+01	-5.571400e+02
2.400000e-07	-4.064082e-06	-8.461347e-09	-2.759941e+01	-5.550961e+02
2.500000e-07	-4.025246e-06	-8.435261e-09	-2.733568e+01	-5.529411e+02
2.600000e-07	-3.984920e-06	-8.369910e-09	-2.706182e+01	-5.506044e+02
2.700000e-07	-3.943237e-06	-8.308265e-09	-2.677875e+01	-5.480279e+02
2.800000e-07	-3.900030e-06	-8.333834e-09	-2.648533e+01	-5.451842e+02
2.900000e-07	-3.855296e-06	-8.269399e-09	-2.618154e+01	-5.420907e+02
3.000000e-07	-3.809140e-06	-8.174480e-09	-2.586809e+01	-5.388153e+02
3.100000e-07	-3.761528e-06	-8.152901e-09	-2.554475e+01	-5.354634e+02
3.200000e-07	-3.712580e-06	-8.110467e-09	-2.521234e+01	-5.321413e+02
3.300000e-07	-3.662137e-06	-8.066525e-09	-2.486978e+01	-5.289086e+02
3.400000e-07	-3.609975e-06	-8.032155e-09	-2.451555e+01	-5.257412e+02
3.500000e-07	-3.556286e-06	-7.953906e-09	-2.415094e+01	-5.225294e+02
3.600000e-07	-3.501295e-06	-7.876237e-09	-2.377750e+01	-5.191192e+02
3.700000e-07	-3.445278e-06	-7.858425e-09	-2.339708e+01	-5.153811e+02
3.800000e-07	-3.388202e-06	-7.819647e-09	-2.300948e+01	-5.112716e+02
3.900000e-07	-3.329613e-06	-7.709105e-09	-2.261159e+01	-5.068547e+02
4.000000e-07	-3.269632e-06	-7.633193e-09	-2.220426e+01	-5.022720e+02
4.100000e-07	-3.208639e-06	-7.585168e-09	-2.179005e+01	-4.976768e+02
4.200000e-07	-3.146611e-06	-7.528207e-09	-2.136882e+01	-4.931653e+02
4.300000e-07	-3.083452e-06	-7.460151e-09	-2.093990e+01	-4.887381e+02
4.400000e-07	-3.019265e-06	-7.366155e-09	-2.050400e+01	-4.843050e+02
4.500000e-07	-2.954080e-06	-7.296050e-09	-2.006133e+01	-4.797273e+02
4.600000e-07	-2.887551e-06	-7.244830e-09	-1.960952e+01	-4.748728e+02
4.700000e-07	-2.819766e-06	-7.169126e-09	-1.914919e+01	-4.696629e+02
4.800000e-07	-2.751185e-06	-7.068366e-09	-1.868346e+01	-4.640967e+02
4.900000e-07	-2.681774e-06	-6.965423e-09	-1.821208e+01	-4.582476e+02
5.000000e-07	-2.611422e-06	-6.881934e-09	-1.773431e+01	-4.522364e+02
5.100000e-07	-2.540202e-06	-6.810058e-09	-1.725066e+01	-4.461860e+02
5.200000e-07	-2.468163e-06	-6.722474e-09	-1.676144e+01	-4.401725e+02
5.300000e-07	-2.395276e-06	-6.612237e-09	-1.626645e+01	-4.341884e+02
5.400000e-07	-2.321234e-06	-6.511040e-09	-1.576363e+01	-4.281383e+02
5.500000e-07	-2.245969e-06	-6.431987e-09	-1.525251e+01	-4.218732e+02
5.600000e-07	-2.169847e-06	-6.338734e-09	-1.473556e+01	-4.152556e+02
5.700000e-07	-2.092938e-06	-6.218327e-09	-1.421327e+01	-4.082245e+02
5.800000e-07	-2.015178e-06	-6.093397e-09	-1.368519e+01	-4.008252e+02
5.900000e-07	-1.936725e-06	-5.984425e-09	-1.315241e+01	-3.931851e+02
6.000000e-07	-1.857622e-06	-5.888709e-09	-1.261522e+01	-3.854443e+02
6.100000e-07	-1.777628e-06	-5.774263e-09	-1.207197e+01	-3.776798e+02
6.200000e-07	-1.696650e-06	-5.638571e-09	-1.152205e+01	-3.698664e+02
6.300000e-07	-1.615036e-06	-5.506788e-09	-1.096780e+01	-3.618949e+02
6.400000e-07	-1.533006e-06	-5.390262e-09	-1.041073e+01	-3.536379e+02
6.500000e-07	-1.450595e-06	-5.269596e-09	-9.851075e+00	-3.450187e+02
6.600000e-07	-1.367736e-06	-5.126710e-09	-9.288372e+00	-3.360444e+02
6.700000e-07	-1.284271e-06	-4.975804e-09	-8.721561e+00	-3.267840e+02
6.800000e-07	-1.200311e-06	-4.835577e-09	-8.151382e+00	-3.173119e+02
6.900000e-07	-1.116114e-06	-4.703056e-09	-7.579595e+00	-3.076554e+02
7.000000e-07	-1.031787e-06	-4.553953e-09	-7.006927e+00	-2.977812e+02
7.100000e-07	-9.472266e-07	-4.383623e-09	-6.432670e+00	-2.876246e+02
7.200000e-07	-8.623685e-07	-4.213977e-09	-5.856394e+00	-2.771377e+02
7.300000e-07	-7.772143e-07	-4.057869e-09	-5.278107e+00	-2.663202e+02
7.400000e-07	-6.917815e-07	-3.901633e-09	-4.697928e+00	-2.552116e+02
7.500000e-07	-6.060889e-07	-3.728284e-09	-4.115985e+00	-2.438521e+02
7.600000e-07	-5.201585e-07	-3.540952e-09	-3.532426e+00	-2.322429e+02
7.700000e-07	-4.340449e-07	-3.356551e-09	-2.947624e+00	-2.203335e+02
7.800000e-07	-3.478481e-07	-3.177830e-09	-2.362257e+00	-2.080474e+02
7.900000e-07	-2.616018e-07	-2.987588e-09	-1.776553e+00	-1.953265e+02
8.000000e-07	-1.752501e-07	-2.778827e-09	-1.190133e+00	-1.821663e+02
8.100000e-07	-8.880680e-08	-2.563240e-09	-6.030921e-01	-1.686161e+02
8.200000e-07	-2.330594e-09	-2.356053e-09	-1.582720e-02	-1.547465e+02
8.300000e-07	8.416747e-08	-2.150687e-09	5.715861e-01	-1.406038e+02
8.400000e-07	1.706805e-07	-1.930754e-09	1.159101e+00	-1.261803e+02
8.500000e-07	2.571375e-07	-1.695522e-09	1.746236e+00	-1.114160e+02
8.600000e-07	3.435122e-07	-1.458243e-09	2.332811e+00	-9.622828e+01
8.700000e-07	4.297533e-07	-1.225669e-09	2.918480e+00	-8.055192e+01
8.800000e-07	5.158869e-07	-9.848239e-10	3.503418e+00	-6.436732e+01
8.900000e-07	6.019153e-07	-7.270899e-10	4.087642e+00	-4.770561e+01
9.000000e-07	6.876857e-07	-4.607659e-10	4.670113e+00	-3.063288e+01
9.100000e-07	7.731277e-07	-1.966141e-10	5.250355e+00	-1.322474e+01
9.200000e-07	8.582685e-07	6.815770e-11	5.828551e+00	4.455616e+00
9.300000e-07	9.431127e-07	3.435292e-10	6.404733e+00	2.236788e+01
9.400000e-07	1.027684e-06	6.294427e-10	6.979062e+00	4.049212e+01
9.500000e-07	1.112049e-06	9.126104e-10	7.551991e+00	5.881696e+01
9.600000e-07	1.196184e-06	1.186162e-09	8.123353e+00	7.732450e+01
9.700000e-07	1.279995e-06	1.462717e-09	8.692523e+00	9.597819e+01
9.800000e-07	1.363394e-06	1.752105e-09	9.258889e+00	1.147182e+02
9.900000e-07	1.446238e-06	2.047494e-09	9.821487e+00	1.334650e+02
1.000000e-06	1.528426e-06	2.334210e-09	1.037963e+01	1.521290e+02
1.010000e-06	1.610061e-06	2.610904e-09	1.093402e+01	1.706191e+02
1.020000e-06	1.691203e-06	2.888965e-09	1.148506e+01	1.888478e+02
1.030000e-06	1.771759e-06	3.168552e-09	1.203212e+01	2.067310e+02
1.040000e-06	1.851598e-06	3.437471e-09	1.257431e+01	2.241896e+02
1.050000e-06	1.930641e-06	3.690116e-09	1.311109e+01	2.411574e+02
1.060000e-06	2.009011e-06	3.933368e-09	1.364331e+01	2.575945e+02
1.070000e-06	2.086794e-06	4.175873e-09	1.417154e+01	2.734997e+02
1.080000e-06	2.163827e-06	4.416210e-09	1.469468e+01	2.889076e+02
1.090000e-06	2.239994e-06	4.646812e-09	1.521193e+01	3.038641e+02
1.100000e-06	2.315205e-06	4.865572e-09	1.572269e+01	3.183895e+02
1.110000e-06	2.389276e-06	5.078315e-09	1.622571e+01	3.324492e+02
1.120000e-06	2.462244e-06	5.288012e-09	1.672124e+01	3.459539e+02
1.130000e-06	2.534398e-06	5.487456e-09	1.721124e+01	3.587977e+02
1.140000e-06	2.605762e-06	5.669033e-09	1.769588e+01	3.709166e+02
1.150000e-06	2.676244e-06	5.836519e-09	1.817453e+01	3.823346e+02
1.160000e-06	2.745799e-06	6.000986e-09	1.864688e+01	3.931659e+02
1.170000e-06	2.814480e-06	6.164889e-09	1.911330e+01	4.035674e+02
1.180000e-06	2.882394e-06	6.321396e-09	1.957450e+01	4.136642e+02
1.190000e-06	2.949154e-06	6.469063e-09	2.002788e+01	4.234911e+02
1.200000e-06	3.014505e-06	6.612515e-09	2.047168e+01	4.329828e+02
1.210000e-06	3.078761e-06	6.752920e-09	2.090804e+01	4.420198e+02
1.220000e-06	3.142058e-06	6.885915e-09	2.133789e+01	4.505009e+02
1.230000e-06	3.204337e-06	7.005678e-09	2.176084e+01	4.584011e+02
1.240000e-06	3.265610e-06	7.112420e-09	2.217695e+01	4.657841e+02
1.250000e-06	3.325937e-06	7.215395e-09	2.258663e+01	4.727667e+02
1.260000e-06	3.385103e-06	7.321325e-09	2.298843e+01	4.794631e+02
1.270000e-06	3.442750e-06	7.423889e-09	2.337991e+01	4.859414e+02
1.280000e-06	3.499058e-06	7.518446e-09	2.376230e+01	4.922146e+02
1.290000e-06	3.554240e-06	7.608886e-09	2.413705e+01	4.982602e+02
1.300000e-06	3.608229e-06	7.699365e-09	2.450369e+01	5.040486e+02
1.310000e-06	3.660902e-06	7.787327e-09	2.486140e+01	5.095589e+02
1.320000e-06	3.711948e-06	7.867319e-09	2.520806e+01	5.147778e+02
1.330000e-06	3.761279e-06	7.938381e-09	2.554306e+01	5.196919e+02
1.340000e-06	3.809203e-06	8.004407e-09	2.586851e+01	5.242885e+02
1.350000e-06	3.855791e-06	8.068845e-09	2.618490e+01	5.285688e+02
1.360000e-06	3.901080e-06	8.130195e-09	2.649246e+01	5.325656e+02
1.370000e-06	3.945217e-06	8.186638e-09	2.679220e+01	5.363466e+02
1.380000e-06	3.987882e-06	8.240370e-09	2.708193e+01	5.399962e+02
1.390000e-06	4.028924e-06	8.296251e-09	2.736066e+01	5.435805e+02
1.400000e-06	4.068594e-06	8.353354e-09	2.763006e+01	5.471157e+02
1.410000e-06	4.106923e-06	8.406099e-09	2.789035e+01	5.505580e+02
1.420000e-06	4.143948e-06	8.452277e-09	2.814179e+01	5.538231e+02
1.430000e-06	4.179587e-06	8.493935e-09	2.838382e+01	5.568241e+02
1.440000e-06	4.213537e-06	8.534552e-09	2.861437e+01	5.595100e+02
1.450000e-06	4.245935e-06	8.572915e-09	2.883439e+01	5.618875e+02
1.460000e-06	4.276934e-06	8.606728e-09	2.904490e+01	5.640198e+02
1.470000e-06	4.306511e-06	8.637007e-09	2.924577e+01	5.660044e+02
1.480000e-06	4.334747e-06	8.666978e-09	2.943751e+01	5.679412e+02
1.490000e-06	4.361288e-06	8.698847e-09	2.961776e+01	5.698992e+02
1.500000e-06	4.386051e-06	8.730758e-09	2.978593e+01	5.718901e+02
1.510000e-06	4.409333e-06	8.758793e-09	2.994403e+01	5.738598e+02
1.520000e-06	4.431193e-06	8.782344e-09	3.009249e+01	5.757023e+02
1.530000e-06	4.451724e-06	8.804004e-09	3.023191e+01	5.773003e+02
1.540000e-06	4.470774e-06	8.824249e-09	3.036129e+01	5.785770e+02
1.550000e-06	4.488072e-06	8.841562e-09	3.047876e+01	5.795392e+02
1.560000e-06	4.503673e-06	8.853518e-09	3.058470e+01	5.802840e+02
1.570000e-06	4.517671e-06	8.863050e-09	3.067976e+01	5.809603e+02
1.580000e-06	4.529964e-06	8.876474e-09	3.076325e+01	5.816990e+02
1.590000e-06	4.540359e-06	8.892555e-09	3.083384e+01	5.825470e+02
1.600000e-06	4.548995e-06	8.906064e-09	3.089249e+01	5.834421e+02
1.610000e-06	4.556099e-06	8.915129e-09	3.094073e+01	5.842456e+02
1.620000e-06	4.561677e-06	8.921363e-09	3.097861e+01	5.848156e+02
1.630000e-06	4.565791e-06	8.927500e-09	3.100655e+01	5.850793e+02
1.640000e-06	4.568206e-06	8.932235e-09	3.102295e+01	5.850651e+02
1.650000e-06	4.568861e-06	8.929900e-09	3.102740e+01	5.848797e+02
1.660000e-06	4.568068e-06	8.921394e-09	3.102201e+01	5.846465e+02
1.670000e-06	4.565855e-06	8.914455e-09	3.100699e+01	5.844458e+02
1.680000e-06	4.562301e-06	8.911812e-09	3.098285e+01	5.842883e+02
1.690000e-06	4.557223e-06	8.908875e-09	3.094836e+01	5.841293e+02
1.700000e-06	4.550421e-06	8.902886e-09	3.090217e+01	5.839061e+02
1.710000e-06	4.542185e-06	8.895814e-09	3.084624e+01	5.835685e+02
1.720000e-06	4.532651e-06	8.896728e-09	3.078149e+01	5.830871e+02
1.730000e-06	4.521777e-06	8.907821e-09	3.070765e+01	5.824428e+02
1.740000e-06	4.509284e-06	8.862250e-09	3.062280e+01	5.816180e+02
1.750000e-06	4.494515e-06	8.820956e-09	3.052251e+01	5.806028e+02
1.760000e-06	4.477232e-06	8.799661e-09	3.040514e+01	5.794150e+02
1.770000e-06	4.458085e-06	8.819128e-09	3.027511e+01	5.781145e+02
1.780000e-06	4.438185e-06	8.866277e-09	3.013997e+01	5.767932e+02
1.790000e-06	4.417913e-06	8.740334e-09	3.000230e+01	5.755384e+02
1.800000e-06	4.395978e-06	8.703986e-09	2.985334e+01	5.743878e+02
1.810000e-06	4.371747e-06	8.809546e-09	2.968878e+01	5.733050e+02
1.820000e-06	4.346353e-06	8.701368e-09	2.951633e+01	5.721929e+02
1.830000e-06	4.319789e-06	8.674473e-09	2.933594e+01	5.709393e+02
1.840000e-06	4.291120e-06	8.752195e-09	2.914124e+01	5.694699e+02
1.850000e-06	4.260634e-06	8.588399e-09	2.893421e+01	5.677777e+02
1.860000e-06	4.228782e-06	8.569206e-09	2.871790e+01	5.659164e+02
1.870000e-06	4.195587e-06	8.684834e-09	2.849247e+01	5.639643e+02
1.880000e-06	4.161134e-06	8.563777e-09	2.825850e+01	5.619825e+02
1.890000e-06	4.125071e-06	8.521618e-09	2.801360e+01	5.599887e+02
1.900000e-06	4.087219e-06	8.511374e-09	2.775654e+01	5.579541e+02
1.910000e-06	4.047926e-06	8.444662e-09	2.748970e+01	5.558183e+02
1.920000e-06	4.007176e-06	8.510433e-09	2.721296e+01	5.535106e+02
1.930000e-06	3.965217e-06	8.397471e-09	2.692802e+01	5.509700e+02
1.940000e-06	3.922231e-06	8.295595e-09	2.663610e+01	5.481636e+02
1.950000e-06	3.877760e-06	8.359684e-09	2.633409e+01	5.451017e+02
1.960000e-06	3.831790e-06	8.270070e-09	2.602191e+01	5.418455e+02
1.970000e-06	3.784398e-06	8.205696e-09	2.570006e+01	5.384965e+02
1.980000e-06	3.735584e-06	8.163414e-09	2.536857e+01	5.351639e+02
1.990000e-06	3.685501e-06	8.071553e-09	2.502845e+01	5.319168e+02
2.000000e-06	3.634054e-06	8.061515e-09	2.467907e+01	5.287441e+02
2.010000e-06	3.581155e-06	8.032203e-09	2.431983e+01	5.255467e+02
2.020000e-06	3.526678e-06	7.978949e-09	2.394987e+01	5.221731e+02
2.030000e-06	3.470764e-06	7.882166e-09	2.357015e+01	5.184861e+02
2.040000e-06	3.413659e-06	7.818615e-09	2.318235e+01	5.144272e+02
2.050000e-06	3.355381e-06	7.810774e-09	2.278658e+01	5.100457e+02
2.060000e-06	3.296108e-06	7.706735e-09	2.238406e+01	5.054757e+02
2.070000e-06	3.235652e-06	7.622954e-09	2.197350e+01	5.008735e+02
2.080000e-06	3.173717e-06	7.547822e-09	2.155289e+01	4.963467e+02
2.090000e-06	3.110559e-06	7.493447e-09	2.112398e+01	4.919102e+02
2.100000e-06	3.046394e-06	7.464042e-09	2.068824e+01	4.874849e+02
2.110000e-06	2.981255e-06	7.354575e-09	2.024587e+01	4.829357e+02
2.120000e-06	2.915111e-06	7.279441e-09	1.979668e+01	4.781262e+02
2.130000e-06	2.848053e-06	7.202661e-09	1.934129e+01	4.729680e+02
2.140000e-06	2.780102e-06	7.129493e-09	1.887983e+01	4.674488e+02
2.150000e-06	2.710831e-06	7.058136e-09	1.840941e+01	4.616324e+02
2.160000e-06	2.640259e-06	6.933785e-09	1.793015e+01	4.556354e+02
2.170000e-06	2.568836e-06	6.837649e-09	1.744511e+01	4.495834e+02
2.180000e-06	2.496639e-06	6.751484e-09	1.695482e+01	4.435618e+02
2.190000e-06	2.423584e-06	6.681397e-09	1.645870e+01	4.375766e+02
2.200000e-06	2.349702e-06	6.584757e-09	1.595696e+01	4.315434e+02
2.210000e-06	2.274922e-06	6.466202e-09	1.544913e+01	4.253175e+02
2.220000e-06	2.199259e-06	6.378879e-09	1.493529e+01	4.187553e+02
2.230000e-06	2.122737e-06	6.285405e-09	1.441563e+01	4.117820e+02
2.240000e-06	2.045114e-06	6.180644e-09	1.388849e+01	4.044279e+02
2.250000e-06	1.966427e-06	6.042541e-09	1.335412e+01	3.968120e+02
2.260000e-06	1.887092e-06	5.906442e-09	1.281535e+01	3.890777e+02
2.270000e-06	1.807329e-06	5.798909e-09	1.227368e+01	3.813148e+02
2.280000e-06	1.727038e-06	5.694880e-09	1.172842e+01	3.735126e+02
2.290000e-06	1.646130e-06	5.577630e-09	1.117897e+01	3.655710e+02
2.300000e-06	1.564658e-06	5.436858e-09	1.062568e+01	3.573602e+02
2.310000e-06	1.482573e-06	5.306481e-09	1.006824e+01	3.487933e+02
2.320000e-06	1.399940e-06	5.182185e-09	9.507076e+00	3.398655e+02
2.330000e-06	1.316966e-06	5.043030e-09	8.943595e+00	3.306399e+02
2.340000e-06	1.233736e-06	4.884708e-09	8.378370e+00	3.211939e+02
2.350000e-06	1.150248e-06	4.722678e-09	7.811403e+00	3.115635e+02
2.360000e-06	1.066490e-06	4.582374e-09	7.242597e+00	3.017232e+02
2.370000e-06	9.823994e-07	4.441962e-09	6.671531e+00	2.916097e+02
2.380000e-06	8.978320e-07	4.285072e-09	6.097229e+00	2.811703e+02
2.390000e-06	8.127420e-07	4.112897e-09	5.519378e+00	2.703972e+02
2.400000e-06	7.270521e-07	3.939595e-09	4.937453e+00	2.593262e+02
2.410000e-06	6.408632e-07	3.773585e-09	4.352139e+00	2.480003e+02
2.420000e-06	5.544625e-07	3.600629e-09	3.765387e+00	2.364278e+02
2.430000e-06	4.678634e-07	3.412738e-09	3.177287e+00	2.245649e+02
2.440000e-06	3.810832e-07	3.216549e-09	2.587958e+00	2.123360e+02
2.450000e-06	2.942313e-07	3.026778e-09	1.998141e+00	1.996780e+02
2.460000e-06	2.072890e-07	2.837253e-09	1.407711e+00	1.865776e+02
2.470000e-06	1.202618e-07	2.634064e-09	8.167047e-01	1.730778e+02
2.480000e-06	3.320063e-08	2.414624e-09	2.254674e-01	1.592490e+02
2.490000e-06	-5.387364e-08	2.193832e-09	-3.658590e-01	1.451433e+02
2.500000e-06	-1.408971e-07	1.982971e-09	-9.568404e-01	1.307617e+02
2.510000e-06	-2.278617e-07	1.767163e-09	-1.547422e+00	1.160501e+02
2.520000e-06	-3.147678e-07	1.533536e-09	-2.137606e+00	1.009266e+02
2.530000e-06	-4.015422e-07	1.287933e-09	-2.726896e+00	8.532155e+01
2.540000e-06	-4.881339e-07	1.042579e-09	-3.314945e+00	6.920775e+01
2.550000e-06	-5.744665e-07	7.963078e-10	-3.901235e+00	5.260973e+01
2.560000e-06	-6.604769e-07	5.388175e-10	-4.485337e+00	3.559005e+01
2.570000e-06	-7.461749e-07	2.683752e-10	-5.067316e+00	1.822450e+01
2.580000e-06	-8.314808e-07	-4.528911e-12	-5.646634e+00	5.790221e-01
2.590000e-06	-9.162559e-07	-2.703304e-10	-6.222347e+00	-1.730269e+01
2.600000e-06	-1.000539e-06	-5.365106e-10	-6.794721e+00	-3.539836e+01
2.610000e-06	-1.084417e-06	-8.159509e-10	-7.364340e+00	-5.369632e+01
2.620000e-06	-1.167954e-06	-1.105836e-09	-7.931645e+00	-7.218045e+01
2.630000e-06	-1.251216e-06	-1.392172e-09	-8.497083e+00	-9.081738e+01
2.640000e-06	-1.334167e-06	-1.672580e-09	-9.060403e+00	-1.095505e+02
2.650000e-06	-1.416676e-06	-1.956363e-09	-9.620730e+00	-1.283027e+02
2.660000e-06	-1.498689e-06	-2.245382e-09	-1.017769e+01	-1.469851e+02
2.670000e-06	-1.580225e-06	-2.529543e-09	-1.073140e+01	-1.655065e+02
2.680000e-06	-1.661216e-06	-2.802303e-09	-1.128141e+01	-1.837787e+02
2.690000e-06	-1.741594e-06	-3.069737e-09	-1.182726e+01	-2.017173e+02
2.700000e-06	-1.821399e-06	-3.337944e-09	-1.236923e+01	-2.192421e+02
2.710000e-06	-1.900757e-06	-3.604029e-09	-1.290815e+01	-2.362841e+02
2.720000e-06	-1.979564e-06	-3.859557e-09	-1.344333e+01	-2.527991e+02
2.730000e-06	-2.057392e-06	-4.101165e-09	-1.397187e+01	-2.687798e+02
2.740000e-06	-2.134026e-06	-4.335172e-09	-1.449230e+01	-2.842568e+02
2.750000e-06	-2.209679e-06	-4.566399e-09	-1.500606e+01	-2.992765e+02
2.760000e-06	-2.284564e-06	-4.792174e-09	-1.551460e+01	-3.138652e+02
2.770000e-06	-2.358615e-06	-5.006533e-09	-1.601749e+01	-3.279969e+02
2.780000e-06	-2.431841e-06	-5.209469e-09	-1.651477e+01	-3.415885e+02
2.790000e-06	-2.504265e-06	-5.405627e-09	-1.700661e+01	-3.545332e+02
2.800000e-06	-2.575905e-06	-5.596427e-09	-1.749312e+01	-3.667575e+02
2.810000e-06	-2.646803e-06	-5.777122e-09	-1.797459e+01	-3.782715e+02
2.820000e-06	-2.716573e-06	-5.942353e-09	-1.844840e+01	-3.891782e+02
2.830000e-06	-2.785004e-06	-6.097497e-09	-1.891313e+01	-3.996328e+02
2.840000e-06	-2.852435e-06	-6.251184e-09	-1.937105e+01	-4.097695e+02
2.850000e-06	-2.919009e-06	-6.405387e-09	-1.982316e+01	-4.196379e+02
2.860000e-06	-2.984606e-06	-6.551756e-09	-2.026863e+01	-4.291853e+02
2.870000e-06	-3.049208e-06	-6.686398e-09	-2.070735e+01	-4.382956e+02
2.880000e-06	-3.112925e-06	-6.813069e-09	-2.114005e+01	-4.468608e+02
2.890000e-06	-3.175655e-06	-6.936196e-09	-2.156606e+01	-4.548429e+02
2.900000e-06	-3.236926e-06	-7.054932e-09	-2.198215e+01	-4.622943e+02
2.910000e-06	-3.296824e-06	-7.163126e-09	-2.238892e+01	-4.693274e+02
2.920000e-06	-3.355757e-06	-7.263282e-09	-2.278914e+01	-4.760602e+02
2.930000e-06	-3.413569e-06	-7.361153e-09	-2.318174e+01	-4.825686e+02
2.940000e-06	-3.470130e-06	-7.457548e-09	-2.356585e+01	-4.888730e+02
