# Temperatura_=_20.0
# Concentracion g/m^3_=_10000.0
# C_Vs_to_Am_M_A/Vsm_=_65563218390.804596
# pendiente_HvsI_1/m_=_3716.3
# ordenada_HvsI_A/m_=_1297.0
# frecuencia_Hz_=_81139.83707049466

Tiempo_(s)	Campo_(V.s)	Magnetizacion_(V.s)	Campo_(kA/m)	Magnetizacion_(A/m)
0.000000e+00	-2.075081e-06	-4.347018e-09	-1.577769e+01	-2.919000e+02
1.000000e-08	-2.075043e-06	-4.342326e-09	-1.577740e+01	-2.920193e+02
2.000000e-08	-2.075019e-06	-4.371705e-09	-1.577722e+01	-2.921359e+02
3.000000e-08	-2.074960e-06	-4.530644e-09	-1.577677e+01	-2.922506e+02
4.000000e-08	-2.074810e-06	-4.652726e-09	-1.577563e+01	-2.923641e+02
5.000000e-08	-2.074566e-06	-4.436400e-09	-1.577378e+01	-2.924769e+02
6.000000e-08	-2.074252e-06	-4.279124e-09	-1.577139e+01	-2.925891e+02
7.000000e-08	-2.073915e-06	-4.366055e-09	-1.576882e+01	-2.927009e+02
8.000000e-08	-2.073540e-06	-4.479040e-09	-1.576598e+01	-2.928119e+02
9.000000e-08	-2.073089e-06	-4.377505e-09	-1.576254e+01	-2.929217e+02
1.000000e-07	-2.072610e-06	-4.361061e-09	-1.575891e+01	-2.930297e+02
1.100000e-07	-2.072122e-06	-4.525596e-09	-1.575519e+01	-2.931349e+02
1.200000e-07	-2.071552e-06	-4.559610e-09	-1.575086e+01	-2.932363e+02
1.300000e-07	-2.070886e-06	-4.495961e-09	-1.574580e+01	-2.933327e+02
1.400000e-07	-2.070165e-06	-4.332476e-09	-1.574031e+01	-2.934227e+02
1.500000e-07	-2.069428e-06	-4.310598e-09	-1.573471e+01	-2.935050e+02
1.600000e-07	-2.068628e-06	-4.387149e-09	-1.572863e+01	-2.935783e+02
1.700000e-07	-2.067738e-06	-4.473058e-09	-1.572186e+01	-2.936410e+02
1.800000e-07	-2.066812e-06	-4.522279e-09	-1.571482e+01	-2.936922e+02
1.900000e-07	-2.065841e-06	-4.421034e-09	-1.570743e+01	-2.937304e+02
2.000000e-07	-2.064831e-06	-4.416466e-09	-1.569976e+01	-2.937549e+02
2.100000e-07	-2.063759e-06	-4.395900e-09	-1.569160e+01	-2.937649e+02
2.200000e-07	-2.062613e-06	-4.428893e-09	-1.568289e+01	-2.937597e+02
2.300000e-07	-2.061407e-06	-4.426721e-09	-1.567372e+01	-2.937391e+02
2.400000e-07	-2.060140e-06	-4.402894e-09	-1.566409e+01	-2.937030e+02
2.500000e-07	-2.058811e-06	-4.456465e-09	-1.565398e+01	-2.936516e+02
2.600000e-07	-2.057413e-06	-4.443942e-09	-1.564336e+01	-2.935852e+02
2.700000e-07	-2.055973e-06	-4.458143e-09	-1.563241e+01	-2.935045e+02
2.800000e-07	-2.054479e-06	-4.388002e-09	-1.562104e+01	-2.934102e+02
2.900000e-07	-2.052910e-06	-4.359077e-09	-1.560912e+01	-2.933033e+02
3.000000e-07	-2.051269e-06	-4.380461e-09	-1.559664e+01	-2.931848e+02
3.100000e-07	-2.049588e-06	-4.411590e-09	-1.558386e+01	-2.930557e+02
3.200000e-07	-2.047850e-06	-4.463326e-09	-1.557065e+01	-2.929172e+02
3.300000e-07	-2.046030e-06	-4.417619e-09	-1.555681e+01	-2.927704e+02
3.400000e-07	-2.044160e-06	-4.414747e-09	-1.554259e+01	-2.926163e+02
3.500000e-07	-2.042248e-06	-4.391830e-09	-1.552805e+01	-2.924559e+02
3.600000e-07	-2.040284e-06	-4.398374e-09	-1.551312e+01	-2.922900e+02
3.700000e-07	-2.038259e-06	-4.402237e-09	-1.549772e+01	-2.921193e+02
3.800000e-07	-2.036194e-06	-4.376638e-09	-1.548202e+01	-2.919444e+02
3.900000e-07	-2.034100e-06	-4.399777e-09	-1.546610e+01	-2.917656e+02
4.000000e-07	-2.031953e-06	-4.386340e-09	-1.544977e+01	-2.915832e+02
4.100000e-07	-2.029757e-06	-4.411966e-09	-1.543308e+01	-2.913972e+02
4.200000e-07	-2.027520e-06	-4.389486e-09	-1.541606e+01	-2.912076e+02
4.300000e-07	-2.025226e-06	-4.369336e-09	-1.539862e+01	-2.910143e+02
4.400000e-07	-2.022868e-06	-4.369952e-09	-1.538069e+01	-2.908169e+02
4.500000e-07	-2.020468e-06	-4.362641e-09	-1.536245e+01	-2.906152e+02
4.600000e-07	-2.018038e-06	-4.381355e-09	-1.534397e+01	-2.904087e+02
4.700000e-07	-2.015544e-06	-4.340681e-09	-1.532500e+01	-2.901972e+02
4.800000e-07	-2.012974e-06	-4.338406e-09	-1.530547e+01	-2.899802e+02
4.900000e-07	-2.010374e-06	-4.343054e-09	-1.528570e+01	-2.897575e+02
5.000000e-07	-2.007737e-06	-4.365181e-09	-1.526565e+01	-2.895287e+02
5.100000e-07	-2.005028e-06	-4.373359e-09	-1.524505e+01	-2.892938e+02
5.200000e-07	-2.002256e-06	-4.338069e-09	-1.522398e+01	-2.890526e+02
5.300000e-07	-1.999432e-06	-4.342223e-09	-1.520250e+01	-2.888052e+02
5.400000e-07	-1.996548e-06	-4.334670e-09	-1.518057e+01	-2.885517e+02
5.500000e-07	-1.993608e-06	-4.346141e-09	-1.515822e+01	-2.882923e+02
5.600000e-07	-1.990624e-06	-4.318881e-09	-1.513553e+01	-2.880273e+02
5.700000e-07	-1.987601e-06	-4.297334e-09	-1.511255e+01	-2.877570e+02
5.800000e-07	-1.984523e-06	-4.314053e-09	-1.508914e+01	-2.874818e+02
5.900000e-07	-1.981390e-06	-4.316581e-09	-1.506532e+01	-2.872023e+02
6.000000e-07	-1.978216e-06	-4.316085e-09	-1.504119e+01	-2.869189e+02
6.100000e-07	-1.974996e-06	-4.275818e-09	-1.501670e+01	-2.866321e+02
6.200000e-07	-1.971746e-06	-4.276434e-09	-1.499200e+01	-2.863423e+02
6.300000e-07	-1.968450e-06	-4.287870e-09	-1.496693e+01	-2.860502e+02
6.400000e-07	-1.965081e-06	-4.288201e-09	-1.494132e+01	-2.857559e+02
6.500000e-07	-1.961664e-06	-4.277834e-09	-1.491533e+01	-2.854601e+02
6.600000e-07	-1.958207e-06	-4.257569e-09	-1.488905e+01	-2.851628e+02
6.700000e-07	-1.954672e-06	-4.276767e-09	-1.486218e+01	-2.848644e+02
6.800000e-07	-1.951064e-06	-4.268374e-09	-1.483474e+01	-2.845649e+02
6.900000e-07	-1.947420e-06	-4.251586e-09	-1.480703e+01	-2.842645e+02
7.000000e-07	-1.943729e-06	-4.234439e-09	-1.477897e+01	-2.839630e+02
7.100000e-07	-1.939979e-06	-4.242152e-09	-1.475046e+01	-2.836603e+02
7.200000e-07	-1.936189e-06	-4.261045e-09	-1.472164e+01	-2.833562e+02
7.300000e-07	-1.932358e-06	-4.243808e-09	-1.469251e+01	-2.830502e+02
7.400000e-07	-1.928479e-06	-4.232019e-09	-1.466302e+01	-2.827420e+02
7.500000e-07	-1.924551e-06	-4.217315e-09	-1.463315e+01	-2.824309e+02
7.600000e-07	-1.920571e-06	-4.227262e-09	-1.460289e+01	-2.821163e+02
7.700000e-07	-1.916546e-06	-4.223275e-09	-1.457228e+01	-2.817975e+02
7.800000e-07	-1.912473e-06	-4.200037e-09	-1.454131e+01	-2.814735e+02
7.900000e-07	-1.908358e-06	-4.192133e-09	-1.451003e+01	-2.811434e+02
8.000000e-07	-1.904194e-06	-4.191806e-09	-1.447837e+01	-2.808063e+02
8.100000e-07	-1.899981e-06	-4.208923e-09	-1.444634e+01	-2.804612e+02
8.200000e-07	-1.895715e-06	-4.195116e-09	-1.441390e+01	-2.801068e+02
8.300000e-07	-1.891393e-06	-4.180627e-09	-1.438104e+01	-2.797422e+02
8.400000e-07	-1.887015e-06	-4.175354e-09	-1.434775e+01	-2.793662e+02
8.500000e-07	-1.882569e-06	-4.173972e-09	-1.431394e+01	-2.789779e+02
8.600000e-07	-1.878070e-06	-4.169704e-09	-1.427974e+01	-2.785762e+02
8.700000e-07	-1.873528e-06	-4.143401e-09	-1.424520e+01	-2.781602e+02
8.800000e-07	-1.868947e-06	-4.138382e-09	-1.421037e+01	-2.777292e+02
8.900000e-07	-1.864331e-06	-4.139918e-09	-1.417527e+01	-2.772827e+02
9.000000e-07	-1.859660e-06	-4.140278e-09	-1.413976e+01	-2.768201e+02
9.100000e-07	-1.854935e-06	-4.120709e-09	-1.410383e+01	-2.763413e+02
9.200000e-07	-1.850173e-06	-4.102690e-09	-1.406762e+01	-2.758462e+02
9.300000e-07	-1.845365e-06	-4.109445e-09	-1.403107e+01	-2.753352e+02
9.400000e-07	-1.840514e-06	-4.106382e-09	-1.399418e+01	-2.748086e+02
9.500000e-07	-1.835626e-06	-4.099399e-09	-1.395702e+01	-2.742673e+02
9.600000e-07	-1.830672e-06	-4.080751e-09	-1.391935e+01	-2.737121e+02
9.700000e-07	-1.825651e-06	-4.073935e-09	-1.388117e+01	-2.731442e+02
9.800000e-07	-1.820578e-06	-4.070945e-09	-1.384260e+01	-2.725649e+02
9.900000e-07	-1.815446e-06	-4.055218e-09	-1.380358e+01	-2.719757e+02
1.000000e-06	-1.810251e-06	-4.042394e-09	-1.376408e+01	-2.713781e+02
1.010000e-06	-1.804986e-06	-4.028449e-09	-1.372405e+01	-2.707739e+02
1.020000e-06	-1.799654e-06	-4.028426e-09	-1.368351e+01	-2.701646e+02
1.030000e-06	-1.794278e-06	-4.021185e-09	-1.364263e+01	-2.695518e+02
1.040000e-06	-1.788853e-06	-4.005692e-09	-1.360138e+01	-2.689370e+02
1.050000e-06	-1.783383e-06	-3.990743e-09	-1.355979e+01	-2.683217e+02
1.060000e-06	-1.777869e-06	-3.978524e-09	-1.351786e+01	-2.677069e+02
1.070000e-06	-1.772314e-06	-3.972031e-09	-1.347563e+01	-2.670937e+02
1.080000e-06	-1.766729e-06	-3.955689e-09	-1.343317e+01	-2.664827e+02
1.090000e-06	-1.761098e-06	-3.945353e-09	-1.339035e+01	-2.658745e+02
1.100000e-06	-1.755421e-06	-3.941517e-09	-1.334719e+01	-2.652691e+02
1.110000e-06	-1.749703e-06	-3.940190e-09	-1.330371e+01	-2.646667e+02
1.120000e-06	-1.743947e-06	-3.929408e-09	-1.325994e+01	-2.640667e+02
1.130000e-06	-1.738139e-06	-3.910683e-09	-1.321579e+01	-2.634687e+02
1.140000e-06	-1.732264e-06	-3.904079e-09	-1.317111e+01	-2.628718e+02
1.150000e-06	-1.726333e-06	-3.899253e-09	-1.312602e+01	-2.622753e+02
1.160000e-06	-1.720358e-06	-3.893837e-09	-1.308059e+01	-2.616780e+02
1.170000e-06	-1.714327e-06	-3.878074e-09	-1.303473e+01	-2.610789e+02
1.180000e-06	-1.708232e-06	-3.863689e-09	-1.298839e+01	-2.604769e+02
1.190000e-06	-1.702099e-06	-3.856833e-09	-1.294175e+01	-2.598709e+02
1.200000e-06	-1.695942e-06	-3.849046e-09	-1.289494e+01	-2.592601e+02
1.210000e-06	-1.689765e-06	-3.840171e-09	-1.284797e+01	-2.586435e+02
1.220000e-06	-1.683548e-06	-3.827746e-09	-1.280071e+01	-2.580205e+02
1.230000e-06	-1.677286e-06	-3.823347e-09	-1.275309e+01	-2.573906e+02
1.240000e-06	-1.670980e-06	-3.813492e-09	-1.270515e+01	-2.567535e+02
1.250000e-06	-1.664624e-06	-3.796797e-09	-1.265682e+01	-2.561092e+02
1.260000e-06	-1.658239e-06	-3.779569e-09	-1.260827e+01	-2.554577e+02
1.270000e-06	-1.651824e-06	-3.765381e-09	-1.255950e+01	-2.547993e+02
1.280000e-06	-1.645365e-06	-3.758685e-09	-1.251039e+01	-2.541346e+02
1.290000e-06	-1.638855e-06	-3.750603e-09	-1.246089e+01	-2.534641e+02
1.300000e-06	-1.632311e-06	-3.745364e-09	-1.241113e+01	-2.527885e+02
1.310000e-06	-1.625728e-06	-3.738247e-09	-1.236108e+01	-2.521085e+02
1.320000e-06	-1.619094e-06	-3.729458e-09	-1.231063e+01	-2.514250e+02
1.330000e-06	-1.612410e-06	-3.717132e-09	-1.225981e+01	-2.507386e+02
1.340000e-06	-1.605671e-06	-3.698451e-09	-1.220858e+01	-2.500501e+02
1.350000e-06	-1.598882e-06	-3.682976e-09	-1.215696e+01	-2.493599e+02
1.360000e-06	-1.592049e-06	-3.671137e-09	-1.210500e+01	-2.486687e+02
1.370000e-06	-1.585188e-06	-3.661493e-09	-1.205284e+01	-2.479767e+02
1.380000e-06	-1.578291e-06	-3.645554e-09	-1.200040e+01	-2.472841e+02
1.390000e-06	-1.571354e-06	-3.630160e-09	-1.194765e+01	-2.465909e+02
1.400000e-06	-1.564390e-06	-3.621673e-09	-1.189470e+01	-2.458970e+02
1.410000e-06	-1.557398e-06	-3.614242e-09	-1.184154e+01	-2.452021e+02
1.420000e-06	-1.550360e-06	-3.605457e-09	-1.178802e+01	-2.445059e+02
1.430000e-06	-1.543269e-06	-3.590352e-09	-1.173411e+01	-2.438078e+02
1.440000e-06	-1.536137e-06	-3.578155e-09	-1.167988e+01	-2.431073e+02
1.450000e-06	-1.528968e-06	-3.569224e-09	-1.162537e+01	-2.424037e+02
1.460000e-06	-1.521759e-06	-3.557186e-09	-1.157056e+01	-2.416965e+02
1.470000e-06	-1.514519e-06	-3.540474e-09	-1.151551e+01	-2.409849e+02
1.480000e-06	-1.507249e-06	-3.522512e-09	-1.146023e+01	-2.402685e+02
1.490000e-06	-1.499936e-06	-3.515036e-09	-1.140463e+01	-2.395466e+02
1.500000e-06	-1.492592e-06	-3.508965e-09	-1.134879e+01	-2.388188e+02
1.510000e-06	-1.485220e-06	-3.495536e-09	-1.129274e+01	-2.380847e+02
1.520000e-06	-1.477802e-06	-3.479986e-09	-1.123634e+01	-2.373441e+02
1.530000e-06	-1.470319e-06	-3.463797e-09	-1.117944e+01	-2.365968e+02
1.540000e-06	-1.462786e-06	-3.452312e-09	-1.112216e+01	-2.358428e+02
1.550000e-06	-1.455206e-06	-3.438985e-09	-1.106453e+01	-2.350819e+02
1.560000e-06	-1.447561e-06	-3.423284e-09	-1.100640e+01	-2.343145e+02
1.570000e-06	-1.439868e-06	-3.411412e-09	-1.094791e+01	-2.335406e+02
1.580000e-06	-1.432152e-06	-3.399234e-09	-1.088924e+01	-2.327605e+02
1.590000e-06	-1.424407e-06	-3.387954e-09	-1.083035e+01	-2.319746e+02
1.600000e-06	-1.416624e-06	-3.374807e-09	-1.077117e+01	-2.311833e+02
1.610000e-06	-1.408809e-06	-3.364745e-09	-1.071175e+01	-2.303869e+02
1.620000e-06	-1.400960e-06	-3.355398e-09	-1.065207e+01	-2.295859e+02
1.630000e-06	-1.393053e-06	-3.346503e-09	-1.059196e+01	-2.287807e+02
1.640000e-06	-1.385112e-06	-3.333234e-09	-1.053157e+01	-2.279719e+02
1.650000e-06	-1.377133e-06	-3.314460e-09	-1.047091e+01	-2.271600e+02
1.660000e-06	-1.369119e-06	-3.298687e-09	-1.040997e+01	-2.263453e+02
1.670000e-06	-1.361067e-06	-3.279603e-09	-1.034875e+01	-2.255286e+02
1.680000e-06	-1.352949e-06	-3.260255e-09	-1.028703e+01	-2.247101e+02
1.690000e-06	-1.344790e-06	-3.244690e-09	-1.022499e+01	-2.238905e+02
1.700000e-06	-1.336590e-06	-3.235705e-09	-1.016264e+01	-2.230703e+02
1.710000e-06	-1.328353e-06	-3.228960e-09	-1.010001e+01	-2.222498e+02
1.720000e-06	-1.320099e-06	-3.216121e-09	-1.003726e+01	-2.214295e+02
1.730000e-06	-1.311814e-06	-3.201523e-09	-9.974262e+00	-2.206099e+02
1.740000e-06	-1.303501e-06	-3.186296e-09	-9.911055e+00	-2.197911e+02
1.750000e-06	-1.295177e-06	-3.175707e-09	-9.847759e+00	-2.189736e+02
1.760000e-06	-1.286814e-06	-3.162390e-09	-9.784176e+00	-2.181573e+02
1.770000e-06	-1.278403e-06	-3.144742e-09	-9.720222e+00	-2.173425e+02
1.780000e-06	-1.269956e-06	-3.131915e-09	-9.655999e+00	-2.165289e+02
1.790000e-06	-1.261475e-06	-3.121478e-09	-9.591509e+00	-2.157164e+02
1.800000e-06	-1.252980e-06	-3.109737e-09	-9.526920e+00	-2.149046e+02
1.810000e-06	-1.244470e-06	-3.091332e-09	-9.462214e+00	-2.140930e+02
1.820000e-06	-1.235933e-06	-3.076102e-09	-9.397303e+00	-2.132809e+02
1.830000e-06	-1.227373e-06	-3.066926e-09	-9.332218e+00	-2.124676e+02
1.840000e-06	-1.218786e-06	-3.058437e-09	-9.266927e+00	-2.116520e+02
1.850000e-06	-1.210173e-06	-3.044214e-09	-9.201444e+00	-2.108333e+02
1.860000e-06	-1.201524e-06	-3.023650e-09	-9.135683e+00	-2.100103e+02
1.870000e-06	-1.192845e-06	-3.009973e-09	-9.069689e+00	-2.091819e+02
1.880000e-06	-1.184148e-06	-3.001736e-09	-9.003566e+00	-2.083471e+02
1.890000e-06	-1.175422e-06	-2.992226e-09	-8.937219e+00	-2.075046e+02
1.900000e-06	-1.166662e-06	-2.978797e-09	-8.870606e+00	-2.066537e+02
1.910000e-06	-1.157853e-06	-2.964277e-09	-8.803632e+00	-2.057934e+02
1.920000e-06	-1.149019e-06	-2.954977e-09	-8.736461e+00	-2.049230e+02
1.930000e-06	-1.140170e-06	-2.944275e-09	-8.669179e+00	-2.040422e+02
1.940000e-06	-1.131295e-06	-2.930658e-09	-8.601700e+00	-2.031506e+02
1.950000e-06	-1.122396e-06	-2.914184e-09	-8.534040e+00	-2.022483e+02
1.960000e-06	-1.113482e-06	-2.903099e-09	-8.466263e+00	-2.013355e+02
1.970000e-06	-1.104554e-06	-2.892577e-09	-8.398377e+00	-2.004127e+02
1.980000e-06	-1.095587e-06	-2.872889e-09	-8.330197e+00	-1.994806e+02
1.990000e-06	-1.086592e-06	-2.849571e-09	-8.261807e+00	-1.985402e+02
2.000000e-06	-1.077567e-06	-2.830761e-09	-8.193183e+00	-1.975925e+02
2.010000e-06	-1.068503e-06	-2.822053e-09	-8.124264e+00	-1.966386e+02
2.020000e-06	-1.059418e-06	-2.809988e-09	-8.055187e+00	-1.956799e+02
2.030000e-06	-1.050287e-06	-2.794727e-09	-7.985762e+00	-1.947176e+02
2.040000e-06	-1.041106e-06	-2.777888e-09	-7.915954e+00	-1.937527e+02
2.050000e-06	-1.031882e-06	-2.763203e-09	-7.845824e+00	-1.927865e+02
2.060000e-06	-1.022623e-06	-2.752552e-09	-7.775419e+00	-1.918198e+02
2.070000e-06	-1.013342e-06	-2.734734e-09	-7.704858e+00	-1.908532e+02
2.080000e-06	-1.004042e-06	-2.716835e-09	-7.634144e+00	-1.898872e+02
2.090000e-06	-9.947327e-07	-2.702110e-09	-7.563361e+00	-1.889219e+02
2.100000e-06	-9.854045e-07	-2.688908e-09	-7.492435e+00	-1.879573e+02
2.110000e-06	-9.760559e-07	-2.673472e-09	-7.421353e+00	-1.869928e+02
2.120000e-06	-9.666896e-07	-2.656183e-09	-7.350138e+00	-1.860280e+02
2.130000e-06	-9.573112e-07	-2.643079e-09	-7.278830e+00	-1.850618e+02
2.140000e-06	-9.479087e-07	-2.629851e-09	-7.207339e+00	-1.840931e+02
2.150000e-06	-9.384676e-07	-2.616880e-09	-7.135554e+00	-1.831208e+02
2.160000e-06	-9.290014e-07	-2.601100e-09	-7.063578e+00	-1.821435e+02
2.170000e-06	-9.195088e-07	-2.582348e-09	-6.991402e+00	-1.811598e+02
2.180000e-06	-9.099942e-07	-2.564321e-09	-6.919059e+00	-1.801686e+02
2.190000e-06	-9.004687e-07	-2.550342e-09	-6.846632e+00	-1.791686e+02
2.200000e-06	-8.909271e-07	-2.539746e-09	-6.774084e+00	-1.781589e+02
2.210000e-06	-8.813445e-07	-2.525667e-09	-6.701223e+00	-1.771386e+02
2.220000e-06	-8.717243e-07	-2.510093e-09	-6.628078e+00	-1.761071e+02
2.230000e-06	-8.620918e-07	-2.493141e-09	-6.554837e+00	-1.750642e+02
2.240000e-06	-8.524515e-07	-2.478573e-09	-6.481538e+00	-1.740099e+02
2.250000e-06	-8.427907e-07	-2.464576e-09	-6.408083e+00	-1.729445e+02
2.260000e-06	-8.331074e-07	-2.446856e-09	-6.334457e+00	-1.718685e+02
2.270000e-06	-8.234177e-07	-2.429209e-09	-6.260782e+00	-1.707826e+02
2.280000e-06	-8.137118e-07	-2.412565e-09	-6.186985e+00	-1.696878e+02
2.290000e-06	-8.039831e-07	-2.397190e-09	-6.113013e+00	-1.685852e+02
2.300000e-06	-7.942429e-07	-2.380128e-09	-6.038954e+00	-1.674760e+02
2.310000e-06	-7.844772e-07	-2.362517e-09	-5.964702e+00	-1.663612e+02
2.320000e-06	-7.746845e-07	-2.347322e-09	-5.890244e+00	-1.652420e+02
2.330000e-06	-7.648830e-07	-2.334617e-09	-5.815719e+00	-1.641195e+02
2.340000e-06	-7.550468e-07	-2.321085e-09	-5.740930e+00	-1.629945e+02
2.350000e-06	-7.451674e-07	-2.302787e-09	-5.665813e+00	-1.618677e+02
2.360000e-06	-7.352617e-07	-2.284044e-09	-5.590496e+00	-1.607395e+02
2.370000e-06	-7.253044e-07	-2.265585e-09	-5.514787e+00	-1.596103e+02
2.380000e-06	-7.153086e-07	-2.249637e-09	-5.438784e+00	-1.584801e+02
2.390000e-06	-7.052967e-07	-2.234497e-09	-5.362660e+00	-1.573485e+02
2.400000e-06	-6.952573e-07	-2.216751e-09	-5.286326e+00	-1.562154e+02
2.410000e-06	-6.852054e-07	-2.201740e-09	-5.209897e+00	-1.550800e+02
2.420000e-06	-6.751529e-07	-2.188030e-09	-5.133464e+00	-1.539419e+02
2.430000e-06	-6.650909e-07	-2.173239e-09	-5.056959e+00	-1.528001e+02
2.440000e-06	-6.550164e-07	-2.156796e-09	-4.980358e+00	-1.516542e+02
2.450000e-06	-6.449284e-07	-2.139765e-09	-4.903655e+00	-1.505032e+02
2.460000e-06	-6.348275e-07	-2.122318e-09	-4.826854e+00	-1.493468e+02
2.470000e-06	-6.247137e-07	-2.103392e-09	-4.749955e+00	-1.481844e+02
2.480000e-06	-6.145923e-07	-2.083892e-09	-4.672997e+00	-1.470158e+02
2.490000e-06	-6.044722e-07	-2.066726e-09	-4.596050e+00	-1.458409e+02
2.500000e-06	-5.943451e-07	-2.053192e-09	-4.519049e+00	-1.446598e+02
2.510000e-06	-5.841899e-07	-2.038243e-09	-4.441836e+00	-1.434729e+02
2.520000e-06	-5.740147e-07	-2.023968e-09	-4.364469e+00	-1.422807e+02
2.530000e-06	-5.638278e-07	-2.010217e-09	-4.287014e+00	-1.410838e+02
2.540000e-06	-5.536213e-07	-1.993464e-09	-4.209410e+00	-1.398831e+02
2.550000e-06	-5.434048e-07	-1.974151e-09	-4.131730e+00	-1.386793e+02
2.560000e-06	-5.331804e-07	-1.951983e-09	-4.053989e+00	-1.374734e+02
2.570000e-06	-5.229473e-07	-1.931875e-09	-3.976182e+00	-1.362663e+02
2.580000e-06	-5.126895e-07	-1.911976e-09	-3.898189e+00	-1.350587e+02
2.590000e-06	-5.024164e-07	-1.890762e-09	-3.820078e+00	-1.338512e+02
2.600000e-06	-4.921347e-07	-1.869335e-09	-3.741902e+00	-1.326444e+02
2.610000e-06	-4.818313e-07	-1.850323e-09	-3.663561e+00	-1.314384e+02
2.620000e-06	-4.715202e-07	-1.835628e-09	-3.585162e+00	-1.302333e+02
2.630000e-06	-4.612074e-07	-1.820717e-09	-3.506749e+00	-1.290289e+02
2.640000e-06	-4.508753e-07	-1.806360e-09	-3.428190e+00	-1.278247e+02
2.650000e-06	-4.405315e-07	-1.792106e-09	-3.349542e+00	-1.266202e+02
2.660000e-06	-4.301845e-07	-1.776362e-09	-3.270869e+00	-1.254145e+02
2.670000e-06	-4.198185e-07	-1.757794e-09	-3.192052e+00	-1.242066e+02
2.680000e-06	-4.094384e-07	-1.736909e-09	-3.113128e+00	-1.229954e+02
2.690000e-06	-3.990456e-07	-1.716675e-09	-3.034108e+00	-1.217798e+02
2.700000e-06	-3.886410e-07	-1.700590e-09	-2.954997e+00	-1.205588e+02
2.710000e-06	-3.782342e-07	-1.687288e-09	-2.875870e+00	-1.193312e+02
2.720000e-06	-3.678098e-07	-1.672401e-09	-2.796609e+00	-1.180963e+02
2.730000e-06	-3.573698e-07	-1.658900e-09	-2.717229e+00	-1.168530e+02
2.740000e-06	-3.469226e-07	-1.648481e-09	-2.637795e+00	-1.156010e+02
2.750000e-06	-3.364698e-07	-1.634009e-09	-2.558318e+00	-1.143397e+02
2.760000e-06	-3.260120e-07	-1.612283e-09	-2.478803e+00	-1.130691e+02
2.770000e-06	-3.155443e-07	-1.586337e-09	-2.399212e+00	-1.117891e+02
2.780000e-06	-3.050759e-07	-1.560793e-09	-2.319617e+00	-1.105000e+02
2.790000e-06	-2.946085e-07	-1.542232e-09	-2.240029e+00	-1.092023e+02
2.800000e-06	-2.841352e-07	-1.527072e-09	-2.160397e+00	-1.078964e+02
2.810000e-06	-2.736517e-07	-1.511488e-09	-2.080686e+00	-1.065830e+02
2.820000e-06	-2.631642e-07	-1.496204e-09	-2.000946e+00	-1.052628e+02
2.830000e-06	-2.526729e-07	-1.481478e-09	-1.921176e+00	-1.039365e+02
2.840000e-06	-2.421800e-07	-1.465527e-09	-1.841394e+00	-1.026048e+02
