# Temperatura_=_20.0
# Concentracion g/m^3_=_10000.0
# C_Vs_to_Am_M_A/Vsm_=_65563218390.804596
# pendiente_HvsI_1/m_=_3716.3
# ordenada_HvsI_A/m_=_1297.0
# frecuencia_Hz_=_81138.21951099356

Tiempo_(s)	Campo_(V.s)	Magnetizacion_(V.s)	Campo_(kA/m)	Magnetizacion_(A/m)
0.000000e+00	-2.074369e-06	1.144196e-10	-1.577763e+01	2.212683e-03
1.000000e-08	-2.074323e-06	9.152560e-11	-1.577728e+01	2.501543e-03
2.000000e-08	-2.074291e-06	3.406353e-11	-1.577703e+01	4.355048e-03
3.000000e-08	-2.074222e-06	-1.210106e-10	-1.577651e+01	7.516935e-03
4.000000e-08	-2.074074e-06	-1.814801e-10	-1.577538e+01	1.164266e-02
5.000000e-08	-2.073851e-06	1.957117e-11	-1.577369e+01	1.631857e-02
6.000000e-08	-2.073563e-06	1.344838e-10	-1.577149e+01	2.108499e-02
7.000000e-08	-2.073221e-06	7.948123e-11	-1.576890e+01	2.546184e-02
8.000000e-08	-2.072824e-06	-1.647608e-11	-1.576588e+01	2.897531e-02
9.000000e-08	-2.072350e-06	7.203044e-11	-1.576227e+01	3.118423e-02
1.000000e-07	-2.071853e-06	6.550763e-11	-1.575849e+01	3.170436e-02
1.100000e-07	-2.071328e-06	-8.188981e-11	-1.575450e+01	3.022958e-02
1.200000e-07	-2.070724e-06	-1.040126e-10	-1.574990e+01	2.654843e-02
1.300000e-07	-2.070048e-06	-3.814691e-11	-1.574476e+01	2.055537e-02
1.400000e-07	-2.069319e-06	1.251290e-10	-1.573922e+01	1.225596e-02
1.500000e-07	-2.068562e-06	1.140070e-10	-1.573346e+01	1.765784e-03
1.600000e-07	-2.067743e-06	3.731349e-11	-1.572723e+01	-1.069683e-02
1.700000e-07	-2.066857e-06	-3.816037e-11	-1.572049e+01	-2.482379e-02
1.800000e-07	-2.065945e-06	-6.747278e-11	-1.571355e+01	-4.023516e-02
1.900000e-07	-2.064989e-06	3.006924e-11	-1.570628e+01	-5.650100e-02
2.000000e-07	-2.063988e-06	2.005380e-11	-1.569867e+01	-7.316576e-02
2.100000e-07	-2.062922e-06	4.575014e-11	-1.569056e+01	-8.977381e-02
2.200000e-07	-2.061778e-06	1.265277e-11	-1.568186e+01	-1.058947e-01
2.300000e-07	-2.060571e-06	1.644689e-11	-1.567268e+01	-1.211464e-01
2.400000e-07	-2.059311e-06	1.538029e-11	-1.566310e+01	-1.352160e-01
2.500000e-07	-2.057982e-06	-4.774809e-11	-1.565299e+01	-1.478750e-01
2.600000e-07	-2.056586e-06	-2.852147e-11	-1.564237e+01	-1.589908e-01
2.700000e-07	-2.055141e-06	-3.185442e-11	-1.563138e+01	-1.685307e-01
2.800000e-07	-2.053630e-06	4.423244e-11	-1.561988e+01	-1.765617e-01
2.900000e-07	-2.052062e-06	5.100557e-11	-1.560796e+01	-1.832425e-01
3.000000e-07	-2.050441e-06	2.354381e-11	-1.559563e+01	-1.888114e-01
3.100000e-07	-2.048756e-06	-8.978698e-12	-1.558282e+01	-1.935687e-01
3.200000e-07	-2.047012e-06	-5.373321e-11	-1.556955e+01	-1.978561e-01
3.300000e-07	-2.045204e-06	-1.201214e-11	-1.555580e+01	-2.020328e-01
3.400000e-07	-2.043329e-06	-1.991469e-11	-1.554154e+01	-2.064513e-01
3.500000e-07	-2.041403e-06	4.595482e-12	-1.552689e+01	-2.114339e-01
3.600000e-07	-2.039431e-06	-5.345278e-12	-1.551189e+01	-2.172503e-01
3.700000e-07	-2.037408e-06	-6.125869e-12	-1.549650e+01	-2.240996e-01
3.800000e-07	-2.035337e-06	8.044787e-12	-1.548075e+01	-2.320952e-01
3.900000e-07	-2.033225e-06	-2.388824e-11	-1.546469e+01	-2.412568e-01
4.000000e-07	-2.031072e-06	-7.278512e-12	-1.544831e+01	-2.515064e-01
4.100000e-07	-2.028872e-06	-2.765172e-11	-1.543158e+01	-2.626716e-01
4.200000e-07	-2.026617e-06	-5.352819e-12	-1.541443e+01	-2.744942e-01
4.300000e-07	-2.024316e-06	-3.138375e-12	-1.539693e+01	-2.866441e-01
4.400000e-07	-2.021981e-06	-1.022848e-11	-1.537916e+01	-2.987382e-01
4.500000e-07	-2.019596e-06	-5.966743e-12	-1.536102e+01	-3.103625e-01
4.600000e-07	-2.017142e-06	-2.545070e-11	-1.534236e+01	-3.210960e-01
4.700000e-07	-2.014630e-06	9.062241e-12	-1.532326e+01	-3.305360e-01
4.800000e-07	-2.012090e-06	8.203516e-13	-1.530393e+01	-3.383223e-01
4.900000e-07	-2.009499e-06	6.839856e-13	-1.528423e+01	-3.441590e-01
5.000000e-07	-2.006848e-06	-1.282936e-11	-1.526407e+01	-3.478335e-01
5.100000e-07	-2.004136e-06	-9.938480e-12	-1.524343e+01	-3.492296e-01
5.200000e-07	-2.001340e-06	2.050024e-11	-1.522217e+01	-3.483367e-01
5.300000e-07	-1.998485e-06	9.479206e-12	-1.520046e+01	-3.452516e-01
5.400000e-07	-1.995581e-06	1.204418e-11	-1.517837e+01	-3.401751e-01
5.500000e-07	-1.992633e-06	-9.142775e-12	-1.515594e+01	-3.334018e-01
5.600000e-07	-1.989645e-06	5.905012e-12	-1.513322e+01	-3.253050e-01
5.700000e-07	-1.986621e-06	1.051671e-11	-1.511022e+01	-3.163164e-01
5.800000e-07	-1.983562e-06	-2.348532e-12	-1.508695e+01	-3.069031e-01
5.900000e-07	-1.980439e-06	9.661767e-12	-1.506320e+01	-2.975414e-01
6.000000e-07	-1.977251e-06	1.940507e-11	-1.503895e+01	-2.886906e-01
6.100000e-07	-1.974020e-06	5.327882e-11	-1.501437e+01	-2.807675e-01
6.200000e-07	-1.970758e-06	3.702606e-11	-1.498956e+01	-2.741228e-01
6.300000e-07	-1.967429e-06	1.871171e-11	-1.496424e+01	-2.690216e-01
6.400000e-07	-1.964039e-06	1.033486e-11	-1.493846e+01	-2.656281e-01
6.500000e-07	-1.960609e-06	1.036298e-11	-1.491237e+01	-2.639965e-01
6.600000e-07	-1.957142e-06	1.742723e-11	-1.488600e+01	-2.640679e-01
6.700000e-07	-1.953624e-06	-1.933767e-12	-1.485924e+01	-2.656728e-01
6.800000e-07	-1.950041e-06	1.214474e-11	-1.483199e+01	-2.685413e-01
6.900000e-07	-1.946386e-06	2.310107e-11	-1.480419e+01	-2.723176e-01
7.000000e-07	-1.942668e-06	3.364875e-11	-1.477591e+01	-2.765798e-01
7.100000e-07	-1.938918e-06	2.095575e-11	-1.474739e+01	-2.808636e-01
7.200000e-07	-1.935128e-06	2.322139e-12	-1.471857e+01	-2.846883e-01
7.300000e-07	-1.931285e-06	1.380382e-11	-1.468933e+01	-2.875831e-01
7.400000e-07	-1.927391e-06	1.091914e-11	-1.465971e+01	-2.891137e-01
7.500000e-07	-1.923447e-06	1.073226e-11	-1.462972e+01	-2.889059e-01
7.600000e-07	-1.919459e-06	-8.320884e-12	-1.459938e+01	-2.866664e-01
7.700000e-07	-1.915439e-06	-7.577151e-12	-1.456881e+01	-2.821985e-01
7.800000e-07	-1.911380e-06	6.434057e-12	-1.453794e+01	-2.754126e-01
7.900000e-07	-1.907269e-06	1.021042e-11	-1.450666e+01	-2.663304e-01
8.000000e-07	-1.903106e-06	1.488991e-11	-1.447500e+01	-2.550829e-01
8.100000e-07	-1.898898e-06	2.650800e-12	-1.444300e+01	-2.419023e-01
8.200000e-07	-1.894637e-06	1.061853e-11	-1.441059e+01	-2.271085e-01
8.300000e-07	-1.890321e-06	7.056182e-12	-1.437776e+01	-2.110899e-01
8.400000e-07	-1.885943e-06	-2.826368e-12	-1.434446e+01	-1.942817e-01
8.500000e-07	-1.881502e-06	-1.283677e-11	-1.431068e+01	-1.771413e-01
8.600000e-07	-1.877015e-06	-1.577418e-11	-1.427655e+01	-1.601219e-01
8.700000e-07	-1.872471e-06	1.811111e-12	-1.424199e+01	-1.436486e-01
8.800000e-07	-1.867866e-06	1.602171e-12	-1.420697e+01	-1.280944e-01
8.900000e-07	-1.863232e-06	5.048367e-13	-1.417172e+01	-1.137609e-01
9.000000e-07	-1.858566e-06	-6.867278e-12	-1.413623e+01	-1.008633e-01
9.100000e-07	-1.853851e-06	-1.714225e-12	-1.410037e+01	-8.951997e-02
9.200000e-07	-1.849091e-06	2.774006e-12	-1.406417e+01	-7.974878e-02
9.300000e-07	-1.844284e-06	-8.001271e-12	-1.402760e+01	-7.146907e-02
9.400000e-07	-1.839422e-06	-1.012118e-11	-1.399062e+01	-6.450960e-02
9.500000e-07	-1.834513e-06	-1.526812e-11	-1.395328e+01	-5.862192e-02
9.600000e-07	-1.829544e-06	-1.027285e-11	-1.391549e+01	-5.349832e-02
9.700000e-07	-1.824512e-06	-1.561286e-11	-1.387722e+01	-4.879324e-02
9.800000e-07	-1.819437e-06	-1.764794e-11	-1.383861e+01	-4.414690e-02
9.900000e-07	-1.814307e-06	-8.159791e-12	-1.379960e+01	-3.920962e-02
1.000000e-06	-1.809099e-06	7.200911e-13	-1.375999e+01	-3.366551e-02
1.010000e-06	-1.803821e-06	7.297741e-12	-1.371984e+01	-2.725395e-02
1.020000e-06	-1.798497e-06	-4.944890e-12	-1.367935e+01	-1.978761e-02
1.030000e-06	-1.793114e-06	-1.255310e-11	-1.363840e+01	-1.116604e-02
1.040000e-06	-1.787681e-06	-1.736732e-11	-1.359708e+01	-1.383803e-03
1.050000e-06	-1.782210e-06	-1.616575e-11	-1.355547e+01	9.467200e-03
1.060000e-06	-1.776693e-06	-1.233487e-11	-1.351351e+01	2.120145e-02
1.070000e-06	-1.771131e-06	-9.562165e-12	-1.347120e+01	3.354932e-02
1.080000e-06	-1.765532e-06	3.766796e-12	-1.342862e+01	4.617190e-02
1.090000e-06	-1.759890e-06	9.851643e-12	-1.338570e+01	5.868014e-02
1.100000e-06	-1.754193e-06	1.342264e-11	-1.334237e+01	7.065742e-02
1.110000e-06	-1.748464e-06	9.998744e-12	-1.329880e+01	8.168393e-02
1.120000e-06	-1.742698e-06	7.311204e-12	-1.325494e+01	9.136165e-02
1.130000e-06	-1.736893e-06	9.071799e-12	-1.321079e+01	9.933836e-02
1.140000e-06	-1.731036e-06	6.097294e-12	-1.316624e+01	1.053292e-01
1.150000e-06	-1.725114e-06	8.897461e-12	-1.312120e+01	1.091347e-01
1.160000e-06	-1.719138e-06	7.637137e-12	-1.307575e+01	1.106537e-01
1.170000e-06	-1.713118e-06	1.037142e-11	-1.302996e+01	1.098910e-01
1.180000e-06	-1.707039e-06	1.380927e-11	-1.298372e+01	1.069590e-01
1.190000e-06	-1.700912e-06	1.577478e-11	-1.293712e+01	1.020727e-01
1.200000e-06	-1.694761e-06	1.668981e-11	-1.289033e+01	9.553915e-02
1.210000e-06	-1.688574e-06	1.689290e-11	-1.284327e+01	8.774146e-02
1.220000e-06	-1.682352e-06	2.110231e-11	-1.279595e+01	7.911808e-02
1.230000e-06	-1.676095e-06	1.929716e-11	-1.274836e+01	7.013892e-02
1.240000e-06	-1.669791e-06	2.085317e-11	-1.270041e+01	6.127951e-02
1.250000e-06	-1.663449e-06	1.972861e-11	-1.265217e+01	5.299459e-02
1.260000e-06	-1.657070e-06	1.880001e-11	-1.260366e+01	4.569269e-02
1.270000e-06	-1.650643e-06	2.227432e-11	-1.255477e+01	3.971329e-02
1.280000e-06	-1.644166e-06	2.422551e-11	-1.250550e+01	3.530763e-02
1.290000e-06	-1.637653e-06	2.559829e-11	-1.245597e+01	3.262452e-02
1.300000e-06	-1.631114e-06	2.103984e-11	-1.240624e+01	3.170182e-02
1.310000e-06	-1.624532e-06	2.121274e-11	-1.235617e+01	3.246416e-02
1.320000e-06	-1.617898e-06	2.280121e-11	-1.230571e+01	3.472698e-02
1.330000e-06	-1.611215e-06	2.323211e-11	-1.225488e+01	3.820676e-02
1.340000e-06	-1.604488e-06	2.321450e-11	-1.220371e+01	4.253679e-02
1.350000e-06	-1.597703e-06	2.176991e-11	-1.215211e+01	4.728757e-02
1.360000e-06	-1.590859e-06	2.508575e-11	-1.210006e+01	5.199082e-02
1.370000e-06	-1.583986e-06	2.561186e-11	-1.204778e+01	5.616552e-02
1.380000e-06	-1.577080e-06	2.593048e-11	-1.199526e+01	5.934465e-02
1.390000e-06	-1.570133e-06	2.825558e-11	-1.194241e+01	6.110113e-02
1.400000e-06	-1.563152e-06	3.329018e-11	-1.188931e+01	6.107136e-02
1.410000e-06	-1.556141e-06	3.809699e-11	-1.183599e+01	5.897512e-02
1.420000e-06	-1.549099e-06	3.654923e-11	-1.178243e+01	5.463072e-02
1.430000e-06	-1.542012e-06	3.274527e-11	-1.172853e+01	4.796452e-02
1.440000e-06	-1.534888e-06	2.721451e-11	-1.167434e+01	3.901432e-02
1.450000e-06	-1.527730e-06	2.531809e-11	-1.161990e+01	2.792646e-02
1.460000e-06	-1.520530e-06	2.448641e-11	-1.156513e+01	1.494683e-02
1.470000e-06	-1.513297e-06	2.417748e-11	-1.151012e+01	4.063484e-04
1.480000e-06	-1.506019e-06	3.040862e-11	-1.145477e+01	-1.529820e-02
1.490000e-06	-1.498702e-06	3.402300e-11	-1.139911e+01	-3.172686e-02
1.500000e-06	-1.491345e-06	3.370008e-11	-1.134316e+01	-4.842141e-02
1.510000e-06	-1.483950e-06	3.268201e-11	-1.128691e+01	-6.493097e-02
1.520000e-06	-1.476529e-06	3.254559e-11	-1.123046e+01	-8.083682e-02
1.530000e-06	-1.469075e-06	3.697918e-11	-1.117376e+01	-9.577507e-02
1.540000e-06	-1.461568e-06	3.652089e-11	-1.111667e+01	-1.094557e-01
1.550000e-06	-1.453992e-06	3.178920e-11	-1.105905e+01	-1.216773e-01
1.560000e-06	-1.446356e-06	2.710744e-11	-1.100096e+01	-1.323358e-01
1.570000e-06	-1.438672e-06	2.612858e-11	-1.094252e+01	-1.414278e-01
1.580000e-06	-1.430947e-06	3.220475e-11	-1.088377e+01	-1.490478e-01
1.590000e-06	-1.423190e-06	3.317591e-11	-1.082477e+01	-1.553791e-01
1.600000e-06	-1.415399e-06	3.170064e-11	-1.076551e+01	-1.606799e-01
1.610000e-06	-1.407579e-06	3.467919e-11	-1.070603e+01	-1.652649e-01
1.620000e-06	-1.399733e-06	3.920297e-11	-1.064635e+01	-1.694831e-01
1.630000e-06	-1.391854e-06	3.597401e-11	-1.058643e+01	-1.736944e-01
1.640000e-06	-1.383935e-06	2.656304e-11	-1.052620e+01	-1.782450e-01
1.650000e-06	-1.375969e-06	2.209093e-11	-1.046560e+01	-1.834441e-01
1.660000e-06	-1.367963e-06	2.296933e-11	-1.040471e+01	-1.895426e-01
1.670000e-06	-1.359893e-06	2.778413e-11	-1.034333e+01	-1.967160e-01
1.680000e-06	-1.351768e-06	3.251866e-11	-1.028153e+01	-2.050515e-01
1.690000e-06	-1.343615e-06	3.829161e-11	-1.021952e+01	-2.145403e-01
1.700000e-06	-1.335425e-06	4.473422e-11	-1.015723e+01	-2.250767e-01
1.710000e-06	-1.327215e-06	4.821286e-11	-1.009479e+01	-2.364622e-01
1.720000e-06	-1.318972e-06	4.865244e-11	-1.003209e+01	-2.484162e-01
1.730000e-06	-1.310693e-06	4.405211e-11	-9.969118e+00	-2.605912e-01
1.740000e-06	-1.302389e-06	3.943968e-11	-9.905955e+00	-2.725927e-01
1.750000e-06	-1.294045e-06	3.683501e-11	-9.842488e+00	-2.840020e-01
1.760000e-06	-1.285670e-06	3.270247e-11	-9.778792e+00	-2.944010e-01
1.770000e-06	-1.277268e-06	2.795703e-11	-9.714884e+00	-3.033969e-01
1.780000e-06	-1.268828e-06	2.877348e-11	-9.650693e+00	-3.106460e-01
1.790000e-06	-1.260364e-06	3.542551e-11	-9.586311e+00	-3.158746e-01
1.800000e-06	-1.251873e-06	3.954452e-11	-9.521735e+00	-3.188969e-01
1.810000e-06	-1.243360e-06	4.118181e-11	-9.456978e+00	-3.196268e-01
1.820000e-06	-1.234834e-06	4.367878e-11	-9.392135e+00	-3.180846e-01
1.830000e-06	-1.226274e-06	4.584637e-11	-9.327025e+00	-3.143980e-01
1.840000e-06	-1.217680e-06	4.548351e-11	-9.261661e+00	-3.087962e-01
1.850000e-06	-1.209075e-06	3.972752e-11	-9.196210e+00	-3.015984e-01
1.860000e-06	-1.200434e-06	3.553651e-11	-9.130488e+00	-2.931970e-01
1.870000e-06	-1.191757e-06	3.666442e-11	-9.064493e+00	-2.840366e-01
1.880000e-06	-1.183053e-06	4.155373e-11	-8.998285e+00	-2.745895e-01
1.890000e-06	-1.174311e-06	4.577328e-11	-8.931795e+00	-2.653298e-01
1.900000e-06	-1.165531e-06	5.045669e-11	-8.865018e+00	-2.567072e-01
1.910000e-06	-1.156733e-06	5.737079e-11	-8.798100e+00	-2.491216e-01
1.920000e-06	-1.147921e-06	5.845962e-11	-8.731077e+00	-2.429007e-01
1.930000e-06	-1.139078e-06	5.359623e-11	-8.663815e+00	-2.382816e-01
1.940000e-06	-1.130210e-06	4.240809e-11	-8.596366e+00	-2.353976e-01
1.950000e-06	-1.121316e-06	3.530044e-11	-8.528717e+00	-2.342700e-01
1.960000e-06	-1.112400e-06	3.477604e-11	-8.460900e+00	-2.348074e-01
1.970000e-06	-1.103456e-06	3.524304e-11	-8.392877e+00	-2.368100e-01
1.980000e-06	-1.094478e-06	3.858474e-11	-8.324586e+00	-2.399812e-01
1.990000e-06	-1.085471e-06	4.765091e-11	-8.256078e+00	-2.439439e-01
2.000000e-06	-1.076435e-06	5.668462e-11	-8.187353e+00	-2.482613e-01
2.010000e-06	-1.067378e-06	6.075269e-11	-8.118467e+00	-2.524617e-01
2.020000e-06	-1.058270e-06	6.217813e-11	-8.049193e+00	-2.560645e-01
2.030000e-06	-1.049109e-06	5.997056e-11	-7.979510e+00	-2.586068e-01
2.040000e-06	-1.039917e-06	5.750792e-11	-7.909598e+00	-2.596695e-01
2.050000e-06	-1.030698e-06	5.465384e-11	-7.839476e+00	-2.588997e-01
2.060000e-06	-1.021451e-06	5.174002e-11	-7.769141e+00	-2.560308e-01
2.070000e-06	-1.012174e-06	5.411336e-11	-7.698585e+00	-2.508962e-01
2.080000e-06	-1.002878e-06	5.821584e-11	-7.627878e+00	-2.434384e-01
2.090000e-06	-9.935640e-07	6.265877e-11	-7.557037e+00	-2.337112e-01
2.100000e-06	-9.842361e-07	6.854726e-11	-7.486088e+00	-2.218761e-01
2.110000e-06	-9.748861e-07	7.283899e-11	-7.414972e+00	-2.081922e-01
2.120000e-06	-9.655122e-07	7.381233e-11	-7.343675e+00	-1.930014e-01
2.130000e-06	-9.561208e-07	6.652828e-11	-7.272244e+00	-1.767080e-01
2.140000e-06	-9.467050e-07	5.867295e-11	-7.200628e+00	-1.597564e-01
2.150000e-06	-9.372640e-07	5.231331e-11	-7.128820e+00	-1.426051e-01
2.160000e-06	-9.277917e-07	4.779334e-11	-7.056773e+00	-1.257020e-01
2.170000e-06	-9.182954e-07	4.855126e-11	-6.984544e+00	-1.094592e-01
2.180000e-06	-9.087925e-07	5.491341e-11	-6.912265e+00	-9.423093e-02
2.190000e-06	-8.992683e-07	5.943156e-11	-6.839825e+00	-8.029515e-02
2.200000e-06	-8.897072e-07	5.676373e-11	-6.767103e+00	-6.783969e-02
2.210000e-06	-8.801214e-07	5.501986e-11	-6.694193e+00	-5.695405e-02
2.220000e-06	-8.705204e-07	5.495263e-11	-6.621168e+00	-4.762710e-02
2.230000e-06	-8.609028e-07	5.821971e-11	-6.548017e+00	-3.975088e-02
2.240000e-06	-8.512575e-07	5.624895e-11	-6.474655e+00	-3.313021e-02
2.250000e-06	-8.415927e-07	4.704500e-11	-6.401144e+00	-2.749746e-02
2.260000e-06	-8.319217e-07	3.886439e-11	-6.327587e+00	-2.253164e-02
2.270000e-06	-8.222261e-07	3.420130e-11	-6.253842e+00	-1.788057e-02
2.280000e-06	-8.125105e-07	3.599616e-11	-6.179946e+00	-1.318491e-02
2.290000e-06	-8.027771e-07	4.006751e-11	-6.105914e+00	-8.102396e-03
2.300000e-06	-7.930179e-07	4.528793e-11	-6.031685e+00	-2.331051e-03
2.310000e-06	-7.832435e-07	5.178026e-11	-5.957341e+00	4.370210e-03
2.320000e-06	-7.734559e-07	5.582806e-11	-5.882897e+00	1.216472e-02
2.330000e-06	-7.636532e-07	5.351822e-11	-5.808337e+00	2.112602e-02
2.340000e-06	-7.538219e-07	4.403474e-11	-5.733561e+00	3.123135e-02
2.350000e-06	-7.439580e-07	3.617702e-11	-5.658536e+00	4.236106e-02
2.360000e-06	-7.340710e-07	3.493766e-11	-5.583336e+00	5.430405e-02
2.370000e-06	-7.241553e-07	4.080751e-11	-5.507917e+00	6.676890e-02
2.380000e-06	-7.141966e-07	4.716997e-11	-5.432171e+00	7.940006e-02
2.390000e-06	-7.042052e-07	5.089212e-11	-5.356177e+00	9.179806e-02
2.400000e-06	-6.941869e-07	5.461627e-11	-5.279978e+00	1.035428e-01
2.410000e-06	-6.841426e-07	5.528479e-11	-5.203581e+00	1.142182e-01
2.420000e-06	-6.740875e-07	5.295188e-11	-5.127102e+00	1.234372e-01
2.430000e-06	-6.640175e-07	4.815337e-11	-5.050509e+00	1.308648e-01
2.440000e-06	-6.539384e-07	4.682055e-11	-4.973848e+00	1.362395e-01
2.450000e-06	-6.438523e-07	4.672202e-11	-4.897133e+00	1.393889e-01
2.460000e-06	-6.337562e-07	4.534771e-11	-4.820342e+00	1.402421e-01
2.470000e-06	-6.236563e-07	4.511542e-11	-4.743523e+00	1.388352e-01
2.480000e-06	-6.135495e-07	4.383119e-11	-4.666650e+00	1.353111e-01
2.490000e-06	-6.034331e-07	4.595654e-11	-4.589705e+00	1.299126e-01
2.500000e-06	-5.933026e-07	5.005389e-11	-4.512653e+00	1.229709e-01
2.510000e-06	-5.831547e-07	5.350184e-11	-4.435468e+00	1.148872e-01
2.520000e-06	-5.729946e-07	5.263833e-11	-4.358190e+00	1.061118e-01
2.530000e-06	-5.628210e-07	4.903930e-11	-4.280810e+00	9.711881e-02
2.540000e-06	-5.526248e-07	4.670679e-11	-4.203258e+00	8.838052e-02
2.550000e-06	-5.424056e-07	4.160263e-11	-4.125531e+00	8.034079e-02
2.560000e-06	-5.321635e-07	3.820177e-11	-4.047629e+00	7.339039e-02
2.570000e-06	-5.219127e-07	3.705719e-11	-3.969662e+00	6.784501e-02
2.580000e-06	-5.116579e-07	4.094829e-11	-3.891664e+00	6.392747e-02
2.590000e-06	-5.013870e-07	4.922192e-11	-3.813543e+00	6.175508e-02
2.600000e-06	-4.910951e-07	5.249885e-11	-3.735264e+00	6.133287e-02
2.610000e-06	-4.807949e-07	5.158628e-11	-3.656921e+00	6.255315e-02
2.620000e-06	-4.704983e-07	5.210713e-11	-3.578605e+00	6.520143e-02
2.630000e-06	-4.601802e-07	5.384912e-11	-3.500126e+00	6.896824e-02
2.640000e-06	-4.498480e-07	4.785375e-11	-3.421539e+00	7.346642e-02
2.650000e-06	-4.395134e-07	3.939341e-11	-3.342934e+00	7.825268e-02
2.660000e-06	-4.291732e-07	3.485282e-11	-3.264286e+00	8.285228e-02
2.670000e-06	-4.188126e-07	3.270676e-11	-3.185484e+00	8.678552e-02
2.680000e-06	-4.084323e-07	3.191919e-11	-3.106531e+00	8.959437e-02
2.690000e-06	-3.980380e-07	3.096230e-11	-3.027473e+00	9.086782e-02
2.700000e-06	-3.876400e-07	2.974552e-11	-2.948386e+00	9.026456e-02
2.710000e-06	-3.772328e-07	3.003681e-11	-2.869228e+00	8.753157e-02
2.720000e-06	-3.668022e-07	3.271149e-11	-2.789894e+00	8.251773e-02
2.730000e-06	-3.563728e-07	3.051225e-11	-2.710567e+00	7.518158e-02
2.740000e-06	-3.459346e-07	2.437987e-11	-2.631174e+00	6.559292e-02
2.750000e-06	-3.354935e-07	2.070577e-11	-2.551760e+00	5.392807e-02
2.760000e-06	-3.250513e-07	1.757991e-11	-2.472337e+00	4.045927e-02
2.770000e-06	-3.145853e-07	1.538822e-11	-2.392732e+00	2.553866e-02
2.780000e-06	-3.041129e-07	1.576728e-11	-2.313079e+00	9.577970e-03
2.790000e-06	-2.936369e-07	1.836381e-11	-2.233399e+00	-6.974942e-03
2.800000e-06	-2.831479e-07	2.274973e-11	-2.153620e+00	-2.366135e-02
2.810000e-06	-2.726603e-07	2.647812e-11	-2.073851e+00	-4.003719e-02
2.820000e-06	-2.621792e-07	2.802339e-11	-1.994132e+00	-5.569743e-02
2.830000e-06	-2.516987e-07	2.580100e-11	-1.914418e+00	-7.029778e-02
2.840000e-06	-2.412118e-07	2.071821e-11	-1.834654e+00	-8.357262e-02
2.850000e-06	-2.307237e-07	1.348026e-11	-1.754882e+00	-9.534798e-02
2.860000e-06	-2.202326e-07	5.165014e-12	-1.675086e+00	-1.055489e-01
2.870000e-06	-2.097402e-07	-2.292370e-12	-1.595282e+00	-1.142010e-01
2.880000e-06	-1.992422e-07	-6.255209e-12	-1.515434e+00	-1.214254e-01
2.890000e-06	-1.887291e-07	-6.591342e-13	-1.435472e+00	-1.274290e-01
