# Temperatura_=_20.0
# Concentracion g/m^3_=_10000.0
# C_Vs_to_Am_M_A/Vsm_=_65563218390.804596
# pendiente_HvsI_1/m_=_3716.3
# ordenada_HvsI_A/m_=_1297.0
# frecuencia_Hz_=_81141.05528731452

Tiempo_(s)	Campo_(V.s)	Magnetizacion_(V.s)	Campo_(kA/m)	Magnetizacion_(A/m)
0.000000e+00	-2.073899e-06	-4.243659e-09	-1.577695e+01	-2.845993e+02
1.000000e-08	-2.073873e-06	-4.223443e-09	-1.577676e+01	-2.847536e+02
2.000000e-08	-2.073844e-06	-4.245710e-09	-1.577654e+01	-2.849059e+02
3.000000e-08	-2.073779e-06	-4.359076e-09	-1.577604e+01	-2.850556e+02
4.000000e-08	-2.073636e-06	-4.481081e-09	-1.577495e+01	-2.852018e+02
5.000000e-08	-2.073406e-06	-4.340969e-09	-1.577320e+01	-2.853437e+02
6.000000e-08	-2.073122e-06	-4.228560e-09	-1.577105e+01	-2.854802e+02
7.000000e-08	-2.072783e-06	-4.249210e-09	-1.576847e+01	-2.856102e+02
8.000000e-08	-2.072378e-06	-4.340269e-09	-1.576539e+01	-2.857328e+02
9.000000e-08	-2.071922e-06	-4.265440e-09	-1.576192e+01	-2.858471e+02
1.000000e-07	-2.071445e-06	-4.223118e-09	-1.575829e+01	-2.859521e+02
1.100000e-07	-2.070940e-06	-4.371590e-09	-1.575445e+01	-2.860472e+02
1.200000e-07	-2.070358e-06	-4.414668e-09	-1.575002e+01	-2.861319e+02
1.300000e-07	-2.069708e-06	-4.401099e-09	-1.574507e+01	-2.862058e+02
1.400000e-07	-2.068998e-06	-4.262196e-09	-1.573967e+01	-2.862689e+02
1.500000e-07	-2.068247e-06	-4.236149e-09	-1.573396e+01	-2.863212e+02
1.600000e-07	-2.067439e-06	-4.284736e-09	-1.572781e+01	-2.863627e+02
1.700000e-07	-2.066557e-06	-4.322796e-09	-1.572110e+01	-2.863940e+02
1.800000e-07	-2.065644e-06	-4.389207e-09	-1.571416e+01	-2.864153e+02
1.900000e-07	-2.064684e-06	-4.306527e-09	-1.570685e+01	-2.864272e+02
2.000000e-07	-2.063662e-06	-4.318540e-09	-1.569908e+01	-2.864302e+02
2.100000e-07	-2.062563e-06	-4.291093e-09	-1.569072e+01	-2.864247e+02
2.200000e-07	-2.061404e-06	-4.311354e-09	-1.568191e+01	-2.864114e+02
2.300000e-07	-2.060187e-06	-4.324330e-09	-1.567264e+01	-2.863905e+02
2.400000e-07	-2.058912e-06	-4.288584e-09	-1.566294e+01	-2.863624e+02
2.500000e-07	-2.057600e-06	-4.341174e-09	-1.565297e+01	-2.863274e+02
2.600000e-07	-2.056224e-06	-4.319728e-09	-1.564250e+01	-2.862856e+02
2.700000e-07	-2.054792e-06	-4.348441e-09	-1.563161e+01	-2.862370e+02
2.800000e-07	-2.053300e-06	-4.293512e-09	-1.562025e+01	-2.861815e+02
2.900000e-07	-2.051739e-06	-4.262146e-09	-1.560837e+01	-2.861191e+02
3.000000e-07	-2.050124e-06	-4.282814e-09	-1.559610e+01	-2.860496e+02
3.100000e-07	-2.048452e-06	-4.291964e-09	-1.558337e+01	-2.859728e+02
3.200000e-07	-2.046706e-06	-4.350462e-09	-1.557009e+01	-2.858884e+02
3.300000e-07	-2.044877e-06	-4.307457e-09	-1.555617e+01	-2.857963e+02
3.400000e-07	-2.043005e-06	-4.309902e-09	-1.554193e+01	-2.856963e+02
3.500000e-07	-2.041092e-06	-4.288163e-09	-1.552738e+01	-2.855883e+02
3.600000e-07	-2.039116e-06	-4.290764e-09	-1.551235e+01	-2.854724e+02
3.700000e-07	-2.037093e-06	-4.307448e-09	-1.549696e+01	-2.853486e+02
3.800000e-07	-2.035024e-06	-4.272739e-09	-1.548122e+01	-2.852171e+02
3.900000e-07	-2.032914e-06	-4.295680e-09	-1.546517e+01	-2.850781e+02
4.000000e-07	-2.030762e-06	-4.275493e-09	-1.544880e+01	-2.849319e+02
4.100000e-07	-2.028578e-06	-4.300590e-09	-1.543218e+01	-2.847790e+02
4.200000e-07	-2.026351e-06	-4.282154e-09	-1.541524e+01	-2.846196e+02
4.300000e-07	-2.024063e-06	-4.256419e-09	-1.539784e+01	-2.844543e+02
4.400000e-07	-2.021723e-06	-4.263563e-09	-1.538003e+01	-2.842834e+02
4.500000e-07	-2.019331e-06	-4.255328e-09	-1.536184e+01	-2.841073e+02
4.600000e-07	-2.016896e-06	-4.287077e-09	-1.534331e+01	-2.839263e+02
4.700000e-07	-2.014401e-06	-4.246279e-09	-1.532433e+01	-2.837406e+02
4.800000e-07	-2.011849e-06	-4.237819e-09	-1.530492e+01	-2.835505e+02
4.900000e-07	-2.009256e-06	-4.240279e-09	-1.528519e+01	-2.833560e+02
5.000000e-07	-2.006604e-06	-4.254104e-09	-1.526501e+01	-2.831570e+02
5.100000e-07	-2.003877e-06	-4.265678e-09	-1.524427e+01	-2.829534e+02
5.200000e-07	-2.001089e-06	-4.225089e-09	-1.522306e+01	-2.827451e+02
5.300000e-07	-1.998253e-06	-4.236110e-09	-1.520149e+01	-2.825317e+02
5.400000e-07	-1.995354e-06	-4.231776e-09	-1.517943e+01	-2.823131e+02
5.500000e-07	-1.992418e-06	-4.241542e-09	-1.515710e+01	-2.820888e+02
5.600000e-07	-1.989444e-06	-4.216584e-09	-1.513447e+01	-2.818587e+02
5.700000e-07	-1.986415e-06	-4.191971e-09	-1.511143e+01	-2.816225e+02
5.800000e-07	-1.983341e-06	-4.211723e-09	-1.508804e+01	-2.813799e+02
5.900000e-07	-1.980208e-06	-4.207714e-09	-1.506421e+01	-2.811310e+02
6.000000e-07	-1.977041e-06	-4.209589e-09	-1.504012e+01	-2.808757e+02
6.100000e-07	-1.973842e-06	-4.174023e-09	-1.501579e+01	-2.806141e+02
6.200000e-07	-1.970581e-06	-4.178299e-09	-1.499097e+01	-2.803467e+02
6.300000e-07	-1.967257e-06	-4.194562e-09	-1.496569e+01	-2.800736e+02
6.400000e-07	-1.963883e-06	-4.191034e-09	-1.494002e+01	-2.797953e+02
6.500000e-07	-1.960468e-06	-4.183494e-09	-1.491405e+01	-2.795126e+02
6.600000e-07	-1.957002e-06	-4.159125e-09	-1.488767e+01	-2.792259e+02
6.700000e-07	-1.953464e-06	-4.174914e-09	-1.486076e+01	-2.789359e+02
6.800000e-07	-1.949854e-06	-4.162770e-09	-1.483330e+01	-2.786433e+02
6.900000e-07	-1.946188e-06	-4.144648e-09	-1.480541e+01	-2.783488e+02
7.000000e-07	-1.942482e-06	-4.129684e-09	-1.477721e+01	-2.780527e+02
7.100000e-07	-1.938730e-06	-4.132759e-09	-1.474867e+01	-2.777556e+02
7.200000e-07	-1.934942e-06	-4.154114e-09	-1.471986e+01	-2.774578e+02
7.300000e-07	-1.931090e-06	-4.134286e-09	-1.469056e+01	-2.771592e+02
7.400000e-07	-1.927184e-06	-4.122914e-09	-1.466084e+01	-2.768600e+02
7.500000e-07	-1.923254e-06	-4.111463e-09	-1.463094e+01	-2.765597e+02
7.600000e-07	-1.919264e-06	-4.124117e-09	-1.460059e+01	-2.762579e+02
7.700000e-07	-1.915218e-06	-4.125301e-09	-1.456981e+01	-2.759538e+02
7.800000e-07	-1.911147e-06	-4.100856e-09	-1.453884e+01	-2.756467e+02
7.900000e-07	-1.907038e-06	-4.090655e-09	-1.450758e+01	-2.753353e+02
8.000000e-07	-1.902883e-06	-4.079460e-09	-1.447597e+01	-2.750186e+02
8.100000e-07	-1.898675e-06	-4.089442e-09	-1.444396e+01	-2.746953e+02
8.200000e-07	-1.894405e-06	-4.076263e-09	-1.441148e+01	-2.743639e+02
8.300000e-07	-1.890067e-06	-4.066685e-09	-1.437848e+01	-2.740233e+02
8.400000e-07	-1.885669e-06	-4.070572e-09	-1.434502e+01	-2.736719e+02
8.500000e-07	-1.881214e-06	-4.072107e-09	-1.431113e+01	-2.733086e+02
8.600000e-07	-1.876715e-06	-4.069928e-09	-1.427690e+01	-2.729324e+02
8.700000e-07	-1.872173e-06	-4.038533e-09	-1.424235e+01	-2.725421e+02
8.800000e-07	-1.867597e-06	-4.028446e-09	-1.420754e+01	-2.721373e+02
8.900000e-07	-1.862984e-06	-4.024967e-09	-1.417244e+01	-2.717172e+02
9.000000e-07	-1.858311e-06	-4.022994e-09	-1.413689e+01	-2.712818e+02
9.100000e-07	-1.853583e-06	-4.011461e-09	-1.410093e+01	-2.708309e+02
9.200000e-07	-1.848812e-06	-3.997149e-09	-1.406463e+01	-2.703650e+02
9.300000e-07	-1.843998e-06	-4.006357e-09	-1.402801e+01	-2.698846e+02
9.400000e-07	-1.839131e-06	-4.002306e-09	-1.399098e+01	-2.693904e+02
9.500000e-07	-1.834219e-06	-3.994690e-09	-1.395362e+01	-2.688835e+02
9.600000e-07	-1.829255e-06	-3.974590e-09	-1.391586e+01	-2.683651e+02
9.700000e-07	-1.824242e-06	-3.966453e-09	-1.387772e+01	-2.678365e+02
9.800000e-07	-1.819180e-06	-3.967993e-09	-1.383921e+01	-2.672993e+02
9.900000e-07	-1.814052e-06	-3.952362e-09	-1.380020e+01	-2.667550e+02
1.000000e-06	-1.808864e-06	-3.937118e-09	-1.376073e+01	-2.662051e+02
1.010000e-06	-1.803598e-06	-3.920451e-09	-1.372067e+01	-2.656512e+02
1.020000e-06	-1.798267e-06	-3.922485e-09	-1.368011e+01	-2.650947e+02
1.030000e-06	-1.792907e-06	-3.921589e-09	-1.363934e+01	-2.645371e+02
1.040000e-06	-1.787511e-06	-3.913278e-09	-1.359830e+01	-2.639794e+02
1.050000e-06	-1.782063e-06	-3.905468e-09	-1.355685e+01	-2.634228e+02
1.060000e-06	-1.776553e-06	-3.896808e-09	-1.351493e+01	-2.628681e+02
1.070000e-06	-1.770998e-06	-3.891606e-09	-1.347267e+01	-2.623158e+02
1.080000e-06	-1.765403e-06	-3.870546e-09	-1.343011e+01	-2.617663e+02
1.090000e-06	-1.759761e-06	-3.855938e-09	-1.338719e+01	-2.612197e+02
1.100000e-06	-1.754084e-06	-3.847427e-09	-1.334400e+01	-2.606759e+02
1.110000e-06	-1.748373e-06	-3.843668e-09	-1.330055e+01	-2.601346e+02
1.120000e-06	-1.742619e-06	-3.838428e-09	-1.325679e+01	-2.595953e+02
1.130000e-06	-1.736830e-06	-3.824265e-09	-1.321274e+01	-2.590571e+02
1.140000e-06	-1.730982e-06	-3.822296e-09	-1.316825e+01	-2.585192e+02
1.150000e-06	-1.725058e-06	-3.816823e-09	-1.312319e+01	-2.579807e+02
1.160000e-06	-1.719086e-06	-3.808142e-09	-1.307776e+01	-2.574405e+02
1.170000e-06	-1.713071e-06	-3.792556e-09	-1.303200e+01	-2.568975e+02
1.180000e-06	-1.707005e-06	-3.778193e-09	-1.298585e+01	-2.563505e+02
1.190000e-06	-1.700893e-06	-3.773279e-09	-1.293935e+01	-2.557986e+02
1.200000e-06	-1.694750e-06	-3.767883e-09	-1.289262e+01	-2.552407e+02
1.210000e-06	-1.688577e-06	-3.761995e-09	-1.284567e+01	-2.546759e+02
1.220000e-06	-1.682366e-06	-3.749968e-09	-1.279842e+01	-2.541036e+02
1.230000e-06	-1.676117e-06	-3.746828e-09	-1.275087e+01	-2.535232e+02
1.240000e-06	-1.669818e-06	-3.741096e-09	-1.270295e+01	-2.529342e+02
1.250000e-06	-1.663481e-06	-3.726936e-09	-1.265475e+01	-2.523365e+02
1.260000e-06	-1.657117e-06	-3.710124e-09	-1.260633e+01	-2.517300e+02
1.270000e-06	-1.650704e-06	-3.692958e-09	-1.255755e+01	-2.511149e+02
1.280000e-06	-1.644247e-06	-3.686459e-09	-1.250843e+01	-2.504915e+02
1.290000e-06	-1.637749e-06	-3.681455e-09	-1.245900e+01	-2.498604e+02
1.300000e-06	-1.631217e-06	-3.675948e-09	-1.240930e+01	-2.492222e+02
1.310000e-06	-1.624638e-06	-3.666880e-09	-1.235925e+01	-2.485776e+02
1.320000e-06	-1.618009e-06	-3.657586e-09	-1.230883e+01	-2.479273e+02
1.330000e-06	-1.611335e-06	-3.648707e-09	-1.225805e+01	-2.472723e+02
1.340000e-06	-1.604606e-06	-3.635952e-09	-1.220686e+01	-2.466133e+02
1.350000e-06	-1.597831e-06	-3.625661e-09	-1.215532e+01	-2.459511e+02
1.360000e-06	-1.591010e-06	-3.613749e-09	-1.210343e+01	-2.452865e+02
1.370000e-06	-1.584148e-06	-3.603926e-09	-1.205123e+01	-2.446199e+02
1.380000e-06	-1.577250e-06	-3.591124e-09	-1.199875e+01	-2.439519e+02
1.390000e-06	-1.570321e-06	-3.576097e-09	-1.194604e+01	-2.432827e+02
1.400000e-06	-1.563362e-06	-3.564985e-09	-1.189310e+01	-2.426125e+02
1.410000e-06	-1.556368e-06	-3.555406e-09	-1.183990e+01	-2.419413e+02
1.420000e-06	-1.549337e-06	-3.551218e-09	-1.178641e+01	-2.412689e+02
1.430000e-06	-1.542264e-06	-3.542860e-09	-1.173261e+01	-2.405948e+02
1.440000e-06	-1.535149e-06	-3.536097e-09	-1.167847e+01	-2.399186e+02
1.450000e-06	-1.527994e-06	-3.530046e-09	-1.162404e+01	-2.392398e+02
1.460000e-06	-1.520806e-06	-3.518203e-09	-1.156936e+01	-2.385576e+02
1.470000e-06	-1.513579e-06	-3.502789e-09	-1.151438e+01	-2.378713e+02
1.480000e-06	-1.506308e-06	-3.482005e-09	-1.145907e+01	-2.371802e+02
1.490000e-06	-1.499004e-06	-3.470405e-09	-1.140351e+01	-2.364836e+02
1.500000e-06	-1.491673e-06	-3.464699e-09	-1.134774e+01	-2.357809e+02
1.510000e-06	-1.484315e-06	-3.455007e-09	-1.129176e+01	-2.350715e+02
1.520000e-06	-1.476909e-06	-3.443700e-09	-1.123542e+01	-2.343551e+02
1.530000e-06	-1.469436e-06	-3.428022e-09	-1.117858e+01	-2.336315e+02
1.540000e-06	-1.461910e-06	-3.418981e-09	-1.112132e+01	-2.329006e+02
1.550000e-06	-1.454338e-06	-3.409325e-09	-1.106371e+01	-2.321626e+02
1.560000e-06	-1.446716e-06	-3.394636e-09	-1.100573e+01	-2.314177e+02
1.570000e-06	-1.439051e-06	-3.379902e-09	-1.094742e+01	-2.306664e+02
1.580000e-06	-1.431345e-06	-3.363892e-09	-1.088880e+01	-2.299093e+02
1.590000e-06	-1.423603e-06	-3.352425e-09	-1.082990e+01	-2.291472e+02
1.600000e-06	-1.415830e-06	-3.338212e-09	-1.077077e+01	-2.283809e+02
1.610000e-06	-1.408027e-06	-3.324630e-09	-1.071141e+01	-2.276111e+02
1.620000e-06	-1.400185e-06	-3.314638e-09	-1.065176e+01	-2.268389e+02
1.630000e-06	-1.392307e-06	-3.311779e-09	-1.059182e+01	-2.260649e+02
1.640000e-06	-1.384394e-06	-3.306952e-09	-1.053162e+01	-2.252900e+02
1.650000e-06	-1.376431e-06	-3.291030e-09	-1.047104e+01	-2.245148e+02
1.660000e-06	-1.368424e-06	-3.274650e-09	-1.041014e+01	-2.237397e+02
1.670000e-06	-1.360371e-06	-3.255176e-09	-1.034887e+01	-2.229650e+02
1.680000e-06	-1.352275e-06	-3.238983e-09	-1.028729e+01	-2.221909e+02
1.690000e-06	-1.344140e-06	-3.223510e-09	-1.022540e+01	-2.214173e+02
1.700000e-06	-1.335955e-06	-3.209862e-09	-1.016313e+01	-2.206438e+02
1.710000e-06	-1.327726e-06	-3.201230e-09	-1.010053e+01	-2.198701e+02
1.720000e-06	-1.319478e-06	-3.188052e-09	-1.003778e+01	-2.190955e+02
1.730000e-06	-1.311212e-06	-3.177147e-09	-9.974901e+00	-2.183193e+02
1.740000e-06	-1.302913e-06	-3.164813e-09	-9.911763e+00	-2.175407e+02
1.750000e-06	-1.294584e-06	-3.155662e-09	-9.848409e+00	-2.167587e+02
1.760000e-06	-1.286220e-06	-3.146269e-09	-9.784774e+00	-2.159725e+02
1.770000e-06	-1.277809e-06	-3.131513e-09	-9.720792e+00	-2.151812e+02
1.780000e-06	-1.269372e-06	-3.116422e-09	-9.656605e+00	-2.143839e+02
1.790000e-06	-1.260918e-06	-3.098822e-09	-9.592292e+00	-2.135801e+02
1.800000e-06	-1.252443e-06	-3.084999e-09	-9.527823e+00	-2.127692e+02
1.810000e-06	-1.243942e-06	-3.069772e-09	-9.463153e+00	-2.119506e+02
1.820000e-06	-1.235411e-06	-3.053089e-09	-9.398256e+00	-2.111244e+02
1.830000e-06	-1.226865e-06	-3.037769e-09	-9.333242e+00	-2.102902e+02
1.840000e-06	-1.218299e-06	-3.030171e-09	-9.268076e+00	-2.094484e+02
1.850000e-06	-1.209685e-06	-3.026967e-09	-9.202546e+00	-2.085991e+02
1.860000e-06	-1.201038e-06	-3.014358e-09	-9.136764e+00	-2.077428e+02
1.870000e-06	-1.192372e-06	-2.998752e-09	-9.070840e+00	-2.068798e+02
1.880000e-06	-1.183684e-06	-2.983220e-09	-9.004746e+00	-2.060108e+02
1.890000e-06	-1.174961e-06	-2.967744e-09	-8.938386e+00	-2.051363e+02
1.900000e-06	-1.166194e-06	-2.951598e-09	-8.871695e+00	-2.042568e+02
1.910000e-06	-1.157402e-06	-2.934692e-09	-8.804811e+00	-2.033728e+02
1.920000e-06	-1.148582e-06	-2.923602e-09	-8.737713e+00	-2.024846e+02
1.930000e-06	-1.139728e-06	-2.919311e-09	-8.670357e+00	-2.015926e+02
1.940000e-06	-1.130848e-06	-2.917406e-09	-8.602803e+00	-2.006967e+02
1.950000e-06	-1.121955e-06	-2.905412e-09	-8.535152e+00	-1.997969e+02
1.960000e-06	-1.113052e-06	-2.885398e-09	-8.467421e+00	-1.988931e+02
1.970000e-06	-1.104123e-06	-2.866662e-09	-8.399495e+00	-1.979849e+02
1.980000e-06	-1.095170e-06	-2.849714e-09	-8.331385e+00	-1.970717e+02
1.990000e-06	-1.086194e-06	-2.830152e-09	-8.263100e+00	-1.961529e+02
2.000000e-06	-1.077182e-06	-2.809165e-09	-8.194546e+00	-1.952279e+02
2.010000e-06	-1.068125e-06	-2.796991e-09	-8.125645e+00	-1.942960e+02
2.020000e-06	-1.059031e-06	-2.787243e-09	-8.056460e+00	-1.933564e+02
2.030000e-06	-1.049906e-06	-2.776431e-09	-7.987045e+00	-1.924086e+02
2.040000e-06	-1.040740e-06	-2.762021e-09	-7.917314e+00	-1.914518e+02
2.050000e-06	-1.031531e-06	-2.745031e-09	-7.847261e+00	-1.904858e+02
2.060000e-06	-1.022289e-06	-2.729460e-09	-7.776950e+00	-1.895102e+02
2.070000e-06	-1.013017e-06	-2.710400e-09	-7.706417e+00	-1.885250e+02
2.080000e-06	-1.003726e-06	-2.690927e-09	-7.635736e+00	-1.875303e+02
2.090000e-06	-9.944146e-07	-2.672465e-09	-7.564899e+00	-1.865263e+02
2.100000e-06	-9.850850e-07	-2.657021e-09	-7.493926e+00	-1.855137e+02
2.110000e-06	-9.757399e-07	-2.643731e-09	-7.422834e+00	-1.844930e+02
2.120000e-06	-9.663684e-07	-2.631384e-09	-7.351541e+00	-1.834652e+02
2.130000e-06	-9.569685e-07	-2.620375e-09	-7.280032e+00	-1.824310e+02
2.140000e-06	-9.475606e-07	-2.606312e-09	-7.208463e+00	-1.813916e+02
2.150000e-06	-9.381377e-07	-2.592262e-09	-7.136779e+00	-1.803479e+02
2.160000e-06	-9.286882e-07	-2.576169e-09	-7.064893e+00	-1.793010e+02
2.170000e-06	-9.192184e-07	-2.556537e-09	-6.992853e+00	-1.782516e+02
2.180000e-06	-9.097174e-07	-2.536357e-09	-6.920574e+00	-1.772007e+02
2.190000e-06	-9.001917e-07	-2.521695e-09	-6.848109e+00	-1.761487e+02
2.200000e-06	-8.906423e-07	-2.511003e-09	-6.775463e+00	-1.750962e+02
2.210000e-06	-8.810809e-07	-2.493838e-09	-6.702726e+00	-1.740434e+02
2.220000e-06	-8.715033e-07	-2.474801e-09	-6.629866e+00	-1.729903e+02
2.230000e-06	-8.618919e-07	-2.457579e-09	-6.556748e+00	-1.719367e+02
2.240000e-06	-8.522564e-07	-2.442976e-09	-6.483446e+00	-1.708822e+02
2.250000e-06	-8.425963e-07	-2.431595e-09	-6.409958e+00	-1.698262e+02
2.260000e-06	-8.329116e-07	-2.420949e-09	-6.336283e+00	-1.687681e+02
2.270000e-06	-8.232142e-07	-2.409535e-09	-6.262511e+00	-1.677072e+02
2.280000e-06	-8.135084e-07	-2.392455e-09	-6.188675e+00	-1.666426e+02
2.290000e-06	-8.037891e-07	-2.373174e-09	-6.114737e+00	-1.655736e+02
2.300000e-06	-7.940561e-07	-2.352529e-09	-6.040694e+00	-1.644994e+02
2.310000e-06	-7.843002e-07	-2.328968e-09	-5.966477e+00	-1.634194e+02
2.320000e-06	-7.745210e-07	-2.310699e-09	-5.892083e+00	-1.623333e+02
2.330000e-06	-7.647091e-07	-2.300739e-09	-5.817440e+00	-1.612407e+02
2.340000e-06	-7.548649e-07	-2.292992e-09	-5.742551e+00	-1.601417e+02
2.350000e-06	-7.449992e-07	-2.279094e-09	-5.667499e+00	-1.590365e+02
2.360000e-06	-7.351040e-07	-2.261269e-09	-5.592223e+00	-1.579254e+02
2.370000e-06	-7.251827e-07	-2.241733e-09	-5.516747e+00	-1.568092e+02
2.380000e-06	-7.152276e-07	-2.221337e-09	-5.441015e+00	-1.556886e+02
2.390000e-06	-7.052384e-07	-2.200062e-09	-5.365023e+00	-1.545646e+02
2.400000e-06	-6.952270e-07	-2.176993e-09	-5.288862e+00	-1.534384e+02
2.410000e-06	-6.851956e-07	-2.159757e-09	-5.212550e+00	-1.523110e+02
2.420000e-06	-6.751525e-07	-2.147925e-09	-5.136148e+00	-1.511837e+02
2.430000e-06	-6.650919e-07	-2.136943e-09	-5.059613e+00	-1.500574e+02
2.440000e-06	-6.550108e-07	-2.123047e-09	-4.982922e+00	-1.489331e+02
2.450000e-06	-6.449237e-07	-2.108378e-09	-4.906186e+00	-1.478116e+02
2.460000e-06	-6.348298e-07	-2.093043e-09	-4.829398e+00	-1.466934e+02
2.470000e-06	-6.247268e-07	-2.073534e-09	-4.752541e+00	-1.455790e+02
2.480000e-06	-6.146150e-07	-2.052276e-09	-4.675616e+00	-1.444683e+02
2.490000e-06	-6.044952e-07	-2.032848e-09	-4.598631e+00	-1.433610e+02
2.500000e-06	-5.943687e-07	-2.017589e-09	-4.521594e+00	-1.422567e+02
2.510000e-06	-5.842315e-07	-2.003498e-09	-4.444476e+00	-1.411545e+02
2.520000e-06	-5.740770e-07	-1.991219e-09	-4.367227e+00	-1.400534e+02
2.530000e-06	-5.638978e-07	-1.977741e-09	-4.289791e+00	-1.389523e+02
2.540000e-06	-5.537003e-07	-1.960559e-09	-4.212214e+00	-1.378497e+02
2.550000e-06	-5.434967e-07	-1.944423e-09	-4.134591e+00	-1.367443e+02
2.560000e-06	-5.332788e-07	-1.927581e-09	-4.056860e+00	-1.356344e+02
2.570000e-06	-5.230433e-07	-1.906773e-09	-3.978994e+00	-1.345188e+02
2.580000e-06	-5.127940e-07	-1.883995e-09	-3.901023e+00	-1.333961e+02
2.590000e-06	-5.025348e-07	-1.865429e-09	-3.822978e+00	-1.322651e+02
2.600000e-06	-4.922714e-07	-1.850189e-09	-3.744900e+00	-1.311248e+02
2.610000e-06	-4.819902e-07	-1.832444e-09	-3.666687e+00	-1.299745e+02
2.620000e-06	-4.716833e-07	-1.813083e-09	-3.588279e+00	-1.288137e+02
2.630000e-06	-4.613703e-07	-1.794568e-09	-3.509824e+00	-1.276423e+02
2.640000e-06	-4.510560e-07	-1.780645e-09	-3.431359e+00	-1.264604e+02
2.650000e-06	-4.407234e-07	-1.767326e-09	-3.352755e+00	-1.252683e+02
2.660000e-06	-4.303719e-07	-1.750562e-09	-3.274007e+00	-1.240667e+02
2.670000e-06	-4.200001e-07	-1.730449e-09	-3.195104e+00	-1.228565e+02
2.680000e-06	-4.096103e-07	-1.709696e-09	-3.116065e+00	-1.216386e+02
2.690000e-06	-3.992194e-07	-1.691874e-09	-3.037018e+00	-1.204141e+02
2.700000e-06	-3.888230e-07	-1.673870e-09	-2.957928e+00	-1.191843e+02
2.710000e-06	-3.784116e-07	-1.656307e-09	-2.878724e+00	-1.179503e+02
2.720000e-06	-3.679862e-07	-1.639599e-09	-2.799414e+00	-1.167133e+02
2.730000e-06	-3.575545e-07	-1.624228e-09	-2.720056e+00	-1.154743e+02
2.740000e-06	-3.471093e-07	-1.611688e-09	-2.640596e+00	-1.142340e+02
2.750000e-06	-3.366610e-07	-1.595994e-09	-2.561112e+00	-1.129933e+02
2.760000e-06	-3.262139e-07	-1.576867e-09	-2.481636e+00	-1.117524e+02
2.770000e-06	-3.157541e-07	-1.557465e-09	-2.402065e+00	-1.105117e+02
2.780000e-06	-3.052900e-07	-1.537766e-09	-2.322460e+00	-1.092711e+02
2.790000e-06	-2.948228e-07	-1.517595e-09	-2.242832e+00	-1.080302e+02
2.800000e-06	-2.843468e-07	-1.496552e-09	-2.163137e+00	-1.067886e+02
2.810000e-06	-2.738639e-07	-1.477734e-09	-2.083390e+00	-1.055455e+02
2.820000e-06	-2.633769e-07	-1.461302e-09	-2.003611e+00	-1.043000e+02
2.830000e-06	-2.528790e-07	-1.445479e-09	-1.923749e+00	-1.030512e+02
2.840000e-06	-2.423830e-07	-1.429346e-09	-1.843902e+00	-1.017981e+02
