# Temperatura_=_20.0
# Concentracion g/m^3_=_10000.0
# C_Vs_to_Am_M_A/Vsm_=_65563218390.804596
# pendiente_HvsI_1/m_=_3716.3
# ordenada_HvsI_A/m_=_1297.0
# frecuencia_Hz_=_81143.17488879869

Tiempo_(s)	Campo_(V.s)	Magnetizacion_(V.s)	Campo_(kA/m)	Magnetizacion_(A/m)
0.000000e+00	-2.074447e-06	-1.345889e-10	-1.577571e+01	6.819404e-01
1.000000e-08	-2.074473e-06	-5.568170e-11	-1.577590e+01	6.893687e-01
2.000000e-08	-2.074524e-06	2.852790e-11	-1.577630e+01	6.947926e-01
3.000000e-08	-2.074526e-06	6.863971e-11	-1.577631e+01	6.981445e-01
4.000000e-08	-2.074415e-06	5.939336e-11	-1.577547e+01	6.994198e-01
5.000000e-08	-2.074212e-06	-5.868145e-11	-1.577392e+01	6.986798e-01
6.000000e-08	-2.073930e-06	-1.336344e-10	-1.577177e+01	6.960501e-01
7.000000e-08	-2.073600e-06	-1.139367e-10	-1.576927e+01	6.917169e-01
8.000000e-08	-2.073207e-06	1.415075e-11	-1.576628e+01	6.859198e-01
9.000000e-08	-2.072784e-06	4.199653e-11	-1.576306e+01	6.789427e-01
1.000000e-07	-2.072366e-06	4.123241e-11	-1.575988e+01	6.711016e-01
1.100000e-07	-2.071887e-06	8.802432e-11	-1.575624e+01	6.627321e-01
1.200000e-07	-2.071340e-06	3.885948e-11	-1.575208e+01	6.541746e-01
1.300000e-07	-2.070725e-06	-2.457161e-11	-1.574740e+01	6.457599e-01
1.400000e-07	-2.070076e-06	-1.235787e-10	-1.574247e+01	6.377955e-01
1.500000e-07	-2.069362e-06	-9.212078e-11	-1.573704e+01	6.305518e-01
1.600000e-07	-2.068567e-06	-1.036708e-11	-1.573099e+01	6.242510e-01
1.700000e-07	-2.067741e-06	5.412087e-11	-1.572471e+01	6.190579e-01
1.800000e-07	-2.066868e-06	9.542014e-11	-1.571807e+01	6.150727e-01
1.900000e-07	-2.065948e-06	9.174448e-12	-1.571107e+01	6.123276e-01
2.000000e-07	-2.064954e-06	-1.101558e-11	-1.570352e+01	6.107859e-01
2.100000e-07	-2.063918e-06	-4.851964e-11	-1.569564e+01	6.103448e-01
2.200000e-07	-2.062812e-06	-2.944428e-11	-1.568723e+01	6.108405e-01
2.300000e-07	-2.061622e-06	-6.943101e-12	-1.567817e+01	6.120569e-01
2.400000e-07	-2.060386e-06	-1.419629e-11	-1.566878e+01	6.137360e-01
2.500000e-07	-2.059085e-06	2.673162e-11	-1.565888e+01	6.155908e-01
2.600000e-07	-2.057739e-06	3.574963e-12	-1.564865e+01	6.173191e-01
2.700000e-07	-2.056320e-06	1.728511e-11	-1.563786e+01	6.186183e-01
2.800000e-07	-2.054835e-06	-1.863567e-11	-1.562656e+01	6.192000e-01
2.900000e-07	-2.053300e-06	-2.753388e-11	-1.561489e+01	6.188037e-01
3.000000e-07	-2.051709e-06	-8.946252e-12	-1.560279e+01	6.172098e-01
3.100000e-07	-2.050054e-06	-5.107052e-12	-1.559021e+01	6.142499e-01
3.200000e-07	-2.048314e-06	2.394455e-11	-1.557697e+01	6.098152e-01
3.300000e-07	-2.046525e-06	-2.246757e-11	-1.556337e+01	6.038617e-01
3.400000e-07	-2.044684e-06	-2.794490e-11	-1.554937e+01	5.964125e-01
3.500000e-07	-2.042797e-06	-3.661776e-11	-1.553501e+01	5.875565e-01
3.600000e-07	-2.040860e-06	-2.096364e-11	-1.552029e+01	5.774446e-01
3.700000e-07	-2.038856e-06	-7.562079e-12	-1.550505e+01	5.662818e-01
3.800000e-07	-2.036805e-06	-3.153063e-11	-1.548945e+01	5.543178e-01
3.900000e-07	-2.034712e-06	-1.831708e-11	-1.547353e+01	5.418340e-01
4.000000e-07	-2.032589e-06	-3.634042e-11	-1.545738e+01	5.291300e-01
4.100000e-07	-2.030430e-06	-2.144901e-11	-1.544097e+01	5.165083e-01
4.200000e-07	-2.028235e-06	-3.206311e-11	-1.542428e+01	5.042586e-01
4.300000e-07	-2.025982e-06	-3.474459e-11	-1.540714e+01	4.926429e-01
4.400000e-07	-2.023670e-06	-1.917321e-11	-1.538956e+01	4.818812e-01
4.500000e-07	-2.021320e-06	-2.236593e-11	-1.537169e+01	4.721391e-01
4.600000e-07	-2.018901e-06	-4.696698e-12	-1.535329e+01	4.635175e-01
4.700000e-07	-2.016423e-06	-3.460732e-11	-1.533444e+01	4.560454e-01
4.800000e-07	-2.013909e-06	-3.574212e-11	-1.531533e+01	4.496759e-01
4.900000e-07	-2.011366e-06	-3.351810e-11	-1.529599e+01	4.442848e-01
5.000000e-07	-2.008756e-06	-2.264535e-11	-1.527614e+01	4.396740e-01
5.100000e-07	-2.006058e-06	-1.476784e-11	-1.525563e+01	4.355769e-01
5.200000e-07	-2.003301e-06	-4.157528e-11	-1.523466e+01	4.316683e-01
5.300000e-07	-2.000475e-06	-3.471358e-11	-1.521317e+01	4.275760e-01
5.400000e-07	-1.997595e-06	-3.894740e-11	-1.519126e+01	4.228954e-01
5.500000e-07	-1.994679e-06	-2.493933e-11	-1.516909e+01	4.172054e-01
5.600000e-07	-1.991726e-06	-2.956961e-11	-1.514663e+01	4.100857e-01
5.700000e-07	-1.988732e-06	-2.932350e-11	-1.512386e+01	4.011340e-01
5.800000e-07	-1.985673e-06	-7.325635e-12	-1.510060e+01	3.899830e-01
5.900000e-07	-1.982558e-06	-1.077332e-11	-1.507691e+01	3.763160e-01
6.000000e-07	-1.979409e-06	-7.202785e-12	-1.505296e+01	3.598809e-01
6.100000e-07	-1.976228e-06	-2.620102e-11	-1.502877e+01	3.405014e-01
6.200000e-07	-1.973003e-06	-1.874672e-11	-1.500425e+01	3.180855e-01
6.300000e-07	-1.969725e-06	-8.056209e-12	-1.497932e+01	2.926303e-01
6.400000e-07	-1.966397e-06	-6.602850e-12	-1.495401e+01	2.642240e-01
6.500000e-07	-1.963020e-06	-5.775634e-12	-1.492833e+01	2.330428e-01
6.600000e-07	-1.959595e-06	-2.302781e-11	-1.490228e+01	1.993461e-01
6.700000e-07	-1.956092e-06	-1.485895e-11	-1.487565e+01	1.634670e-01
6.800000e-07	-1.952510e-06	-2.080179e-11	-1.484840e+01	1.258006e-01
6.900000e-07	-1.948872e-06	-1.804809e-11	-1.482074e+01	8.678935e-02
7.000000e-07	-1.945189e-06	-1.634933e-11	-1.479273e+01	4.690739e-02
7.100000e-07	-1.941470e-06	-1.236656e-11	-1.476444e+01	6.643040e-03
7.200000e-07	-1.937704e-06	3.625708e-12	-1.473581e+01	-3.351857e-02
7.300000e-07	-1.933897e-06	-4.798060e-12	-1.470685e+01	-7.311272e-02
7.400000e-07	-1.930038e-06	-7.673823e-12	-1.467751e+01	-1.117111e-01
7.500000e-07	-1.926133e-06	-2.135554e-11	-1.464781e+01	-1.489359e-01
7.600000e-07	-1.922175e-06	-2.324100e-11	-1.461771e+01	-1.844719e-01
7.700000e-07	-1.918160e-06	-2.482478e-11	-1.458718e+01	-2.180754e-01
7.800000e-07	-1.914108e-06	-2.891559e-11	-1.455637e+01	-2.495798e-01
7.900000e-07	-1.910013e-06	-2.110070e-11	-1.452523e+01	-2.788981e-01
8.000000e-07	-1.905889e-06	-2.075455e-11	-1.449386e+01	-3.060221e-01
8.100000e-07	-1.901737e-06	-8.440874e-12	-1.446228e+01	-3.310174e-01
8.200000e-07	-1.897520e-06	-1.439114e-11	-1.443022e+01	-3.540162e-01
8.300000e-07	-1.893216e-06	-2.185698e-11	-1.439748e+01	-3.752071e-01
8.400000e-07	-1.888834e-06	-2.828422e-11	-1.436416e+01	-3.948224e-01
8.500000e-07	-1.884398e-06	-3.342045e-11	-1.433042e+01	-4.131241e-01
8.600000e-07	-1.879923e-06	-2.662049e-11	-1.429640e+01	-4.303891e-01
8.700000e-07	-1.875418e-06	-3.130245e-11	-1.426213e+01	-4.468936e-01
8.800000e-07	-1.870871e-06	-2.604655e-11	-1.422756e+01	-4.628987e-01
8.900000e-07	-1.866278e-06	-2.511102e-11	-1.419263e+01	-4.786365e-01
9.000000e-07	-1.861630e-06	-2.276582e-11	-1.415728e+01	-4.942984e-01
9.100000e-07	-1.856929e-06	-2.350058e-11	-1.412153e+01	-5.100256e-01
9.200000e-07	-1.852181e-06	-2.991774e-11	-1.408543e+01	-5.259022e-01
9.300000e-07	-1.847376e-06	-2.872842e-11	-1.404889e+01	-5.419513e-01
9.400000e-07	-1.842541e-06	-3.384288e-11	-1.401211e+01	-5.581346e-01
9.500000e-07	-1.837668e-06	-3.471144e-11	-1.397506e+01	-5.743547e-01
9.600000e-07	-1.832746e-06	-4.475781e-11	-1.393762e+01	-5.904610e-01
9.700000e-07	-1.827783e-06	-4.844254e-11	-1.389988e+01	-6.062572e-01
9.800000e-07	-1.822754e-06	-4.231894e-11	-1.386164e+01	-6.215125e-01
9.900000e-07	-1.817648e-06	-3.768558e-11	-1.382281e+01	-6.359737e-01
1.000000e-06	-1.812453e-06	-3.186005e-11	-1.378330e+01	-6.493787e-01
1.010000e-06	-1.807195e-06	-3.777080e-11	-1.374332e+01	-6.614702e-01
1.020000e-06	-1.801902e-06	-3.652522e-11	-1.370307e+01	-6.720102e-01
1.030000e-06	-1.796558e-06	-3.949497e-11	-1.366242e+01	-6.807923e-01
1.040000e-06	-1.791162e-06	-4.721616e-11	-1.362139e+01	-6.876538e-01
1.050000e-06	-1.785718e-06	-5.466728e-11	-1.357999e+01	-6.924848e-01
1.060000e-06	-1.780234e-06	-5.860165e-11	-1.353828e+01	-6.952358e-01
1.070000e-06	-1.774697e-06	-4.851476e-11	-1.349618e+01	-6.959213e-01
1.080000e-06	-1.769123e-06	-4.432250e-11	-1.345378e+01	-6.946215e-01
1.090000e-06	-1.763512e-06	-4.065612e-11	-1.341112e+01	-6.914804e-01
1.100000e-06	-1.757858e-06	-4.162013e-11	-1.336812e+01	-6.867005e-01
1.110000e-06	-1.752168e-06	-3.986070e-11	-1.332485e+01	-6.805355e-01
1.120000e-06	-1.746445e-06	-3.707255e-11	-1.328132e+01	-6.732798e-01
1.130000e-06	-1.740675e-06	-4.363322e-11	-1.323745e+01	-6.652567e-01
1.140000e-06	-1.734854e-06	-4.997411e-11	-1.319318e+01	-6.568045e-01
1.150000e-06	-1.728990e-06	-5.855949e-11	-1.314858e+01	-6.482624e-01
1.160000e-06	-1.723047e-06	-5.827674e-11	-1.310339e+01	-6.399559e-01
1.170000e-06	-1.717034e-06	-5.600873e-11	-1.305766e+01	-6.321829e-01
1.180000e-06	-1.710986e-06	-5.347646e-11	-1.301167e+01	-6.252009e-01
1.190000e-06	-1.704890e-06	-4.979000e-11	-1.296531e+01	-6.192162e-01
1.200000e-06	-1.698764e-06	-5.003713e-11	-1.291872e+01	-6.143752e-01
1.210000e-06	-1.692612e-06	-4.856712e-11	-1.287194e+01	-6.107586e-01
1.220000e-06	-1.686429e-06	-5.401520e-11	-1.282491e+01	-6.083785e-01
1.230000e-06	-1.680203e-06	-5.959456e-11	-1.277757e+01	-6.071785e-01
1.240000e-06	-1.673934e-06	-6.161956e-11	-1.272989e+01	-6.070373e-01
1.250000e-06	-1.667621e-06	-5.722856e-11	-1.268189e+01	-6.077748e-01
1.260000e-06	-1.661252e-06	-5.066384e-11	-1.263345e+01	-6.091615e-01
1.270000e-06	-1.654845e-06	-4.815864e-11	-1.258473e+01	-6.109297e-01
1.280000e-06	-1.648411e-06	-4.159615e-11	-1.253580e+01	-6.127863e-01
1.290000e-06	-1.641940e-06	-3.922773e-11	-1.248659e+01	-6.144276e-01
1.300000e-06	-1.635430e-06	-3.932819e-11	-1.243708e+01	-6.155535e-01
1.310000e-06	-1.628890e-06	-4.367305e-11	-1.238734e+01	-6.158825e-01
1.320000e-06	-1.622312e-06	-4.639007e-11	-1.233732e+01	-6.151647e-01
1.330000e-06	-1.615671e-06	-4.127543e-11	-1.228681e+01	-6.131944e-01
1.340000e-06	-1.608988e-06	-3.763517e-11	-1.223600e+01	-6.098200e-01
1.350000e-06	-1.602259e-06	-3.684721e-11	-1.218482e+01	-6.049511e-01
1.360000e-06	-1.595467e-06	-4.229101e-11	-1.213317e+01	-5.985632e-01
1.370000e-06	-1.588627e-06	-4.374214e-11	-1.208115e+01	-5.906988e-01
1.380000e-06	-1.581743e-06	-3.890733e-11	-1.202880e+01	-5.814656e-01
1.390000e-06	-1.574828e-06	-3.403746e-11	-1.197622e+01	-5.710310e-01
1.400000e-06	-1.567889e-06	-3.026585e-11	-1.192345e+01	-5.596143e-01
1.410000e-06	-1.560919e-06	-2.851200e-11	-1.187044e+01	-5.474757e-01
1.420000e-06	-1.553897e-06	-2.489155e-11	-1.181704e+01	-5.349035e-01
1.430000e-06	-1.546846e-06	-2.694883e-11	-1.176342e+01	-5.221997e-01
1.440000e-06	-1.539761e-06	-3.323582e-11	-1.170954e+01	-5.096648e-01
1.450000e-06	-1.532628e-06	-4.021614e-11	-1.165529e+01	-4.975817e-01
1.460000e-06	-1.525456e-06	-4.276341e-11	-1.160075e+01	-4.862018e-01
1.470000e-06	-1.518239e-06	-3.397857e-11	-1.154587e+01	-4.757303e-01
1.480000e-06	-1.510978e-06	-2.863511e-11	-1.149065e+01	-4.663148e-01
1.490000e-06	-1.503686e-06	-2.636308e-11	-1.143520e+01	-4.580361e-01
1.500000e-06	-1.496378e-06	-2.558052e-11	-1.137962e+01	-4.509011e-01
1.510000e-06	-1.489033e-06	-2.782669e-11	-1.132376e+01	-4.448403e-01
1.520000e-06	-1.481630e-06	-2.954790e-11	-1.126747e+01	-4.397077e-01
1.530000e-06	-1.474188e-06	-3.343512e-11	-1.121087e+01	-4.352842e-01
1.540000e-06	-1.466683e-06	-3.322407e-11	-1.115380e+01	-4.312853e-01
1.550000e-06	-1.459106e-06	-3.216183e-11	-1.109618e+01	-4.273705e-01
1.560000e-06	-1.451488e-06	-3.038148e-11	-1.103824e+01	-4.231567e-01
1.570000e-06	-1.443830e-06	-2.831056e-11	-1.098001e+01	-4.182326e-01
1.580000e-06	-1.436143e-06	-2.597074e-11	-1.092155e+01	-4.121758e-01
1.590000e-06	-1.428426e-06	-2.228055e-11	-1.086286e+01	-4.045693e-01
1.600000e-06	-1.420672e-06	-2.397218e-11	-1.080389e+01	-3.950193e-01
1.610000e-06	-1.412876e-06	-2.546796e-11	-1.074461e+01	-3.831717e-01
1.620000e-06	-1.405034e-06	-2.907178e-11	-1.068497e+01	-3.687274e-01
1.630000e-06	-1.397152e-06	-3.458127e-11	-1.062503e+01	-3.514553e-01
1.640000e-06	-1.389233e-06	-4.013533e-11	-1.056481e+01	-3.312030e-01
1.650000e-06	-1.381279e-06	-4.517799e-11	-1.050432e+01	-3.079041e-01
1.660000e-06	-1.373290e-06	-4.648905e-11	-1.044356e+01	-2.815823e-01
1.670000e-06	-1.365253e-06	-4.547968e-11	-1.038245e+01	-2.523518e-01
1.680000e-06	-1.357146e-06	-3.960261e-11	-1.032080e+01	-2.204138e-01
1.690000e-06	-1.348996e-06	-3.581740e-11	-1.025882e+01	-1.860504e-01
1.700000e-06	-1.340827e-06	-3.528446e-11	-1.019669e+01	-1.496140e-01
1.710000e-06	-1.332612e-06	-3.679621e-11	-1.013422e+01	-1.115151e-01
1.720000e-06	-1.324366e-06	-3.988685e-11	-1.007151e+01	-7.220718e-02
1.730000e-06	-1.316107e-06	-3.982877e-11	-1.000870e+01	-3.217025e-02
1.740000e-06	-1.307820e-06	-4.172465e-11	-9.945680e+00	8.106453e-03
1.750000e-06	-1.299497e-06	-4.444383e-11	-9.882383e+00	4.814203e-02
1.760000e-06	-1.291144e-06	-4.725666e-11	-9.818864e+00	8.748077e-02
1.770000e-06	-1.282754e-06	-4.724061e-11	-9.755059e+00	1.257077e-01
1.780000e-06	-1.274318e-06	-4.384603e-11	-9.690905e+00	1.624623e-01
1.790000e-06	-1.265856e-06	-4.377552e-11	-9.626553e+00	1.974493e-01
1.800000e-06	-1.257375e-06	-3.999205e-11	-9.562060e+00	2.304470e-01
1.810000e-06	-1.248872e-06	-3.420999e-11	-9.497395e+00	2.613121e-01
1.820000e-06	-1.240352e-06	-3.137883e-11	-9.432602e+00	2.899807e-01
1.830000e-06	-1.231814e-06	-3.579149e-11	-9.367669e+00	3.164667e-01
1.840000e-06	-1.223256e-06	-4.361667e-11	-9.302590e+00	3.408561e-01
1.850000e-06	-1.214673e-06	-4.366210e-11	-9.237317e+00	3.632987e-01
1.860000e-06	-1.206039e-06	-3.984276e-11	-9.171655e+00	3.839972e-01
1.870000e-06	-1.197365e-06	-3.583277e-11	-9.105697e+00	4.031941e-01
1.880000e-06	-1.188684e-06	-3.471211e-11	-9.039679e+00	4.211574e-01
1.890000e-06	-1.179984e-06	-3.186683e-11	-8.973519e+00	4.381653e-01
1.900000e-06	-1.171253e-06	-2.768084e-11	-8.907116e+00	4.544910e-01
1.910000e-06	-1.162484e-06	-2.691477e-11	-8.840433e+00	4.703886e-01
1.920000e-06	-1.153676e-06	-2.621216e-11	-8.773446e+00	4.860793e-01
1.930000e-06	-1.144833e-06	-2.574436e-11	-8.706197e+00	5.017410e-01
1.940000e-06	-1.135964e-06	-2.348071e-11	-8.638753e+00	5.174985e-01
1.950000e-06	-1.127077e-06	-2.286947e-11	-8.571171e+00	5.334185e-01
1.960000e-06	-1.118185e-06	-2.439402e-11	-8.503548e+00	5.495062e-01
1.970000e-06	-1.109273e-06	-2.728291e-11	-8.435775e+00	5.657056e-01
1.980000e-06	-1.100333e-06	-2.618383e-11	-8.367786e+00	5.819031e-01
1.990000e-06	-1.091365e-06	-1.701440e-11	-8.299585e+00	5.979337e-01
2.000000e-06	-1.082368e-06	-5.899762e-12	-8.231169e+00	6.135900e-01
2.010000e-06	-1.073345e-06	2.425795e-12	-8.162549e+00	6.286334e-01
2.020000e-06	-1.064263e-06	3.279025e-12	-8.093485e+00	6.428065e-01
2.030000e-06	-1.055126e-06	1.715640e-12	-8.023998e+00	6.558471e-01
2.040000e-06	-1.045959e-06	-1.346399e-12	-7.954284e+00	6.675023e-01
2.050000e-06	-1.036761e-06	-5.182968e-12	-7.884334e+00	6.775420e-01
2.060000e-06	-1.027520e-06	-4.820936e-12	-7.814064e+00	6.857713e-01
2.070000e-06	-1.018257e-06	2.055850e-12	-7.743617e+00	6.920422e-01
2.080000e-06	-1.008979e-06	1.424961e-11	-7.673059e+00	6.962616e-01
2.090000e-06	-9.996744e-07	2.130402e-11	-7.602302e+00	6.983985e-01
2.100000e-06	-9.903607e-07	2.199418e-11	-7.531473e+00	6.984866e-01
2.110000e-06	-9.810320e-07	2.085364e-11	-7.460530e+00	6.966250e-01
2.120000e-06	-9.716846e-07	1.765848e-11	-7.389445e+00	6.929753e-01
2.130000e-06	-9.623148e-07	1.428164e-11	-7.318190e+00	6.877560e-01
2.140000e-06	-9.529252e-07	1.051153e-11	-7.246784e+00	6.812337e-01
2.150000e-06	-9.435143e-07	8.621385e-12	-7.175216e+00	6.737127e-01
2.160000e-06	-9.340717e-07	1.095476e-11	-7.103407e+00	6.655219e-01
2.170000e-06	-9.246021e-07	1.774509e-11	-7.031394e+00	6.570016e-01
2.180000e-06	-9.151025e-07	2.236293e-11	-6.959151e+00	6.484884e-01
2.190000e-06	-9.055742e-07	1.972735e-11	-6.886690e+00	6.403011e-01
2.200000e-06	-8.960313e-07	1.468790e-11	-6.814119e+00	6.327271e-01
2.210000e-06	-8.864680e-07	1.040863e-11	-6.741392e+00	6.260100e-01
2.220000e-06	-8.768715e-07	1.062242e-11	-6.668413e+00	6.203393e-01
2.230000e-06	-8.672554e-07	1.440647e-11	-6.595284e+00	6.158430e-01
2.240000e-06	-8.576246e-07	1.855996e-11	-6.522045e+00	6.125817e-01
2.250000e-06	-8.479666e-07	1.932448e-11	-6.448597e+00	6.105474e-01
2.260000e-06	-8.382892e-07	1.581676e-11	-6.375002e+00	6.096643e-01
2.270000e-06	-8.286049e-07	1.147077e-11	-6.301356e+00	6.097931e-01
2.280000e-06	-8.189002e-07	6.375299e-12	-6.227554e+00	6.107384e-01
2.290000e-06	-8.091810e-07	3.012326e-12	-6.153641e+00	6.122582e-01
2.300000e-06	-7.994538e-07	4.123844e-13	-6.079668e+00	6.140760e-01
2.310000e-06	-7.897102e-07	-4.284554e-13	-6.005570e+00	6.158941e-01
2.320000e-06	-7.799446e-07	4.102319e-12	-5.931305e+00	6.174083e-01
2.330000e-06	-7.701516e-07	7.175257e-12	-5.856831e+00	6.183225e-01
2.340000e-06	-7.603273e-07	6.002817e-12	-5.782120e+00	6.183630e-01
2.350000e-06	-7.504646e-07	2.896751e-14	-5.707116e+00	6.172917e-01
2.360000e-06	-7.405697e-07	-9.152524e-12	-5.631868e+00	6.149178e-01
2.370000e-06	-7.306556e-07	-1.439907e-11	-5.556473e+00	6.111067e-01
2.380000e-06	-7.207161e-07	-1.537126e-11	-5.480886e+00	6.057871e-01
2.390000e-06	-7.107316e-07	-1.233583e-11	-5.404956e+00	5.989540e-01
2.400000e-06	-7.007093e-07	-7.274345e-12	-5.328739e+00	5.906693e-01
2.410000e-06	-6.906623e-07	-3.217898e-12	-5.252333e+00	5.810587e-01
2.420000e-06	-6.805995e-07	-4.572029e-13	-5.175807e+00	5.703057e-01
2.430000e-06	-6.705318e-07	-2.787361e-12	-5.099245e+00	5.586429e-01
2.440000e-06	-6.604552e-07	-1.193108e-11	-5.022614e+00	5.463399e-01
2.450000e-06	-6.503702e-07	-2.247416e-11	-4.945920e+00	5.336908e-01
2.460000e-06	-6.402851e-07	-2.941071e-11	-4.869226e+00	5.209985e-01
2.470000e-06	-6.301860e-07	-3.283499e-11	-4.792424e+00	5.085600e-01
2.480000e-06	-6.200721e-07	-3.027620e-11	-4.715510e+00	4.966507e-01
2.490000e-06	-6.099586e-07	-2.261634e-11	-4.638599e+00	4.855097e-01
2.500000e-06	-5.998240e-07	-1.488773e-11	-4.561528e+00	4.753266e-01
2.510000e-06	-5.896701e-07	-1.116912e-11	-4.484309e+00	4.662303e-01
2.520000e-06	-5.795136e-07	-1.344328e-11	-4.407072e+00	4.582805e-01
2.530000e-06	-5.693484e-07	-1.942830e-11	-4.329768e+00	4.514623e-01
2.540000e-06	-5.591739e-07	-2.539116e-11	-4.252393e+00	4.456835e-01
2.550000e-06	-5.489829e-07	-2.976662e-11	-4.174893e+00	4.407762e-01
2.560000e-06	-5.387680e-07	-3.434258e-11	-4.097211e+00	4.365014e-01
2.570000e-06	-5.285361e-07	-3.482922e-11	-4.019399e+00	4.325571e-01
2.580000e-06	-5.182909e-07	-2.913035e-11	-3.941487e+00	4.285891e-01
2.590000e-06	-5.080313e-07	-2.204401e-11	-3.863465e+00	4.242042e-01
2.600000e-06	-4.977594e-07	-1.767608e-11	-3.785349e+00	4.189863e-01
2.610000e-06	-4.874835e-07	-1.689452e-11	-3.707204e+00	4.125126e-01
2.620000e-06	-4.772012e-07	-1.766953e-11	-3.629009e+00	4.043713e-01
2.630000e-06	-4.668950e-07	-1.848210e-11	-3.550632e+00	3.941784e-01
2.640000e-06	-4.565669e-07	-2.089773e-11	-3.472090e+00	3.815943e-01
2.650000e-06	-4.462351e-07	-2.757712e-11	-3.393519e+00	3.663386e-01
2.660000e-06	-4.359011e-07	-3.354577e-11	-3.314931e+00	3.482021e-01
2.670000e-06	-4.255546e-07	-3.272756e-11	-3.236248e+00	3.270569e-01
2.680000e-06	-4.151920e-07	-2.921047e-11	-3.157443e+00	3.028626e-01
2.690000e-06	-4.048215e-07	-2.582004e-11	-3.078578e+00	2.756694e-01
2.700000e-06	-3.944422e-07	-2.409753e-11	-2.999645e+00	2.456175e-01
2.710000e-06	-3.840511e-07	-2.422349e-11	-2.920623e+00	2.129324e-01
2.720000e-06	-3.736534e-07	-2.433406e-11	-2.841551e+00	1.779179e-01
2.730000e-06	-3.632442e-07	-2.909875e-11	-2.762391e+00	1.409448e-01
2.740000e-06	-3.528263e-07	-3.925200e-11	-2.683166e+00	1.024378e-01
2.750000e-06	-3.424016e-07	-4.659926e-11	-2.603888e+00	6.285967e-02
2.760000e-06	-3.319566e-07	-4.819974e-11	-2.524456e+00	2.269511e-02
2.770000e-06	-3.215088e-07	-4.620520e-11	-2.445002e+00	-1.756734e-02
2.780000e-06	-3.110596e-07	-4.241152e-11	-2.365539e+00	-5.745242e-02
2.790000e-06	-3.005949e-07	-3.901883e-11	-2.285958e+00	-9.651477e-02
2.800000e-06	-2.901305e-07	-3.574229e-11	-2.206378e+00	-1.343540e-01
2.810000e-06	-2.796593e-07	-3.261401e-11	-2.126747e+00	-1.706276e-01
2.820000e-06	-2.691701e-07	-3.434568e-11	-2.046978e+00	-2.050611e-01
2.830000e-06	-2.586816e-07	-4.004396e-11	-1.967216e+00	-2.374552e-01
2.840000e-06	-2.482009e-07	-4.497829e-11	-1.887513e+00	-2.676899e-01
2.850000e-06	-2.377161e-07	-4.718516e-11	-1.807778e+00	-2.957244e-01
2.860000e-06	-2.272267e-07	-4.736208e-11	-1.728008e+00	-3.215941e-01
2.870000e-06	-2.167408e-07	-4.791019e-11	-1.648266e+00	-3.454049e-01
2.880000e-06	-2.062537e-07	-4.831902e-11	-1.568513e+00	-3.673230e-01
