# Temperatura_=_20.0
# Concentracion g/m^3_=_10000.0
# C_Vs_to_Am_M_A/Vsm_=_65563218390.804596
# pendiente_HvsI_1/m_=_3716.3
# ordenada_HvsI_A/m_=_1297.0
# frecuencia_Hz_=_301439.2280080391

Tiempo_(s)	Campo_(V.s)	Magnetizacion_(V.s)	Campo_(kA/m)	Magnetizacion_(A/m)
0.000000e+00	-2.415944e-06	-9.092129e-12	-1.613031e+01	-1.289300e+00
1.000000e-08	-2.415330e-06	-8.602838e-12	-1.612621e+01	-1.297178e+00
2.000000e-08	-2.413879e-06	-2.030658e-12	-1.611652e+01	-1.304592e+00
3.000000e-08	-2.411264e-06	4.641204e-12	-1.609907e+01	-1.311537e+00
4.000000e-08	-2.407658e-06	7.431319e-12	-1.607499e+01	-1.318012e+00
5.000000e-08	-2.403360e-06	7.370001e-12	-1.604629e+01	-1.324014e+00
6.000000e-08	-2.398358e-06	9.149078e-12	-1.601290e+01	-1.329541e+00
7.000000e-08	-2.392463e-06	-1.757417e-11	-1.597354e+01	-1.334591e+00
8.000000e-08	-2.385517e-06	-5.903458e-11	-1.592716e+01	-1.339162e+00
9.000000e-08	-2.377664e-06	-7.664712e-12	-1.587473e+01	-1.343252e+00
1.000000e-07	-2.369280e-06	9.394077e-11	-1.581875e+01	-1.346861e+00
1.100000e-07	-2.360373e-06	8.199615e-12	-1.575928e+01	-1.349987e+00
1.200000e-07	-2.350432e-06	-1.109652e-10	-1.569291e+01	-1.352628e+00
1.300000e-07	-2.339200e-06	-2.400837e-11	-1.561792e+01	-1.354784e+00
1.400000e-07	-2.327053e-06	8.153396e-11	-1.553682e+01	-1.356454e+00
1.500000e-07	-2.314140e-06	-4.142385e-11	-1.545060e+01	-1.357637e+00
1.600000e-07	-2.300208e-06	-1.064622e-10	-1.535759e+01	-1.358333e+00
1.700000e-07	-2.285282e-06	4.423484e-11	-1.525793e+01	-1.358542e+00
1.800000e-07	-2.269607e-06	-1.401420e-11	-1.515327e+01	-1.358263e+00
1.900000e-07	-2.252899e-06	-1.206737e-10	-1.504172e+01	-1.357497e+00
2.000000e-07	-2.235085e-06	3.152067e-11	-1.492278e+01	-1.356244e+00
2.100000e-07	-2.216641e-06	4.984791e-11	-1.479964e+01	-1.354504e+00
2.200000e-07	-2.197573e-06	-1.591923e-10	-1.467233e+01	-1.352279e+00
2.300000e-07	-2.177725e-06	-7.556087e-11	-1.453982e+01	-1.349568e+00
2.400000e-07	-2.157157e-06	9.274745e-11	-1.440249e+01	-1.346373e+00
2.500000e-07	-2.135963e-06	-4.455191e-11	-1.426099e+01	-1.342695e+00
2.600000e-07	-2.114113e-06	-1.185385e-10	-1.411511e+01	-1.338535e+00
2.700000e-07	-2.091499e-06	2.570814e-12	-1.396412e+01	-1.333895e+00
2.800000e-07	-2.068107e-06	-4.257677e-12	-1.380794e+01	-1.328776e+00
2.900000e-07	-2.044056e-06	-6.089450e-11	-1.364736e+01	-1.323180e+00
3.000000e-07	-2.019464e-06	-2.115370e-11	-1.348317e+01	-1.317110e+00
3.100000e-07	-1.994257e-06	-5.405376e-11	-1.331487e+01	-1.310567e+00
3.200000e-07	-1.968044e-06	-6.156382e-11	-1.313986e+01	-1.303554e+00
3.300000e-07	-1.940719e-06	-2.228841e-12	-1.295742e+01	-1.296073e+00
3.400000e-07	-1.912671e-06	-6.900377e-12	-1.277016e+01	-1.288127e+00
3.500000e-07	-1.884159e-06	-4.718280e-11	-1.257979e+01	-1.279719e+00
3.600000e-07	-1.855074e-06	-5.393928e-11	-1.238560e+01	-1.270852e+00
3.700000e-07	-1.825281e-06	-3.757980e-11	-1.218668e+01	-1.261528e+00
3.800000e-07	-1.794801e-06	-5.168463e-12	-1.198318e+01	-1.251752e+00
3.900000e-07	-1.763715e-06	-1.660997e-11	-1.177563e+01	-1.241527e+00
4.000000e-07	-1.732086e-06	-7.844526e-11	-1.156446e+01	-1.230857e+00
4.100000e-07	-1.699998e-06	-4.539449e-11	-1.135022e+01	-1.219744e+00
4.200000e-07	-1.667509e-06	-2.313360e-12	-1.113330e+01	-1.208194e+00
4.300000e-07	-1.634427e-06	-2.303904e-11	-1.091243e+01	-1.196211e+00
4.400000e-07	-1.600575e-06	-4.557898e-11	-1.068641e+01	-1.183798e+00
4.500000e-07	-1.565800e-06	-4.607483e-11	-1.045423e+01	-1.170960e+00
4.600000e-07	-1.530202e-06	-3.173550e-11	-1.021656e+01	-1.157702e+00
4.700000e-07	-1.494112e-06	-4.897224e-12	-9.975601e+00	-1.144029e+00
4.800000e-07	-1.457700e-06	-8.084542e-12	-9.732489e+00	-1.129945e+00
4.900000e-07	-1.420940e-06	-4.477589e-11	-9.487058e+00	-1.115456e+00
5.000000e-07	-1.383610e-06	-3.648507e-11	-9.237819e+00	-1.100566e+00
5.100000e-07	-1.345691e-06	-1.045639e-11	-8.984653e+00	-1.085282e+00
5.200000e-07	-1.307315e-06	-8.065628e-12	-8.728432e+00	-1.069608e+00
5.300000e-07	-1.268521e-06	-3.168373e-11	-8.469415e+00	-1.053550e+00
5.400000e-07	-1.229275e-06	-3.726103e-11	-8.207384e+00	-1.037114e+00
5.500000e-07	-1.189540e-06	-1.300501e-11	-7.942095e+00	-1.020306e+00
5.600000e-07	-1.149429e-06	6.979004e-12	-7.674288e+00	-1.003131e+00
5.700000e-07	-1.109134e-06	-9.576144e-13	-7.405250e+00	-9.855970e-01
5.800000e-07	-1.068664e-06	-2.261737e-11	-7.135052e+00	-9.677089e-01
5.900000e-07	-1.027851e-06	-2.217499e-11	-6.862559e+00	-9.494736e-01
6.000000e-07	-9.865388e-07	-7.572695e-12	-6.586732e+00	-9.308974e-01
6.100000e-07	-9.446352e-07	2.982467e-12	-6.306958e+00	-9.119871e-01
6.200000e-07	-9.021539e-07	-1.046722e-11	-6.023328e+00	-8.927496e-01
6.300000e-07	-8.591264e-07	-2.422722e-11	-5.736050e+00	-8.731916e-01
6.400000e-07	-8.156126e-07	-1.445630e-11	-5.445525e+00	-8.533201e-01
6.500000e-07	-7.717957e-07	5.572290e-12	-5.152977e+00	-8.331424e-01
6.600000e-07	-7.277771e-07	4.181252e-12	-4.859082e+00	-8.126657e-01
6.700000e-07	-6.835704e-07	-1.653754e-11	-4.563931e+00	-7.918972e-01
6.800000e-07	-6.392397e-07	-1.732576e-11	-4.267952e+00	-7.708445e-01
6.900000e-07	-5.948010e-07	-1.651932e-12	-3.971253e+00	-7.495151e-01
7.000000e-07	-5.501848e-07	5.695175e-12	-3.673368e+00	-7.279166e-01
7.100000e-07	-5.053628e-07	-7.436455e-12	-3.374109e+00	-7.060568e-01
7.200000e-07	-4.603874e-07	-1.762286e-11	-3.073826e+00	-6.839436e-01
7.300000e-07	-4.152550e-07	-1.125248e-11	-2.772495e+00	-6.615848e-01
7.400000e-07	-3.699929e-07	-3.356744e-13	-2.470297e+00	-6.389885e-01
7.500000e-07	-3.246220e-07	-1.179571e-12	-2.167374e+00	-6.161627e-01
7.600000e-07	-2.791024e-07	-1.356774e-11	-1.863457e+00	-5.931158e-01
7.700000e-07	-2.334457e-07	-1.657983e-11	-1.558625e+00	-5.698559e-01
7.800000e-07	-1.877004e-07	-7.137985e-12	-1.253202e+00	-5.463913e-01
7.900000e-07	-1.418586e-07	1.205905e-12	-9.471343e-01	-5.227306e-01
8.000000e-07	-9.596317e-08	-6.862288e-12	-6.407084e-01	-4.988822e-01
8.100000e-07	-5.004251e-08	-1.820761e-11	-3.341142e-01	-4.748545e-01
8.200000e-07	-4.061631e-09	-1.827577e-11	-2.711792e-02	-4.506564e-01
8.300000e-07	4.192791e-08	-9.290485e-12	2.799362e-01	-4.262963e-01
8.400000e-07	8.785491e-08	-6.621007e-12	5.865728e-01	-4.017832e-01
8.500000e-07	1.337187e-07	-1.485935e-11	8.927875e-01	-3.771257e-01
8.600000e-07	1.795744e-07	-1.812660e-11	1.198948e+00	-3.523327e-01
8.700000e-07	2.253657e-07	-1.124971e-11	1.504678e+00	-3.274131e-01
8.800000e-07	2.710453e-07	-2.332033e-12	1.809663e+00	-3.023759e-01
8.900000e-07	3.165415e-07	-4.129496e-12	2.113423e+00	-2.772299e-01
9.000000e-07	3.618364e-07	-1.157091e-11	2.415840e+00	-2.519843e-01
9.100000e-07	4.069741e-07	-1.345324e-11	2.717207e+00	-2.266481e-01
9.200000e-07	4.519658e-07	-7.822216e-12	3.017598e+00	-2.012304e-01
9.300000e-07	4.968160e-07	-5.663378e-12	3.317046e+00	-1.757403e-01
9.400000e-07	5.415156e-07	-1.199181e-11	3.615487e+00	-1.501869e-01
9.500000e-07	5.860678e-07	-1.641596e-11	3.912945e+00	-1.245794e-01
9.600000e-07	6.304751e-07	-1.158097e-11	4.209435e+00	-9.892697e-02
9.700000e-07	6.748117e-07	-2.959107e-12	4.505453e+00	-7.323885e-02
9.800000e-07	7.190622e-07	-2.411920e-12	4.800896e+00	-4.752423e-02
9.900000e-07	7.631382e-07	-7.946744e-12	5.095174e+00	-2.179234e-02
1.000000e-06	8.070602e-07	-1.173036e-11	5.388424e+00	3.947593e-03
1.010000e-06	8.506609e-07	-1.075965e-11	5.679529e+00	2.968634e-02
1.020000e-06	8.936297e-07	-8.717383e-12	5.966415e+00	5.541467e-02
1.030000e-06	9.359821e-07	-1.115968e-11	6.249185e+00	8.112336e-02
1.040000e-06	9.777500e-07	-1.567431e-11	6.528053e+00	1.068032e-01
1.050000e-06	1.018975e-06	-1.386734e-11	6.803298e+00	1.324449e-01
1.060000e-06	1.059807e-06	-5.799739e-12	7.075915e+00	1.580394e-01
1.070000e-06	1.100305e-06	-1.356819e-12	7.346303e+00	1.835774e-01
1.080000e-06	1.140527e-06	-3.986830e-12	7.614851e+00	2.090498e-01
1.090000e-06	1.180534e-06	-6.849065e-12	7.881965e+00	2.344474e-01
1.100000e-06	1.220226e-06	-3.853730e-12	8.146967e+00	2.597612e-01
1.110000e-06	1.259428e-06	-8.374748e-13	8.408709e+00	2.849820e-01
1.120000e-06	1.298156e-06	-2.472501e-12	8.667278e+00	3.101009e-01
1.130000e-06	1.336439e-06	-4.728381e-12	8.922878e+00	3.351088e-01
1.140000e-06	1.374312e-06	-2.288120e-12	9.175744e+00	3.599967e-01
1.150000e-06	1.411721e-06	3.604639e-12	9.425504e+00	3.847557e-01
1.160000e-06	1.448583e-06	7.322076e-12	9.671617e+00	4.093769e-01
1.170000e-06	1.485044e-06	7.143394e-12	9.915056e+00	4.338515e-01
1.180000e-06	1.521244e-06	5.207317e-12	1.015675e+01	4.581708e-01
1.190000e-06	1.556989e-06	6.524067e-12	1.039541e+01	4.823259e-01
1.200000e-06	1.592068e-06	9.421639e-12	1.062961e+01	5.063083e-01
1.210000e-06	1.626269e-06	9.450070e-12	1.085796e+01	5.301093e-01
1.220000e-06	1.659559e-06	6.894243e-12	1.108023e+01	5.537204e-01
1.230000e-06	1.692271e-06	6.577479e-12	1.129863e+01	5.771332e-01
1.240000e-06	1.724560e-06	1.078092e-11	1.151421e+01	6.003391e-01
1.250000e-06	1.756255e-06	1.482013e-11	1.172583e+01	6.233300e-01
1.260000e-06	1.787338e-06	1.653669e-11	1.193336e+01	6.460975e-01
1.270000e-06	1.817932e-06	1.754935e-11	1.213762e+01	6.686336e-01
1.280000e-06	1.847890e-06	1.977073e-11	1.233764e+01	6.909300e-01
1.290000e-06	1.877166e-06	2.228936e-11	1.253310e+01	7.129788e-01
1.300000e-06	1.905881e-06	2.168131e-11	1.272482e+01	7.347722e-01
1.310000e-06	1.934140e-06	1.804646e-11	1.291349e+01	7.563023e-01
1.320000e-06	1.961851e-06	1.539674e-11	1.309851e+01	7.775613e-01
1.330000e-06	1.988702e-06	1.700125e-11	1.327778e+01	7.985416e-01
1.340000e-06	2.014449e-06	2.048115e-11	1.344969e+01	8.192358e-01
1.350000e-06	2.039261e-06	2.234431e-11	1.361534e+01	8.396364e-01
1.360000e-06	2.063421e-06	2.393440e-11	1.377666e+01	8.597361e-01
1.370000e-06	2.086916e-06	2.587793e-11	1.393352e+01	8.795276e-01
1.380000e-06	2.109729e-06	2.612201e-11	1.408583e+01	8.990039e-01
1.390000e-06	2.131831e-06	2.384653e-11	1.423340e+01	9.181580e-01
1.400000e-06	2.153186e-06	2.058901e-11	1.437598e+01	9.369830e-01
1.410000e-06	2.173934e-06	1.863755e-11	1.451451e+01	9.554722e-01
1.420000e-06	2.194150e-06	1.888231e-11	1.464948e+01	9.736189e-01
1.430000e-06	2.213673e-06	2.111503e-11	1.477983e+01	9.914167e-01
1.440000e-06	2.232258e-06	2.330743e-11	1.490391e+01	1.008859e+00
1.450000e-06	2.249940e-06	2.281543e-11	1.502197e+01	1.025940e+00
1.460000e-06	2.266911e-06	2.187914e-11	1.513528e+01	1.042653e+00
1.470000e-06	2.283090e-06	2.126818e-11	1.524329e+01	1.058992e+00
1.480000e-06	2.298293e-06	2.037780e-11	1.534480e+01	1.074952e+00
1.490000e-06	2.312618e-06	1.860363e-11	1.544045e+01	1.090526e+00
1.500000e-06	2.326125e-06	1.719471e-11	1.553062e+01	1.105710e+00
1.510000e-06	2.338760e-06	1.785700e-11	1.561498e+01	1.120497e+00
1.520000e-06	2.350470e-06	1.924851e-11	1.569317e+01	1.134883e+00
1.530000e-06	2.360985e-06	1.962167e-11	1.576337e+01	1.148862e+00
1.540000e-06	2.370340e-06	1.794804e-11	1.582583e+01	1.162428e+00
1.550000e-06	2.378928e-06	1.671435e-11	1.588317e+01	1.175579e+00
1.560000e-06	2.386814e-06	1.682377e-11	1.593582e+01	1.188308e+00
1.570000e-06	2.393867e-06	1.764108e-11	1.598291e+01	1.200611e+00
1.580000e-06	2.400097e-06	1.688287e-11	1.602451e+01	1.212483e+00
1.590000e-06	2.405493e-06	1.540260e-11	1.606053e+01	1.223921e+00
1.600000e-06	2.410186e-06	1.667202e-11	1.609187e+01	1.234920e+00
1.610000e-06	2.414286e-06	1.958531e-11	1.611924e+01	1.245477e+00
1.620000e-06	2.417480e-06	1.973523e-11	1.614057e+01	1.255587e+00
1.630000e-06	2.419476e-06	1.687612e-11	1.615389e+01	1.265247e+00
1.640000e-06	2.420464e-06	1.506099e-11	1.616049e+01	1.274453e+00
1.650000e-06	2.420720e-06	1.608837e-11	1.616220e+01	1.283203e+00
1.660000e-06	2.420206e-06	1.564209e-11	1.615876e+01	1.291492e+00
1.670000e-06	2.418915e-06	1.435424e-11	1.615015e+01	1.299319e+00
1.680000e-06	2.416874e-06	1.492292e-11	1.613652e+01	1.306680e+00
1.690000e-06	2.414066e-06	1.495745e-11	1.611777e+01	1.313572e+00
1.700000e-06	2.410621e-06	1.629441e-11	1.609477e+01	1.319994e+00
1.710000e-06	2.406626e-06	2.414215e-11	1.606810e+01	1.325942e+00
1.720000e-06	2.401726e-06	2.421218e-11	1.603538e+01	1.331416e+00
1.730000e-06	2.395604e-06	-2.845246e-11	1.599451e+01	1.336412e+00
1.740000e-06	2.388259e-06	-3.884610e-11	1.594547e+01	1.340928e+00
1.750000e-06	2.379719e-06	9.257935e-11	1.588845e+01	1.344965e+00
1.760000e-06	2.370418e-06	6.744618e-11	1.582635e+01	1.348519e+00
1.770000e-06	2.360887e-06	-3.775386e-11	1.576271e+01	1.351589e+00
1.780000e-06	2.350841e-06	-5.174135e-11	1.569564e+01	1.354176e+00
1.790000e-06	2.339499e-06	7.463134e-11	1.561992e+01	1.356276e+00
1.800000e-06	2.327082e-06	4.080132e-11	1.553701e+01	1.357891e+00
1.810000e-06	2.314294e-06	-6.385944e-11	1.545163e+01	1.359019e+00
1.820000e-06	2.300579e-06	6.303375e-11	1.536006e+01	1.359660e+00
1.830000e-06	2.285455e-06	9.979468e-11	1.525908e+01	1.359813e+00
1.840000e-06	2.269523e-06	-5.087359e-11	1.515272e+01	1.359479e+00
1.850000e-06	2.253042e-06	-5.131244e-12	1.504268e+01	1.358658e+00
1.860000e-06	2.235606e-06	1.759078e-10	1.492626e+01	1.357349e+00
1.870000e-06	2.217171e-06	-1.023344e-11	1.480318e+01	1.355554e+00
1.880000e-06	2.198151e-06	-1.005972e-10	1.467619e+01	1.353274e+00
1.890000e-06	2.178557e-06	1.472662e-10	1.454537e+01	1.350508e+00
1.900000e-06	2.158237e-06	1.331084e-10	1.440970e+01	1.347258e+00
1.910000e-06	2.137035e-06	-8.195028e-11	1.426814e+01	1.343525e+00
1.920000e-06	2.114726e-06	3.292991e-11	1.411919e+01	1.339311e+00
1.930000e-06	2.091578e-06	1.161730e-10	1.396465e+01	1.334616e+00
1.940000e-06	2.067828e-06	8.752840e-12	1.380608e+01	1.329444e+00
1.950000e-06	2.043350e-06	3.427066e-11	1.364264e+01	1.323794e+00
1.960000e-06	2.018189e-06	5.704342e-11	1.347466e+01	1.317671e+00
1.970000e-06	1.992383e-06	3.026908e-12	1.330236e+01	1.311075e+00
1.980000e-06	1.965819e-06	6.447473e-11	1.312500e+01	1.304009e+00
1.990000e-06	1.938633e-06	7.989553e-11	1.294349e+01	1.296476e+00
2.000000e-06	1.910978e-06	2.310270e-11	1.275885e+01	1.288478e+00
2.010000e-06	1.882589e-06	4.601999e-11	1.256931e+01	1.280018e+00
2.020000e-06	1.853208e-06	2.246470e-11	1.237314e+01	1.271100e+00
2.030000e-06	1.822917e-06	3.463243e-11	1.217090e+01	1.261726e+00
2.040000e-06	1.791908e-06	8.660411e-11	1.196387e+01	1.251900e+00
2.050000e-06	1.760404e-06	7.381220e-12	1.175352e+01	1.241625e+00
2.060000e-06	1.728420e-06	-6.888112e-12	1.153998e+01	1.230905e+00
2.070000e-06	1.695791e-06	9.074446e-11	1.132213e+01	1.219744e+00
2.080000e-06	1.662575e-06	6.301787e-11	1.110036e+01	1.208146e+00
2.090000e-06	1.628855e-06	2.231618e-11	1.087522e+01	1.196115e+00
2.100000e-06	1.594546e-06	4.039627e-11	1.064615e+01	1.183656e+00
2.110000e-06	1.559666e-06	1.651451e-11	1.041328e+01	1.170772e+00
2.120000e-06	1.524355e-06	4.106344e-11	1.017752e+01	1.157469e+00
2.130000e-06	1.488729e-06	5.325567e-11	9.939660e+00	1.143751e+00
2.140000e-06	1.452712e-06	6.626024e-12	9.699186e+00	1.129623e+00
2.150000e-06	1.415992e-06	1.103293e-11	9.454020e+00	1.115091e+00
2.160000e-06	1.378376e-06	3.619960e-11	9.202875e+00	1.100158e+00
2.170000e-06	1.339938e-06	3.976177e-11	8.946237e+00	1.084832e+00
2.180000e-06	1.300886e-06	2.704943e-11	8.685508e+00	1.069117e+00
2.190000e-06	1.261488e-06	2.822937e-12	8.422461e+00	1.053019e+00
2.200000e-06	1.221825e-06	1.002800e-11	8.157647e+00	1.036544e+00
2.210000e-06	1.181819e-06	3.595702e-11	7.890542e+00	1.019697e+00
2.220000e-06	1.141445e-06	2.664546e-11	7.620982e+00	1.002486e+00
2.230000e-06	1.100643e-06	1.171041e-11	7.348560e+00	9.849145e-01
2.240000e-06	1.059438e-06	3.299951e-12	7.073451e+00	9.669907e-01
2.250000e-06	1.017939e-06	1.004376e-11	6.796379e+00	9.487205e-01
2.260000e-06	9.761754e-07	2.546091e-11	6.517540e+00	9.301105e-01
2.270000e-06	9.339853e-07	1.568061e-11	6.235853e+00	9.111673e-01
2.280000e-06	8.913457e-07	8.405245e-13	5.951165e+00	8.918977e-01
2.290000e-06	8.483782e-07	-4.724298e-15	5.664288e+00	8.723088e-01
2.300000e-06	8.051661e-07	1.736066e-11	5.375778e+00	8.524074e-01
2.310000e-06	7.618093e-07	2.566487e-11	5.086302e+00	8.322008e-01
2.320000e-06	7.183453e-07	4.631192e-12	4.796109e+00	8.116962e-01
2.330000e-06	6.747853e-07	-8.120867e-12	4.505277e+00	7.909009e-01
2.340000e-06	6.311050e-07	6.190557e-12	4.213640e+00	7.698225e-01
2.350000e-06	5.872565e-07	1.597413e-11	3.920881e+00	7.484684e-01
2.360000e-06	5.432257e-07	9.817294e-12	3.626905e+00	7.268464e-01
2.370000e-06	4.990062e-07	-4.777288e-13	3.331669e+00	7.049642e-01
2.380000e-06	4.545422e-07	-1.805048e-13	3.034800e+00	6.828296e-01
2.390000e-06	4.098500e-07	1.431203e-11	2.736407e+00	6.604506e-01
2.400000e-06	3.649765e-07	1.840493e-11	2.436805e+00	6.378353e-01
2.410000e-06	3.198718e-07	8.172455e-12	2.135658e+00	6.149917e-01
2.420000e-06	2.746199e-07	-2.614495e-12	1.833529e+00	5.919281e-01
2.430000e-06	2.292764e-07	-9.285256e-13	1.530789e+00	5.686527e-01
2.440000e-06	1.838132e-07	1.051347e-11	1.227248e+00	5.451739e-01
2.450000e-06	1.382628e-07	9.896196e-12	9.231262e-01	5.215001e-01
2.460000e-06	9.268810e-08	1.308641e-13	6.188421e-01	4.976397e-01
2.470000e-06	4.706860e-08	-1.500126e-12	3.142586e-01	4.736015e-01
2.480000e-06	1.434078e-09	9.971979e-12	9.574774e-03	4.493939e-01
2.490000e-06	-4.418397e-08	1.711530e-11	-2.949990e-01	4.250258e-01
2.500000e-06	-8.978590e-08	8.687890e-12	-5.994652e-01	4.005057e-01
2.510000e-06	-1.352744e-07	-8.288943e-13	-9.031741e-01	3.758426e-01
2.520000e-06	-1.806920e-07	3.449370e-12	-1.206410e+00	3.510452e-01
2.530000e-06	-2.260487e-07	1.230954e-11	-1.509239e+00	3.261225e-01
2.540000e-06	-2.713571e-07	1.092256e-11	-1.811745e+00	3.010834e-01
2.550000e-06	-3.165494e-07	2.270295e-12	-2.113476e+00	2.759370e-01
2.560000e-06	-3.615997e-07	-1.743376e-12	-2.414260e+00	2.506921e-01
2.570000e-06	-4.064867e-07	6.152690e-12	-2.713952e+00	2.253580e-01
2.580000e-06	-4.510916e-07	1.297844e-11	-3.011761e+00	1.999436e-01
2.590000e-06	-4.954605e-07	8.301996e-12	-3.307995e+00	1.744581e-01
2.600000e-06	-5.395970e-07	-6.963984e-13	-3.602677e+00	1.489107e-01
2.610000e-06	-5.834798e-07	-1.201001e-12	-3.895665e+00	1.233105e-01
2.620000e-06	-6.271903e-07	4.074713e-12	-4.187503e+00	9.766666e-02
2.630000e-06	-6.708131e-07	2.308175e-12	-4.478755e+00	7.198845e-02
2.640000e-06	-7.143557e-07	-5.964482e-12	-4.769472e+00	4.628505e-02
2.650000e-06	-7.577989e-07	-8.968536e-12	-5.059526e+00	2.056570e-02
2.660000e-06	-8.011319e-07	-2.743655e-12	-5.348843e+00	-5.160371e-03
2.670000e-06	-8.442152e-07	3.693224e-12	-5.636493e+00	-3.088394e-02
2.680000e-06	-8.869764e-07	2.281845e-12	-5.921993e+00	-5.659577e-02
2.690000e-06	-9.294183e-07	-5.590630e-12	-6.205361e+00	-8.228664e-02
2.700000e-06	-9.715079e-07	-8.793871e-12	-6.486377e+00	-1.079473e-01
2.710000e-06	-1.013272e-06	-5.927673e-12	-6.765221e+00	-1.335686e-01
2.720000e-06	-1.054719e-06	-5.692276e-12	-7.041945e+00	-1.591413e-01
2.730000e-06	-1.095795e-06	-1.069735e-11	-7.316190e+00	-1.846563e-01
2.740000e-06	-1.136442e-06	-1.343249e-11	-7.587575e+00	-2.101043e-01
2.750000e-06	-1.176677e-06	-8.246974e-12	-7.856208e+00	-2.354762e-01
2.760000e-06	-1.216510e-06	-3.628192e-12	-8.122163e+00	-2.607630e-01
2.770000e-06	-1.256033e-06	-6.168896e-12	-8.386036e+00	-2.859556e-01
2.780000e-06	-1.295286e-06	-1.240524e-11	-8.648115e+00	-3.110449e-01
2.790000e-06	-1.334096e-06	-1.527835e-11	-8.907237e+00	-3.360219e-01
2.800000e-06	-1.372405e-06	-1.380070e-11	-9.163009e+00	-3.608777e-01
2.810000e-06	-1.410029e-06	-1.419775e-11	-9.414209e+00	-3.856033e-01
2.820000e-06	-1.446785e-06	-1.894881e-11	-9.659613e+00	-4.101899e-01
2.830000e-06	-1.482882e-06	-2.234668e-11	-9.900619e+00	-4.346286e-01
2.840000e-06	-1.518550e-06	-2.033077e-11	-1.013877e+01	-4.589107e-01
2.850000e-06	-1.553822e-06	-1.805676e-11	-1.037426e+01	-4.830274e-01
2.860000e-06	-1.588623e-06	-2.013303e-11	-1.060661e+01	-5.069702e-01
2.870000e-06	-1.622850e-06	-2.553143e-11	-1.083513e+01	-5.307303e-01
2.880000e-06	-1.656484e-06	-2.667853e-11	-1.105969e+01	-5.542993e-01
2.890000e-06	-1.689548e-06	-2.284374e-11	-1.128045e+01	-5.776688e-01
2.900000e-06	-1.722046e-06	-2.110950e-11	-1.149743e+01	-6.008303e-01
2.910000e-06	-1.753997e-06	-2.307731e-11	-1.171075e+01	-6.237755e-01
2.920000e-06	-1.785468e-06	-2.459643e-11	-1.192087e+01	-6.464962e-01
2.930000e-06	-1.816378e-06	-2.250775e-11	-1.212725e+01	-6.689842e-01
2.940000e-06	-1.846462e-06	-2.106608e-11	-1.232810e+01	-6.912315e-01
