# Temperatura_=_20.0
# Concentracion g/m^3_=_10000.0
# C_Vs_to_Am_M_A/Vsm_=_65563218390.804596
# pendiente_HvsI_1/m_=_3716.3
# ordenada_HvsI_A/m_=_1297.0
# frecuencia_Hz_=_301441.7158461061

Tiempo_(s)	Campo_(V.s)	Magnetizacion_(V.s)	Campo_(kA/m)	Magnetizacion_(A/m)
0.000000e+00	-2.410994e-06	-2.153192e-12	-1.612701e+01	-1.453083e+00
1.000000e-08	-2.410227e-06	-3.587652e-12	-1.612188e+01	-1.448946e+00
2.000000e-08	-2.408557e-06	-2.456593e-12	-1.611071e+01	-1.444289e+00
3.000000e-08	-2.405762e-06	4.094612e-13	-1.609201e+01	-1.439113e+00
4.000000e-08	-2.401990e-06	3.977055e-12	-1.606678e+01	-1.433419e+00
5.000000e-08	-2.397535e-06	6.638483e-12	-1.603698e+01	-1.427211e+00
6.000000e-08	-2.392424e-06	9.074370e-12	-1.600280e+01	-1.420491e+00
7.000000e-08	-2.386412e-06	-1.105598e-11	-1.596258e+01	-1.413259e+00
8.000000e-08	-2.379349e-06	-4.358513e-11	-1.591534e+01	-1.405521e+00
9.000000e-08	-2.371394e-06	-1.053982e-11	-1.586212e+01	-1.397277e+00
1.000000e-07	-2.362869e-06	6.799818e-11	-1.580510e+01	-1.388532e+00
1.100000e-07	-2.353809e-06	1.243519e-11	-1.574450e+01	-1.379287e+00
1.200000e-07	-2.343667e-06	-6.711734e-11	-1.567666e+01	-1.369547e+00
1.300000e-07	-2.332219e-06	-1.646221e-11	-1.560009e+01	-1.359316e+00
1.400000e-07	-2.319938e-06	4.943792e-11	-1.551794e+01	-1.348595e+00
1.500000e-07	-2.306891e-06	-2.258190e-11	-1.543067e+01	-1.337391e+00
1.600000e-07	-2.292778e-06	-6.875106e-11	-1.533627e+01	-1.325706e+00
1.700000e-07	-2.277744e-06	3.491579e-11	-1.523571e+01	-1.313545e+00
1.800000e-07	-2.262008e-06	-1.882709e-11	-1.513045e+01	-1.300912e+00
1.900000e-07	-2.245209e-06	-7.349990e-11	-1.501808e+01	-1.287811e+00
2.000000e-07	-2.227287e-06	3.097969e-11	-1.489820e+01	-1.274248e+00
2.100000e-07	-2.208704e-06	2.331286e-11	-1.477390e+01	-1.260227e+00
2.200000e-07	-2.189545e-06	-1.012488e-10	-1.464575e+01	-1.245753e+00
2.300000e-07	-2.169678e-06	-3.837740e-11	-1.451285e+01	-1.230832e+00
2.400000e-07	-2.149110e-06	5.594863e-11	-1.437528e+01	-1.215469e+00
2.500000e-07	-2.127877e-06	-4.280650e-11	-1.423325e+01	-1.199669e+00
2.600000e-07	-2.105925e-06	-6.302524e-11	-1.408642e+01	-1.183437e+00
2.700000e-07	-2.083179e-06	8.196252e-12	-1.393427e+01	-1.166781e+00
2.800000e-07	-2.059650e-06	-2.587022e-11	-1.377688e+01	-1.149706e+00
2.900000e-07	-2.035490e-06	-3.706497e-11	-1.361528e+01	-1.132217e+00
3.000000e-07	-2.010846e-06	1.793442e-11	-1.345044e+01	-1.114322e+00
3.100000e-07	-1.985525e-06	-5.114868e-11	-1.328107e+01	-1.096026e+00
3.200000e-07	-1.959136e-06	-6.078820e-11	-1.310455e+01	-1.077336e+00
3.300000e-07	-1.931651e-06	1.822569e-11	-1.292071e+01	-1.058259e+00
3.400000e-07	-1.903504e-06	-5.917152e-13	-1.273244e+01	-1.038802e+00
3.500000e-07	-1.874920e-06	-5.509213e-11	-1.254124e+01	-1.018972e+00
3.600000e-07	-1.845773e-06	-3.089536e-11	-1.234627e+01	-9.987755e-01
3.700000e-07	-1.815938e-06	-2.070872e-11	-1.214671e+01	-9.782200e-01
3.800000e-07	-1.785366e-06	-3.558013e-11	-1.194221e+01	-9.573130e-01
3.900000e-07	-1.754221e-06	-1.390975e-11	-1.173389e+01	-9.360620e-01
4.000000e-07	-1.722586e-06	-4.431467e-11	-1.152228e+01	-9.144745e-01
4.100000e-07	-1.690466e-06	-4.648938e-11	-1.130743e+01	-8.925584e-01
4.200000e-07	-1.657893e-06	-1.057601e-11	-1.108955e+01	-8.703214e-01
4.300000e-07	-1.624691e-06	-2.081109e-12	-1.086747e+01	-8.477716e-01
4.400000e-07	-1.590621e-06	-3.846303e-11	-1.063958e+01	-8.249170e-01
4.500000e-07	-1.555617e-06	-4.720503e-11	-1.040544e+01	-8.017659e-01
4.600000e-07	-1.519900e-06	-2.769165e-11	-1.016652e+01	-7.783266e-01
4.700000e-07	-1.483777e-06	-1.757984e-11	-9.924903e+00	-7.546074e-01
4.800000e-07	-1.447371e-06	-1.337456e-11	-9.681384e+00	-7.306169e-01
4.900000e-07	-1.410532e-06	-3.388560e-11	-9.434972e+00	-7.063638e-01
5.000000e-07	-1.373089e-06	-3.090225e-11	-9.184514e+00	-6.818566e-01
5.100000e-07	-1.335125e-06	-1.516360e-11	-8.930576e+00	-6.571042e-01
5.200000e-07	-1.296763e-06	-8.745170e-12	-8.673979e+00	-6.321154e-01
5.300000e-07	-1.257971e-06	-2.706810e-11	-8.414499e+00	-6.068993e-01
5.400000e-07	-1.218659e-06	-3.240314e-11	-8.151544e+00	-5.814649e-01
5.500000e-07	-1.178887e-06	-2.465682e-11	-7.885513e+00	-5.558213e-01
5.600000e-07	-1.138812e-06	-1.344391e-11	-7.617452e+00	-5.299777e-01
5.700000e-07	-1.098565e-06	-6.392417e-12	-7.348239e+00	-5.039434e-01
5.800000e-07	-1.058138e-06	-2.525634e-11	-7.077827e+00	-4.777277e-01
5.900000e-07	-1.017377e-06	-3.072340e-11	-6.805179e+00	-4.513400e-01
6.000000e-07	-9.761185e-07	-1.292016e-11	-6.529203e+00	-4.247899e-01
6.100000e-07	-9.342305e-07	3.038505e-12	-6.249016e+00	-3.980868e-01
6.200000e-07	-8.917617e-07	-1.060244e-11	-5.964945e+00	-3.712402e-01
6.300000e-07	-8.488202e-07	-2.040488e-11	-5.677711e+00	-3.442600e-01
6.400000e-07	-8.054171e-07	-1.540169e-11	-5.387391e+00	-3.171556e-01
6.500000e-07	-7.616476e-07	-5.470786e-12	-5.094619e+00	-2.899369e-01
6.600000e-07	-7.176329e-07	-3.199951e-12	-4.800207e+00	-2.626136e-01
6.700000e-07	-6.734596e-07	-1.516185e-11	-4.504734e+00	-2.351955e-01
6.800000e-07	-6.291503e-07	-1.594091e-11	-4.208352e+00	-2.076925e-01
6.900000e-07	-5.846933e-07	-4.822375e-12	-3.910981e+00	-1.801144e-01
7.000000e-07	-5.400963e-07	5.137593e-12	-3.612674e+00	-1.524712e-01
7.100000e-07	-4.953505e-07	-3.601045e-12	-3.313372e+00	-1.247726e-01
7.200000e-07	-4.504434e-07	-1.424386e-11	-3.012991e+00	-9.702878e-02
7.300000e-07	-4.053966e-07	-1.393324e-11	-2.711675e+00	-6.924956e-02
7.400000e-07	-3.601949e-07	-2.711504e-12	-2.409324e+00	-4.144494e-02
7.500000e-07	-3.148479e-07	2.582381e-12	-2.106001e+00	-1.362490e-02
7.600000e-07	-2.693732e-07	-7.691921e-12	-1.801823e+00	1.420059e-02
7.700000e-07	-2.237741e-07	-1.190013e-11	-1.496812e+00	4.202153e-02
7.800000e-07	-1.780565e-07	-4.851383e-12	-1.191010e+00	6.982794e-02
7.900000e-07	-1.322703e-07	3.567164e-12	-8.847485e-01	9.760986e-02
8.000000e-07	-8.644108e-08	-5.240936e-13	-5.781996e-01	1.253573e-01
8.100000e-07	-4.060622e-08	-7.279358e-12	-2.716128e-01	1.530603e-01
8.200000e-07	5.241687e-09	-8.430800e-12	3.506136e-02	1.807090e-01
8.300000e-07	5.114159e-08	-2.029458e-12	3.420833e-01	2.082933e-01
8.400000e-07	9.700702e-08	2.147124e-12	6.488746e-01	2.358035e-01
8.500000e-07	1.427530e-07	-2.659470e-12	9.548671e-01	2.632296e-01
8.600000e-07	1.884224e-07	-7.600439e-12	1.260347e+00	2.905618e-01
8.700000e-07	2.340582e-07	-5.969588e-12	1.565603e+00	3.177903e-01
8.800000e-07	2.795795e-07	2.638592e-12	1.870092e+00	3.449054e-01
8.900000e-07	3.249325e-07	4.460971e-12	2.173456e+00	3.718972e-01
9.000000e-07	3.701185e-07	-2.372429e-13	2.475703e+00	3.987561e-01
9.100000e-07	4.152185e-07	-2.399171e-12	2.777374e+00	4.254726e-01
9.200000e-07	4.601698e-07	2.756285e-12	3.078050e+00	4.520369e-01
9.300000e-07	5.048775e-07	4.989111e-12	3.377098e+00	4.784395e-01
9.400000e-07	5.494384e-07	-6.378176e-13	3.675164e+00	5.046711e-01
9.500000e-07	5.939179e-07	-4.787124e-12	3.972684e+00	5.307221e-01
9.600000e-07	6.382826e-07	-1.276484e-12	4.269437e+00	5.565832e-01
9.700000e-07	6.825183e-07	8.167699e-12	4.565328e+00	5.822452e-01
9.800000e-07	7.266304e-07	1.049142e-11	4.860391e+00	6.076988e-01
9.900000e-07	7.706270e-07	5.429649e-12	5.154682e+00	6.329349e-01
1.000000e-06	8.144652e-07	-6.668211e-13	5.447913e+00	6.579444e-01
1.010000e-06	8.579315e-07	-1.336026e-12	5.738657e+00	6.827185e-01
1.020000e-06	9.008078e-07	4.447158e-13	6.025454e+00	7.072481e-01
1.030000e-06	9.431049e-07	-2.584916e-12	6.308377e+00	7.315245e-01
1.040000e-06	9.847693e-07	-5.800379e-12	6.587068e+00	7.555389e-01
1.050000e-06	1.025810e-06	-3.044955e-12	6.861587e+00	7.792829e-01
1.060000e-06	1.066441e-06	3.557826e-12	7.133366e+00	8.027477e-01
1.070000e-06	1.106758e-06	5.524981e-12	7.403041e+00	8.259251e-01
1.080000e-06	1.146875e-06	2.401565e-12	7.671382e+00	8.488066e-01
1.090000e-06	1.186834e-06	-1.031779e-12	7.938668e+00	8.713842e-01
1.100000e-06	1.226411e-06	1.692005e-14	8.203399e+00	8.936496e-01
1.110000e-06	1.265440e-06	3.399659e-12	8.464459e+00	9.155949e-01
1.120000e-06	1.303993e-06	3.872039e-12	8.722336e+00	9.372123e-01
1.130000e-06	1.342143e-06	3.715308e-12	8.977524e+00	9.584939e-01
1.140000e-06	1.379809e-06	5.534706e-12	9.229467e+00	9.794322e-01
1.150000e-06	1.416966e-06	8.296625e-12	9.478007e+00	1.000020e+00
1.160000e-06	1.453685e-06	8.385467e-12	9.723622e+00	1.020249e+00
1.170000e-06	1.490043e-06	5.961379e-12	9.966819e+00	1.040112e+00
1.180000e-06	1.526159e-06	3.596775e-12	1.020839e+01	1.059603e+00
1.190000e-06	1.561834e-06	5.337842e-12	1.044702e+01	1.078714e+00
1.200000e-06	1.596725e-06	8.997814e-12	1.068040e+01	1.097439e+00
1.210000e-06	1.630630e-06	1.068051e-11	1.090719e+01	1.115771e+00
1.220000e-06	1.663642e-06	1.218543e-11	1.112801e+01	1.133702e+00
1.230000e-06	1.696109e-06	1.394844e-11	1.134518e+01	1.151228e+00
1.240000e-06	1.728162e-06	1.661163e-11	1.155958e+01	1.168341e+00
1.250000e-06	1.759703e-06	1.820300e-11	1.177056e+01	1.185035e+00
1.260000e-06	1.790627e-06	1.863421e-11	1.197741e+01	1.201305e+00
1.270000e-06	1.820967e-06	1.860891e-11	1.218035e+01	1.217144e+00
1.280000e-06	1.850703e-06	2.015243e-11	1.237925e+01	1.232547e+00
1.290000e-06	1.879757e-06	2.224609e-11	1.257359e+01	1.247508e+00
1.300000e-06	1.908298e-06	2.403380e-11	1.276450e+01	1.262022e+00
1.310000e-06	1.936441e-06	2.364097e-11	1.295275e+01	1.276084e+00
1.320000e-06	1.963994e-06	2.091932e-11	1.313705e+01	1.289688e+00
1.330000e-06	1.990633e-06	1.987252e-11	1.331523e+01	1.302831e+00
1.340000e-06	2.016146e-06	2.105832e-11	1.348589e+01	1.315506e+00
1.350000e-06	2.040779e-06	2.374764e-11	1.365066e+01	1.327710e+00
1.360000e-06	2.064719e-06	2.461356e-11	1.381079e+01	1.339438e+00
1.370000e-06	2.087988e-06	2.407301e-11	1.396644e+01	1.350686e+00
1.380000e-06	2.110635e-06	2.461230e-11	1.411792e+01	1.361450e+00
1.390000e-06	2.132572e-06	2.725695e-11	1.426466e+01	1.371725e+00
1.400000e-06	2.153745e-06	2.942774e-11	1.440628e+01	1.381510e+00
1.410000e-06	2.174282e-06	2.939557e-11	1.454365e+01	1.390799e+00
1.420000e-06	2.194254e-06	2.914520e-11	1.467724e+01	1.399589e+00
1.430000e-06	2.213437e-06	3.123782e-11	1.480556e+01	1.407878e+00
1.440000e-06	2.231666e-06	3.315158e-11	1.492749e+01	1.415662e+00
1.450000e-06	2.249117e-06	3.036788e-11	1.504422e+01	1.422939e+00
1.460000e-06	2.265936e-06	2.583036e-11	1.515672e+01	1.429706e+00
1.470000e-06	2.281876e-06	2.412198e-11	1.526334e+01	1.435960e+00
1.480000e-06	2.296815e-06	2.631831e-11	1.536327e+01	1.441700e+00
1.490000e-06	2.310930e-06	2.857016e-11	1.545768e+01	1.446923e+00
1.500000e-06	2.324190e-06	2.900443e-11	1.554638e+01	1.451627e+00
1.510000e-06	2.336616e-06	2.930348e-11	1.562950e+01	1.455811e+00
1.520000e-06	2.348167e-06	3.162286e-11	1.570676e+01	1.459473e+00
1.530000e-06	2.358612e-06	3.315141e-11	1.577662e+01	1.462612e+00
1.540000e-06	2.367934e-06	3.021280e-11	1.583898e+01	1.465226e+00
1.550000e-06	2.376360e-06	2.727262e-11	1.589534e+01	1.467316e+00
1.560000e-06	2.384037e-06	2.765888e-11	1.594669e+01	1.468879e+00
1.570000e-06	2.390901e-06	2.956457e-11	1.599261e+01	1.469916e+00
1.580000e-06	2.396939e-06	2.966181e-11	1.603299e+01	1.470426e+00
1.590000e-06	2.402141e-06	3.007572e-11	1.606779e+01	1.470409e+00
1.600000e-06	2.406669e-06	3.228418e-11	1.609808e+01	1.469865e+00
1.610000e-06	2.410572e-06	3.493939e-11	1.612418e+01	1.468794e+00
1.620000e-06	2.413535e-06	3.562037e-11	1.614400e+01	1.467196e+00
1.630000e-06	2.415356e-06	3.238071e-11	1.615618e+01	1.465072e+00
1.640000e-06	2.416177e-06	2.907392e-11	1.616167e+01	1.462424e+00
1.650000e-06	2.416255e-06	2.931921e-11	1.616220e+01	1.459251e+00
1.660000e-06	2.415588e-06	2.908090e-11	1.615773e+01	1.455555e+00
1.670000e-06	2.414109e-06	2.732157e-11	1.614784e+01	1.451337e+00
1.680000e-06	2.411834e-06	2.741844e-11	1.613263e+01	1.446599e+00
1.690000e-06	2.408845e-06	2.798809e-11	1.611263e+01	1.441342e+00
1.700000e-06	2.405298e-06	2.964931e-11	1.608891e+01	1.435569e+00
1.710000e-06	2.401153e-06	3.654720e-11	1.606118e+01	1.429281e+00
1.720000e-06	2.396075e-06	3.747445e-11	1.602721e+01	1.422481e+00
1.730000e-06	2.389757e-06	-4.996826e-12	1.598495e+01	1.415171e+00
1.740000e-06	2.382181e-06	-1.942780e-11	1.593427e+01	1.407353e+00
1.750000e-06	2.373471e-06	7.093684e-11	1.587602e+01	1.399032e+00
1.760000e-06	2.364101e-06	5.720976e-11	1.581334e+01	1.390208e+00
1.770000e-06	2.354563e-06	-2.318045e-12	1.574954e+01	1.380887e+00
1.780000e-06	2.344447e-06	-3.369133e-11	1.568188e+01	1.371070e+00
1.790000e-06	2.332930e-06	5.339335e-11	1.560484e+01	1.360762e+00
1.800000e-06	2.320339e-06	4.459095e-11	1.552062e+01	1.349966e+00
1.810000e-06	2.307398e-06	-2.421570e-11	1.543406e+01	1.338686e+00
1.820000e-06	2.293461e-06	4.136793e-11	1.534084e+01	1.326926e+00
1.830000e-06	2.278079e-06	5.252482e-11	1.523795e+01	1.314691e+00
1.840000e-06	2.262001e-06	-3.170261e-11	1.513040e+01	1.301984e+00
1.850000e-06	2.245403e-06	-1.149122e-11	1.501938e+01	1.288811e+00
1.860000e-06	2.227827e-06	1.089491e-10	1.490181e+01	1.275176e+00
1.870000e-06	2.209295e-06	-1.735159e-11	1.477785e+01	1.261084e+00
1.880000e-06	2.190170e-06	-7.244950e-11	1.464993e+01	1.246540e+00
1.890000e-06	2.170523e-06	8.468114e-11	1.451851e+01	1.231548e+00
1.900000e-06	2.150083e-06	6.314503e-11	1.438179e+01	1.216116e+00
1.910000e-06	2.128701e-06	-5.690696e-11	1.423877e+01	1.200248e+00
1.920000e-06	2.106306e-06	2.859188e-11	1.408896e+01	1.183949e+00
1.930000e-06	2.083038e-06	4.420678e-11	1.393333e+01	1.167226e+00
1.940000e-06	2.059095e-06	-1.560092e-11	1.377318e+01	1.150085e+00
1.950000e-06	2.034423e-06	4.573767e-11	1.360814e+01	1.132531e+00
1.960000e-06	2.009119e-06	3.452889e-11	1.343889e+01	1.114572e+00
1.970000e-06	1.983234e-06	-4.677117e-11	1.326574e+01	1.096213e+00
1.980000e-06	1.956576e-06	3.294441e-11	1.308743e+01	1.077461e+00
1.990000e-06	1.929286e-06	7.166660e-11	1.290489e+01	1.058324e+00
2.000000e-06	1.901565e-06	-9.913744e-12	1.271946e+01	1.038806e+00
2.010000e-06	1.873089e-06	1.655261e-11	1.252899e+01	1.018917e+00
2.020000e-06	1.843567e-06	2.969304e-11	1.233152e+01	9.986623e-01
2.030000e-06	1.813173e-06	6.956890e-12	1.212822e+01	9.780499e-01
2.040000e-06	1.782156e-06	3.450285e-11	1.192075e+01	9.570869e-01
2.050000e-06	1.750635e-06	2.056327e-11	1.170990e+01	9.357810e-01
2.060000e-06	1.718584e-06	-8.039844e-12	1.149552e+01	9.141397e-01
2.070000e-06	1.685919e-06	3.696503e-11	1.127702e+01	8.921709e-01
2.080000e-06	1.652685e-06	5.368304e-11	1.105472e+01	8.698824e-01
2.090000e-06	1.618870e-06	2.127921e-11	1.082853e+01	8.472822e-01
2.100000e-06	1.584458e-06	1.258028e-11	1.059835e+01	8.243784e-01
2.110000e-06	1.549535e-06	6.428041e-12	1.036476e+01	8.011792e-01
2.120000e-06	1.514212e-06	2.545001e-11	1.012848e+01	7.776931e-01
2.130000e-06	1.478547e-06	3.185051e-11	9.889921e+00	7.539283e-01
2.140000e-06	1.442405e-06	1.200153e-11	9.648168e+00	7.298934e-01
2.150000e-06	1.405522e-06	1.031983e-11	9.401457e+00	7.055970e-01
2.160000e-06	1.367724e-06	2.191872e-11	9.148630e+00	6.810479e-01
2.170000e-06	1.329155e-06	3.045224e-11	8.890644e+00	6.562548e-01
2.180000e-06	1.290066e-06	1.974189e-11	8.629180e+00	6.312267e-01
2.190000e-06	1.250659e-06	9.284412e-12	8.365588e+00	6.059725e-01
2.200000e-06	1.211010e-06	8.072272e-12	8.100380e+00	5.805012e-01
2.210000e-06	1.171021e-06	1.744789e-11	7.832898e+00	5.548221e-01
2.220000e-06	1.130602e-06	2.507621e-11	7.562533e+00	5.289444e-01
2.230000e-06	1.089759e-06	1.963577e-11	7.289339e+00	5.028772e-01
2.240000e-06	1.048556e-06	5.219494e-13	7.013731e+00	4.766300e-01
2.250000e-06	1.007065e-06	6.213176e-12	6.736200e+00	4.502122e-01
2.260000e-06	9.652929e-07	2.246961e-11	6.456791e+00	4.236333e-01
2.270000e-06	9.231682e-07	1.157386e-11	6.175021e+00	3.969027e-01
2.280000e-06	8.806924e-07	1.836906e-12	5.890903e+00	3.700302e-01
2.290000e-06	8.378352e-07	-1.762412e-12	5.604234e+00	3.430252e-01
2.300000e-06	7.946730e-07	6.196023e-12	5.315524e+00	3.158976e-01
2.310000e-06	7.513475e-07	1.253877e-11	5.025722e+00	2.886570e-01
2.320000e-06	7.078922e-07	1.973276e-12	4.735052e+00	2.613132e-01
2.330000e-06	6.643149e-07	-7.626105e-12	4.443566e+00	2.338760e-01
2.340000e-06	6.206079e-07	-2.995451e-12	4.151212e+00	2.063553e-01
2.350000e-06	5.767454e-07	3.973457e-12	3.857818e+00	1.787609e-01
2.360000e-06	5.327522e-07	4.386775e-12	3.563550e+00	1.511028e-01
2.370000e-06	4.885892e-07	-4.987085e-12	3.268146e+00	1.233908e-01
2.380000e-06	4.441214e-07	-1.360269e-11	2.970704e+00	9.563497e-02
2.390000e-06	3.994297e-07	-4.055787e-12	2.671763e+00	6.784516e-02
2.400000e-06	3.546514e-07	2.658305e-12	2.372244e+00	4.003136e-02
2.410000e-06	3.096923e-07	-3.422287e-12	2.071515e+00	1.220358e-02
2.420000e-06	2.645462e-07	-1.330666e-11	1.769535e+00	-1.562823e-02
2.430000e-06	2.192678e-07	-1.342156e-11	1.466670e+00	-4.345406e-02
2.440000e-06	1.738437e-07	-5.159851e-12	1.162831e+00	-7.126394e-02
2.450000e-06	1.283579e-07	-5.128613e-12	8.585787e-01	-9.904790e-02
2.460000e-06	8.289983e-08	-1.188444e-11	5.545124e-01	-1.267960e-01
2.470000e-06	3.742122e-08	-1.615867e-11	2.503085e-01	-1.544982e-01
2.480000e-06	-8.084748e-09	-1.070280e-11	-5.407844e-02	-1.821446e-01
2.490000e-06	-5.352294e-08	-6.007214e-12	-3.580120e-01	-2.097253e-01
2.500000e-06	-9.894240e-08	-9.494430e-12	-6.618203e-01	-2.372304e-01
2.510000e-06	-1.443837e-07	-1.571083e-11	-9.657744e-01	-2.646501e-01
2.520000e-06	-1.897784e-07	-1.454975e-11	-1.269417e+00	-2.919745e-01
2.530000e-06	-2.350522e-07	-7.187508e-12	-1.572251e+00	-3.191937e-01
2.540000e-06	-2.801620e-07	-4.056554e-12	-1.873988e+00	-3.462981e-01
2.550000e-06	-3.251094e-07	-7.996787e-12	-2.174639e+00	-3.732779e-01
2.560000e-06	-3.699669e-07	-1.338108e-11	-2.474688e+00	-4.001234e-01
2.570000e-06	-4.147158e-07	-1.074339e-11	-2.774011e+00	-4.268251e-01
2.580000e-06	-4.592408e-07	-8.314182e-12	-3.071836e+00	-4.533732e-01
2.590000e-06	-5.035062e-07	-1.132137e-11	-3.367925e+00	-4.797583e-01
2.600000e-06	-5.475507e-07	-1.660277e-11	-3.662537e+00	-5.059710e-01
2.610000e-06	-5.914059e-07	-1.638443e-11	-3.955882e+00	-5.320018e-01
2.620000e-06	-6.350774e-07	-1.006009e-11	-4.247998e+00	-5.578414e-01
2.630000e-06	-6.786429e-07	-7.048670e-12	-4.539405e+00	-5.834806e-01
2.640000e-06	-7.221319e-07	-1.068909e-11	-4.830300e+00	-6.089100e-01
2.650000e-06	-7.655448e-07	-1.557023e-11	-5.120687e+00	-6.341207e-01
2.660000e-06	-8.088411e-07	-1.455001e-11	-5.410293e+00	-6.591035e-01
2.670000e-06	-8.517935e-07	-1.128729e-11	-5.697600e+00	-6.838495e-01
2.680000e-06	-8.943205e-07	-1.229880e-11	-5.982060e+00	-7.083498e-01
2.690000e-06	-9.365030e-07	-1.745708e-11	-6.264217e+00	-7.325957e-01
2.700000e-06	-9.783784e-07	-1.852675e-11	-6.544319e+00	-7.565784e-01
2.710000e-06	-1.019983e-06	-1.535239e-11	-6.822609e+00	-7.802893e-01
2.720000e-06	-1.061291e-06	-1.313732e-11	-7.098915e+00	-8.037200e-01
2.730000e-06	-1.102214e-06	-1.367230e-11	-7.372647e+00	-8.268619e-01
2.740000e-06	-1.142674e-06	-1.442301e-11	-7.643285e+00	-8.497069e-01
2.750000e-06	-1.182707e-06	-1.286849e-11	-7.911062e+00	-8.722467e-01
2.760000e-06	-1.222410e-06	-1.105438e-11	-8.176630e+00	-8.944733e-01
2.770000e-06	-1.261859e-06	-9.894387e-12	-8.440508e+00	-9.163786e-01
2.780000e-06	-1.301004e-06	-1.101291e-11	-8.702345e+00	-9.379548e-01
2.790000e-06	-1.339724e-06	-1.253293e-11	-8.961342e+00	-9.591942e-01
2.800000e-06	-1.377922e-06	-1.306689e-11	-9.216847e+00	-9.800891e-01
2.810000e-06	-1.415272e-06	-1.266706e-11	-9.466679e+00	-1.000632e+00
2.820000e-06	-1.451700e-06	-1.264932e-11	-9.710341e+00	-1.020816e+00
2.830000e-06	-1.487558e-06	-1.250919e-11	-9.950197e+00	-1.040633e+00
2.840000e-06	-1.523084e-06	-1.003251e-11	-1.018782e+01	-1.060076e+00
2.850000e-06	-1.558232e-06	-9.199792e-12	-1.042293e+01	-1.079139e+00
2.860000e-06	-1.592861e-06	-1.147640e-11	-1.065456e+01	-1.097814e+00
2.870000e-06	-1.626905e-06	-1.569256e-11	-1.088228e+01	-1.116096e+00
2.880000e-06	-1.660384e-06	-1.918328e-11	-1.110622e+01	-1.133976e+00
2.890000e-06	-1.693276e-06	-1.926596e-11	-1.132623e+01	-1.151449e+00
2.900000e-06	-1.725537e-06	-1.772198e-11	-1.154202e+01	-1.168509e+00
2.910000e-06	-1.757319e-06	-1.732991e-11	-1.175461e+01	-1.185149e+00
2.920000e-06	-1.788684e-06	-1.791356e-11	-1.196441e+01	-1.201364e+00
2.930000e-06	-1.819422e-06	-1.655583e-11	-1.217001e+01	-1.217148e+00
2.940000e-06	-1.849238e-06	-1.499543e-11	-1.236945e+01	-1.232494e+00
