# Temperatura_=_20.0
# Concentracion g/m^3_=_10000.0
# C_Vs_to_Am_M_A/Vsm_=_65563218390.804596
# pendiente_HvsI_1/m_=_3716.3
# ordenada_HvsI_A/m_=_1297.0
# frecuencia_Hz_=_301440.59723204776

Tiempo_(s)	Campo_(V.s)	Magnetizacion_(V.s)	Campo_(kA/m)	Magnetizacion_(A/m)
0.000000e+00	-2.415684e-06	2.366878e-13	-1.613184e+01	-7.219097e-01
1.000000e-08	-2.414950e-06	1.041481e-12	-1.612694e+01	-7.221928e-01
2.000000e-08	-2.413282e-06	4.145128e-12	-1.611580e+01	-7.222166e-01
3.000000e-08	-2.410511e-06	7.570159e-12	-1.609729e+01	-7.219811e-01
4.000000e-08	-2.406780e-06	9.361376e-12	-1.607238e+01	-7.214864e-01
5.000000e-08	-2.402336e-06	6.648298e-12	-1.604270e+01	-7.207327e-01
6.000000e-08	-2.397193e-06	-3.933021e-12	-1.600836e+01	-7.197201e-01
7.000000e-08	-2.391180e-06	-2.803033e-11	-1.596820e+01	-7.184492e-01
8.000000e-08	-2.384192e-06	-1.799631e-11	-1.592154e+01	-7.169203e-01
9.000000e-08	-2.376358e-06	4.667681e-11	-1.586922e+01	-7.151340e-01
1.000000e-07	-2.367953e-06	4.509887e-11	-1.581309e+01	-7.130909e-01
1.100000e-07	-2.358904e-06	-6.034226e-11	-1.575267e+01	-7.107918e-01
1.200000e-07	-2.348787e-06	-5.783964e-11	-1.568510e+01	-7.082374e-01
1.300000e-07	-2.337506e-06	4.634664e-11	-1.560977e+01	-7.054288e-01
1.400000e-07	-2.325341e-06	2.669130e-11	-1.552853e+01	-7.023669e-01
1.500000e-07	-2.312334e-06	-6.539300e-11	-1.544167e+01	-6.990528e-01
1.600000e-07	-2.298258e-06	-2.183103e-11	-1.534767e+01	-6.954877e-01
1.700000e-07	-2.283224e-06	5.062040e-11	-1.524727e+01	-6.916729e-01
1.800000e-07	-2.267389e-06	-5.603003e-11	-1.514153e+01	-6.876097e-01
1.900000e-07	-2.250554e-06	-4.076102e-11	-1.502911e+01	-6.832996e-01
2.000000e-07	-2.232766e-06	5.212964e-11	-1.491032e+01	-6.787442e-01
2.100000e-07	-2.214342e-06	-5.176412e-11	-1.478728e+01	-6.739451e-01
2.200000e-07	-2.195246e-06	-1.020204e-10	-1.465976e+01	-6.689040e-01
2.300000e-07	-2.175379e-06	3.777522e-11	-1.452709e+01	-6.636227e-01
2.400000e-07	-2.154827e-06	4.369829e-11	-1.438984e+01	-6.581031e-01
2.500000e-07	-2.133587e-06	-9.232245e-11	-1.424801e+01	-6.523472e-01
2.600000e-07	-2.111655e-06	-4.793550e-11	-1.410155e+01	-6.463570e-01
2.700000e-07	-2.088986e-06	2.444058e-11	-1.395017e+01	-6.401348e-01
2.800000e-07	-2.065560e-06	-1.947021e-11	-1.379373e+01	-6.336826e-01
2.900000e-07	-2.041476e-06	-4.028902e-11	-1.363289e+01	-6.270030e-01
3.000000e-07	-2.016868e-06	-2.369836e-11	-1.346856e+01	-6.200982e-01
3.100000e-07	-1.991584e-06	-4.152333e-11	-1.329972e+01	-6.129707e-01
3.200000e-07	-1.965282e-06	-3.064802e-12	-1.312407e+01	-6.056231e-01
3.300000e-07	-1.937919e-06	4.556971e-12	-1.294134e+01	-5.980580e-01
3.400000e-07	-1.909815e-06	-2.876945e-11	-1.275367e+01	-5.902781e-01
3.500000e-07	-1.881195e-06	-3.405653e-11	-1.256254e+01	-5.822863e-01
3.600000e-07	-1.852031e-06	-3.068932e-11	-1.236779e+01	-5.740853e-01
3.700000e-07	-1.822231e-06	-5.553433e-12	-1.216878e+01	-5.656782e-01
3.800000e-07	-1.791749e-06	1.952531e-12	-1.196523e+01	-5.570679e-01
3.900000e-07	-1.760603e-06	-3.658027e-11	-1.175724e+01	-5.482576e-01
4.000000e-07	-1.728886e-06	-5.570932e-11	-1.154543e+01	-5.392504e-01
4.100000e-07	-1.696739e-06	1.203396e-11	-1.133076e+01	-5.300495e-01
4.200000e-07	-1.664177e-06	2.149695e-12	-1.111330e+01	-5.206582e-01
4.300000e-07	-1.630952e-06	-3.438054e-11	-1.089143e+01	-5.110799e-01
4.400000e-07	-1.596907e-06	-2.679328e-11	-1.066408e+01	-5.013181e-01
4.500000e-07	-1.562020e-06	-1.299848e-11	-1.043110e+01	-4.913762e-01
4.600000e-07	-1.526394e-06	5.660669e-13	-1.019320e+01	-4.812577e-01
4.700000e-07	-1.490308e-06	2.866261e-12	-9.952218e+00	-4.709665e-01
4.800000e-07	-1.453879e-06	-1.450622e-11	-9.708948e+00	-4.605060e-01
4.900000e-07	-1.417030e-06	-2.871458e-11	-9.462867e+00	-4.498802e-01
5.000000e-07	-1.379623e-06	3.497150e-12	-9.213068e+00	-4.390927e-01
5.100000e-07	-1.341672e-06	9.825640e-12	-8.959632e+00	-4.281475e-01
5.200000e-07	-1.303280e-06	-3.329862e-12	-8.703251e+00	-4.170485e-01
5.300000e-07	-1.264458e-06	-1.574959e-11	-8.443997e+00	-4.057996e-01
5.400000e-07	-1.225175e-06	-2.211963e-12	-8.181671e+00	-3.944050e-01
5.500000e-07	-1.185454e-06	1.629497e-11	-7.916414e+00	-3.828686e-01
5.600000e-07	-1.145443e-06	8.046157e-12	-7.649225e+00	-3.711947e-01
5.700000e-07	-1.105240e-06	-1.157928e-11	-7.380746e+00	-3.593874e-01
5.800000e-07	-1.064766e-06	-1.624550e-11	-7.110465e+00	-3.474509e-01
5.900000e-07	-1.023910e-06	6.012378e-12	-6.837632e+00	-3.353896e-01
6.000000e-07	-9.825719e-07	1.253210e-11	-6.561575e+00	-3.232078e-01
6.100000e-07	-9.406326e-07	5.581815e-12	-6.281507e+00	-3.109097e-01
6.200000e-07	-8.980917e-07	-7.106410e-12	-5.997420e+00	-2.985000e-01
6.300000e-07	-8.550252e-07	-5.422884e-14	-5.709824e+00	-2.859829e-01
6.400000e-07	-8.114621e-07	1.324834e-11	-5.418911e+00	-2.733630e-01
6.500000e-07	-7.675497e-07	9.792454e-12	-5.125666e+00	-2.606449e-01
6.600000e-07	-7.234876e-07	-5.704294e-12	-4.831421e+00	-2.478330e-01
6.700000e-07	-6.793363e-07	-1.199756e-11	-4.536580e+00	-2.349320e-01
6.800000e-07	-6.350787e-07	5.085702e-12	-4.241030e+00	-2.219465e-01
6.900000e-07	-5.906793e-07	1.318857e-11	-3.944532e+00	-2.088812e-01
7.000000e-07	-5.461184e-07	4.625990e-12	-3.646957e+00	-1.957407e-01
7.100000e-07	-5.013677e-07	-1.182569e-11	-3.348113e+00	-1.825298e-01
7.200000e-07	-4.563993e-07	-8.607999e-12	-3.047816e+00	-1.692532e-01
7.300000e-07	-4.112357e-07	4.814366e-12	-2.746215e+00	-1.559157e-01
7.400000e-07	-3.659111e-07	4.891889e-12	-2.443540e+00	-1.425220e-01
7.500000e-07	-3.205128e-07	-7.598129e-12	-2.140371e+00	-1.290770e-01
7.600000e-07	-2.749748e-07	-1.537902e-11	-1.836271e+00	-1.155854e-01
7.700000e-07	-2.292734e-07	-5.228616e-12	-1.531078e+00	-1.020522e-01
7.800000e-07	-1.835257e-07	6.032151e-13	-1.225577e+00	-8.848214e-02
7.900000e-07	-1.376845e-07	-8.496389e-12	-9.194516e-01	-7.488014e-02
8.000000e-07	-9.174301e-08	-2.106090e-11	-6.126561e-01	-6.125107e-02
8.100000e-07	-4.579056e-08	-1.644678e-11	-3.057875e-01	-4.759981e-02
8.200000e-07	1.534978e-10	-4.590461e-12	1.025052e-03	-3.393126e-02
8.300000e-07	4.611199e-08	-2.261329e-12	3.079340e-01	-2.025033e-02
8.400000e-07	9.205588e-08	-1.301687e-11	6.147454e-01	-6.561929e-03
8.500000e-07	1.379046e-07	-2.139811e-11	9.209211e-01	7.129041e-03
8.600000e-07	1.836947e-07	-1.439762e-11	1.226705e+00	2.081766e-02
8.700000e-07	2.294626e-07	-7.337749e-12	1.532342e+00	3.449903e-02
8.800000e-07	2.751301e-07	-1.051506e-11	1.837308e+00	4.816822e-02
8.900000e-07	3.206289e-07	-1.890854e-11	2.141147e+00	6.182035e-02
9.000000e-07	3.659443e-07	-1.610205e-11	2.443761e+00	7.545051e-02
9.100000e-07	4.111111e-07	-6.150015e-12	2.745383e+00	8.905381e-02
9.200000e-07	4.560907e-07	-2.573944e-12	3.045755e+00	1.026254e-01
9.300000e-07	5.008671e-07	-1.055209e-11	3.344770e+00	1.161603e-01
9.400000e-07	5.455464e-07	-1.847229e-11	3.643137e+00	1.296538e-01
9.500000e-07	5.900981e-07	-1.280034e-11	3.940651e+00	1.431010e-01
9.600000e-07	6.345143e-07	-2.930755e-12	4.237260e+00	1.564971e-01
9.700000e-07	6.788403e-07	-2.922737e-13	4.533268e+00	1.698372e-01
9.800000e-07	7.230314e-07	-6.208983e-12	4.828374e+00	1.831166e-01
9.900000e-07	7.670531e-07	-7.782647e-12	5.122349e+00	1.963305e-01
1.000000e-06	8.109308e-07	-2.142643e-12	5.415363e+00	2.094742e-01
1.010000e-06	8.544802e-07	2.094409e-12	5.706184e+00	2.225429e-01
1.020000e-06	8.974223e-07	-1.663880e-12	5.992949e+00	2.355321e-01
1.030000e-06	9.397960e-07	-8.759777e-12	6.275920e+00	2.484369e-01
1.040000e-06	9.816148e-07	-6.910499e-12	6.555184e+00	2.612528e-01
1.050000e-06	1.022834e-06	1.534696e-12	6.830444e+00	2.739752e-01
1.060000e-06	1.063589e-06	5.758554e-12	7.102601e+00	2.865995e-01
1.070000e-06	1.104022e-06	3.366794e-13	7.372614e+00	2.991212e-01
1.080000e-06	1.144223e-06	-4.656532e-12	7.641076e+00	3.115358e-01
1.090000e-06	1.184226e-06	-1.546845e-12	7.908214e+00	3.238389e-01
1.100000e-06	1.223925e-06	4.803140e-12	8.173321e+00	3.360260e-01
1.110000e-06	1.263131e-06	4.800597e-12	8.435141e+00	3.480927e-01
1.120000e-06	1.301814e-06	9.459269e-13	8.693459e+00	3.600348e-01
1.130000e-06	1.340070e-06	3.580766e-12	8.948931e+00	3.718479e-01
1.140000e-06	1.377871e-06	1.057734e-11	9.201365e+00	3.835278e-01
1.150000e-06	1.415152e-06	1.361253e-11	9.450325e+00	3.950703e-01
1.160000e-06	1.451946e-06	7.933395e-12	9.696035e+00	4.064713e-01
1.170000e-06	1.488400e-06	3.121598e-12	9.939478e+00	4.177267e-01
1.180000e-06	1.524582e-06	5.025994e-12	1.018109e+01	4.288325e-01
1.190000e-06	1.560311e-06	1.020660e-11	1.041969e+01	4.397846e-01
1.200000e-06	1.595304e-06	1.083294e-11	1.065338e+01	4.505791e-01
1.210000e-06	1.629357e-06	7.030373e-12	1.088078e+01	4.612122e-01
1.220000e-06	1.662574e-06	8.001633e-12	1.110260e+01	4.716800e-01
1.230000e-06	1.695236e-06	1.437490e-11	1.132072e+01	4.819789e-01
1.240000e-06	1.727415e-06	1.987060e-11	1.153560e+01	4.921050e-01
1.250000e-06	1.759065e-06	1.783004e-11	1.174696e+01	5.020548e-01
1.260000e-06	1.790120e-06	1.392195e-11	1.195435e+01	5.118247e-01
1.270000e-06	1.820579e-06	1.439152e-11	1.215775e+01	5.214111e-01
1.280000e-06	1.850445e-06	1.834548e-11	1.235720e+01	5.308107e-01
1.290000e-06	1.879647e-06	1.916061e-11	1.255220e+01	5.400201e-01
1.300000e-06	1.908299e-06	1.618988e-11	1.274355e+01	5.490360e-01
1.310000e-06	1.936506e-06	1.558167e-11	1.293191e+01	5.578551e-01
1.320000e-06	1.964089e-06	1.855566e-11	1.311611e+01	5.664743e-01
1.330000e-06	1.990800e-06	1.933963e-11	1.329448e+01	5.748905e-01
1.340000e-06	2.016511e-06	1.607830e-11	1.346618e+01	5.831006e-01
1.350000e-06	2.041303e-06	1.349476e-11	1.363174e+01	5.911018e-01
1.360000e-06	2.065384e-06	1.401426e-11	1.379255e+01	5.988911e-01
1.370000e-06	2.088821e-06	1.610390e-11	1.394906e+01	6.064657e-01
1.380000e-06	2.111570e-06	1.474744e-11	1.410098e+01	6.138230e-01
1.390000e-06	2.133643e-06	1.047888e-11	1.424838e+01	6.209603e-01
1.400000e-06	2.154996e-06	8.341440e-12	1.439097e+01	6.278750e-01
1.410000e-06	2.175638e-06	1.162142e-11	1.452882e+01	6.345647e-01
1.420000e-06	2.195677e-06	1.612577e-11	1.466264e+01	6.410269e-01
1.430000e-06	2.215008e-06	1.661516e-11	1.479173e+01	6.472594e-01
1.440000e-06	2.233469e-06	1.433769e-11	1.491501e+01	6.532598e-01
1.450000e-06	2.251103e-06	1.184273e-11	1.503278e+01	6.590262e-01
1.460000e-06	2.267986e-06	1.027651e-11	1.514552e+01	6.645562e-01
1.470000e-06	2.283990e-06	7.359929e-12	1.525239e+01	6.698481e-01
1.480000e-06	2.299029e-06	3.400941e-12	1.535282e+01	6.748999e-01
1.490000e-06	2.313216e-06	2.435727e-12	1.544756e+01	6.797098e-01
1.500000e-06	2.326590e-06	6.683262e-12	1.553687e+01	6.842760e-01
1.510000e-06	2.339143e-06	1.133461e-11	1.562070e+01	6.885970e-01
1.520000e-06	2.350805e-06	1.144236e-11	1.569858e+01	6.926711e-01
1.530000e-06	2.361363e-06	8.422998e-12	1.576909e+01	6.964969e-01
1.540000e-06	2.370806e-06	6.289275e-12	1.583215e+01	7.000731e-01
1.550000e-06	2.379350e-06	6.953352e-12	1.588920e+01	7.033983e-01
1.560000e-06	2.387114e-06	7.060963e-12	1.594105e+01	7.064714e-01
1.570000e-06	2.394097e-06	5.362640e-12	1.598768e+01	7.092913e-01
1.580000e-06	2.400239e-06	4.168443e-12	1.602870e+01	7.118569e-01
1.590000e-06	2.405557e-06	6.923161e-12	1.606421e+01	7.141673e-01
1.600000e-06	2.410235e-06	1.159297e-11	1.609545e+01	7.162217e-01
1.610000e-06	2.414241e-06	1.307407e-11	1.612220e+01	7.180194e-01
1.620000e-06	2.417271e-06	1.006226e-11	1.614244e+01	7.195597e-01
1.630000e-06	2.419154e-06	7.014105e-12	1.615501e+01	7.208421e-01
1.640000e-06	2.420081e-06	7.257851e-12	1.616120e+01	7.218661e-01
1.650000e-06	2.420230e-06	7.321570e-12	1.616220e+01	7.226313e-01
1.660000e-06	2.419580e-06	4.506464e-12	1.615786e+01	7.231374e-01
1.670000e-06	2.418184e-06	3.779276e-12	1.614854e+01	7.233844e-01
1.680000e-06	2.416066e-06	6.047719e-12	1.613439e+01	7.233720e-01
1.690000e-06	2.413197e-06	8.202435e-12	1.611523e+01	7.231004e-01
1.700000e-06	2.409727e-06	9.214907e-12	1.609206e+01	7.225695e-01
1.710000e-06	2.405625e-06	9.086375e-12	1.606466e+01	7.217797e-01
1.720000e-06	2.400594e-06	-3.687011e-12	1.603107e+01	7.207311e-01
1.730000e-06	2.394409e-06	-2.140329e-11	1.598976e+01	7.194241e-01
1.740000e-06	2.386974e-06	2.786944e-11	1.594011e+01	7.178593e-01
1.750000e-06	2.378403e-06	7.800401e-11	1.588288e+01	7.160371e-01
1.760000e-06	2.369119e-06	-2.293762e-11	1.582088e+01	7.139583e-01
1.770000e-06	2.359559e-06	-4.939754e-11	1.575704e+01	7.116235e-01
1.780000e-06	2.349420e-06	4.552117e-12	1.568933e+01	7.090337e-01
1.790000e-06	2.338064e-06	6.353092e-11	1.561349e+01	7.061897e-01
1.800000e-06	2.325719e-06	-3.354011e-11	1.553105e+01	7.030925e-01
1.810000e-06	2.312816e-06	-3.806273e-11	1.544489e+01	6.997434e-01
1.820000e-06	2.298901e-06	7.089222e-11	1.535197e+01	6.961434e-01
1.830000e-06	2.283724e-06	9.824721e-12	1.525062e+01	6.922939e-01
1.840000e-06	2.267774e-06	-3.922664e-11	1.514410e+01	6.881962e-01
1.850000e-06	2.251237e-06	5.068965e-11	1.503367e+01	6.838519e-01
1.860000e-06	2.233781e-06	5.986756e-11	1.491710e+01	6.792624e-01
1.870000e-06	2.215396e-06	-9.938785e-11	1.479432e+01	6.744294e-01
1.880000e-06	2.196354e-06	3.956118e-12	1.466716e+01	6.693548e-01
1.890000e-06	2.176716e-06	1.231191e-10	1.453602e+01	6.640402e-01
1.900000e-06	2.156344e-06	-2.430731e-11	1.439998e+01	6.584876e-01
1.910000e-06	2.135070e-06	-6.975710e-11	1.425791e+01	6.526989e-01
1.920000e-06	2.112756e-06	7.004453e-11	1.410890e+01	6.466764e-01
1.930000e-06	2.089560e-06	3.705938e-11	1.395400e+01	6.404220e-01
1.940000e-06	2.065722e-06	-1.433911e-11	1.379481e+01	6.339381e-01
1.950000e-06	2.041180e-06	1.742624e-11	1.363091e+01	6.272270e-01
1.960000e-06	2.015975e-06	2.334590e-13	1.346260e+01	6.202911e-01
1.970000e-06	1.990080e-06	1.211930e-11	1.328967e+01	6.131329e-01
1.980000e-06	1.963401e-06	4.616044e-11	1.311151e+01	6.057549e-01
1.990000e-06	1.936130e-06	1.133221e-12	1.292940e+01	5.981598e-01
2.000000e-06	1.908388e-06	4.521904e-13	1.274414e+01	5.903504e-01
2.010000e-06	1.879918e-06	3.047302e-11	1.255401e+01	5.823294e-01
2.020000e-06	1.850464e-06	-1.720043e-12	1.235732e+01	5.740997e-01
2.030000e-06	1.820073e-06	4.184728e-11	1.215438e+01	5.656642e-01
2.040000e-06	1.788994e-06	3.054837e-11	1.194683e+01	5.570260e-01
2.050000e-06	1.757434e-06	-3.876202e-11	1.173607e+01	5.481882e-01
2.060000e-06	1.725352e-06	2.680456e-11	1.152183e+01	5.391540e-01
2.070000e-06	1.692620e-06	6.283506e-11	1.130325e+01	5.299266e-01
2.080000e-06	1.659311e-06	-3.618486e-12	1.108081e+01	5.205092e-01
2.090000e-06	1.625502e-06	5.828077e-13	1.085504e+01	5.109054e-01
2.100000e-06	1.591134e-06	1.807074e-11	1.062553e+01	5.011185e-01
2.110000e-06	1.556214e-06	2.831183e-12	1.039233e+01	4.911520e-01
2.120000e-06	1.520848e-06	2.953102e-11	1.015616e+01	4.810096e-01
2.130000e-06	1.485151e-06	6.125895e-12	9.917778e+00	4.706948e-01
2.140000e-06	1.449034e-06	-1.683358e-11	9.676588e+00	4.602113e-01
2.150000e-06	1.412230e-06	1.471898e-11	9.430815e+00	4.495630e-01
2.160000e-06	1.374594e-06	1.696685e-11	9.179484e+00	4.387536e-01
2.170000e-06	1.336147e-06	9.960324e-12	8.922737e+00	4.277871e-01
2.180000e-06	1.297093e-06	-1.143802e-12	8.661933e+00	4.166673e-01
2.190000e-06	1.257690e-06	-6.885708e-12	8.398805e+00	4.053982e-01
2.200000e-06	1.218004e-06	1.285706e-11	8.133780e+00	3.939839e-01
2.210000e-06	1.177995e-06	1.981439e-11	7.866602e+00	3.824286e-01
2.220000e-06	1.137588e-06	-2.247589e-12	7.596763e+00	3.707362e-01
2.230000e-06	1.096737e-06	-3.935420e-12	7.323966e+00	3.589110e-01
2.240000e-06	1.055507e-06	5.624554e-12	7.048630e+00	3.469574e-01
2.250000e-06	1.014010e-06	1.333593e-11	6.771515e+00	3.348794e-01
2.260000e-06	9.722156e-07	1.095537e-11	6.492416e+00	3.226816e-01
2.270000e-06	9.300501e-07	-3.962304e-12	6.210837e+00	3.103682e-01
2.280000e-06	8.874671e-07	-2.086353e-12	5.926469e+00	2.979437e-01
2.290000e-06	8.444870e-07	4.523047e-12	5.639450e+00	2.854126e-01
2.300000e-06	8.012722e-07	9.221469e-12	5.350864e+00	2.727792e-01
2.310000e-06	7.579284e-07	1.078467e-13	5.061415e+00	2.600483e-01
2.320000e-06	7.144515e-07	-9.079795e-12	4.771078e+00	2.472243e-01
2.330000e-06	6.708465e-07	2.561023e-12	4.479886e+00	2.343118e-01
2.340000e-06	6.271404e-07	1.427136e-11	4.188018e+00	2.213155e-01
2.350000e-06	5.832801e-07	1.061229e-11	3.895121e+00	2.082400e-01
2.360000e-06	5.391969e-07	2.646756e-12	3.600735e+00	1.950900e-01
2.370000e-06	4.949209e-07	9.195489e-13	3.305062e+00	1.818703e-01
2.380000e-06	4.504250e-07	6.727244e-12	3.007920e+00	1.685856e-01
2.390000e-06	4.057106e-07	1.200852e-11	2.709319e+00	1.552406e-01
2.400000e-06	3.608113e-07	5.412054e-12	2.409483e+00	1.418402e-01
2.410000e-06	3.157215e-07	3.389968e-12	2.108375e+00	1.283891e-01
2.420000e-06	2.704391e-07	9.371741e-12	1.805981e+00	1.148921e-01
2.430000e-06	2.250400e-07	1.523013e-11	1.502808e+00	1.013542e-01
2.440000e-06	1.795588e-07	1.449034e-11	1.199087e+00	8.778019e-02
2.450000e-06	1.339829e-07	6.056207e-12	8.947321e-01	7.417490e-02
2.460000e-06	8.836887e-08	5.417638e-12	5.901237e-01	6.054323e-02
2.470000e-06	4.269237e-08	1.267071e-11	2.850979e-01	4.689007e-02
2.480000e-06	-2.998175e-09	1.766826e-11	-2.002169e-02	3.322032e-02
2.490000e-06	-4.859801e-08	1.252122e-11	-3.245356e-01	1.953890e-02
2.500000e-06	-9.408982e-08	7.139944e-12	-6.283280e-01	5.850696e-03
2.510000e-06	-1.395514e-07	1.029698e-11	-9.319184e-01	-7.839368e-03
2.520000e-06	-1.850004e-07	1.724453e-11	-1.235425e+00	-2.152638e-02
2.530000e-06	-2.303601e-07	1.637050e-11	-1.538335e+00	-3.520544e-02
2.540000e-06	-2.756643e-07	8.822664e-12	-1.840875e+00	-4.887163e-02
2.550000e-06	-3.208635e-07	7.401774e-12	-2.142714e+00	-6.252004e-02
2.560000e-06	-3.658817e-07	1.279286e-11	-2.443343e+00	-7.614579e-02
2.570000e-06	-4.107175e-07	1.723755e-11	-2.742754e+00	-8.974399e-02
2.580000e-06	-4.553256e-07	1.174017e-11	-3.040646e+00	-1.033097e-01
2.590000e-06	-4.997073e-07	3.596771e-12	-3.337025e+00	-1.168382e-01
2.600000e-06	-5.438623e-07	2.595635e-12	-3.631890e+00	-1.303245e-01
2.610000e-06	-5.878005e-07	8.599653e-12	-3.925308e+00	-1.437638e-01
2.620000e-06	-6.315665e-07	1.139033e-11	-4.217575e+00	-1.571513e-01
2.630000e-06	-6.751887e-07	7.423300e-12	-4.508883e+00	-1.704822e-01
2.640000e-06	-7.186964e-07	5.298040e-12	-4.799426e+00	-1.837516e-01
2.650000e-06	-7.621319e-07	8.575150e-12	-5.089486e+00	-1.969549e-01
2.660000e-06	-8.054190e-07	1.145894e-11	-5.378555e+00	-2.100873e-01
2.670000e-06	-8.484589e-07	5.456920e-12	-5.665974e+00	-2.231441e-01
2.680000e-06	-8.911855e-07	-4.675841e-12	-5.951300e+00	-2.361206e-01
2.690000e-06	-9.335443e-07	-8.588688e-12	-6.234171e+00	-2.490122e-01
2.700000e-06	-9.755502e-07	-4.488114e-12	-6.514685e+00	-2.618141e-01
2.710000e-06	-1.017258e-06	-2.945818e-12	-6.793208e+00	-2.745219e-01
2.720000e-06	-1.058629e-06	-6.809641e-12	-7.069479e+00	-2.871310e-01
2.730000e-06	-1.099590e-06	-7.777714e-12	-7.343018e+00	-2.996368e-01
2.740000e-06	-1.140146e-06	-3.529138e-12	-7.613850e+00	-3.120349e-01
2.750000e-06	-1.180347e-06	8.735940e-13	-7.882312e+00	-3.243208e-01
2.760000e-06	-1.220234e-06	-2.131689e-12	-8.148675e+00	-3.364900e-01
2.770000e-06	-1.259801e-06	-7.682488e-12	-8.412902e+00	-3.485384e-01
2.780000e-06	-1.299044e-06	-9.741903e-12	-8.674961e+00	-3.604614e-01
2.790000e-06	-1.337850e-06	-9.300658e-12	-8.934110e+00	-3.722549e-01
2.800000e-06	-1.376054e-06	-1.116247e-11	-9.189235e+00	-3.839145e-01
2.810000e-06	-1.413541e-06	-1.585372e-11	-9.439569e+00	-3.954362e-01
2.820000e-06	-1.450246e-06	-1.628779e-11	-9.684684e+00	-4.068158e-01
2.830000e-06	-1.486274e-06	-1.145965e-11	-9.925278e+00	-4.180492e-01
2.840000e-06	-1.521875e-06	-7.988848e-12	-1.016302e+01	-4.291324e-01
2.850000e-06	-1.557085e-06	-1.138230e-11	-1.039815e+01	-4.400613e-01
2.860000e-06	-1.591786e-06	-1.829613e-11	-1.062988e+01	-4.508322e-01
2.870000e-06	-1.625942e-06	-2.195638e-11	-1.085798e+01	-4.614410e-01
2.880000e-06	-1.659572e-06	-2.125211e-11	-1.108256e+01	-4.718841e-01
2.890000e-06	-1.692644e-06	-2.144526e-11	-1.130341e+01	-4.821576e-01
2.900000e-06	-1.725095e-06	-2.379523e-11	-1.152011e+01	-4.922579e-01
2.910000e-06	-1.757012e-06	-2.365110e-11	-1.173326e+01	-5.021813e-01
2.920000e-06	-1.788493e-06	-1.812936e-11	-1.194348e+01	-5.119243e-01
2.930000e-06	-1.819365e-06	-1.172353e-11	-1.214965e+01	-5.214834e-01
2.940000e-06	-1.849332e-06	-1.175939e-11	-1.234976e+01	-5.308552e-01
