# Temperatura_=_20.0
# Concentracion g/m^3_=_10000.0
# C_Vs_to_Am_M_A/Vsm_=_65563218390.804596
# pendiente_HvsI_1/m_=_3716.3
# ordenada_HvsI_A/m_=_1297.0
# frecuencia_Hz_=_301418.0062546015

Tiempo_(s)	Campo_(V.s)	Magnetizacion_(V.s)	Campo_(kA/m)	Magnetizacion_(A/m)
0.000000e+00	-2.414787e-06	-5.271815e-09	-1.613503e+01	-3.486403e+02
1.000000e-08	-2.414577e-06	-5.278765e-09	-1.613362e+01	-3.500240e+02
2.000000e-08	-2.413770e-06	-5.286210e-09	-1.612823e+01	-3.512820e+02
3.000000e-08	-2.411991e-06	-5.287774e-09	-1.611634e+01	-3.524141e+02
4.000000e-08	-2.409056e-06	-5.286119e-09	-1.609673e+01	-3.534198e+02
5.000000e-08	-2.405230e-06	-5.284933e-09	-1.607117e+01	-3.542987e+02
6.000000e-08	-2.400795e-06	-5.282914e-09	-1.604153e+01	-3.550505e+02
7.000000e-08	-2.395671e-06	-5.275620e-09	-1.600730e+01	-3.556750e+02
8.000000e-08	-2.389617e-06	-5.282080e-09	-1.596685e+01	-3.561719e+02
9.000000e-08	-2.382513e-06	-5.314697e-09	-1.591938e+01	-3.565410e+02
1.000000e-07	-2.374533e-06	-5.295692e-09	-1.586606e+01	-3.567823e+02
1.100000e-07	-2.365987e-06	-5.209211e-09	-1.580896e+01	-3.568955e+02
1.200000e-07	-2.356813e-06	-5.198267e-09	-1.574766e+01	-3.568808e+02
1.300000e-07	-2.346546e-06	-5.271395e-09	-1.567906e+01	-3.567381e+02
1.400000e-07	-2.335034e-06	-5.273330e-09	-1.560214e+01	-3.564673e+02
1.500000e-07	-2.322665e-06	-5.174769e-09	-1.551949e+01	-3.560688e+02
1.600000e-07	-2.309575e-06	-5.191722e-09	-1.543203e+01	-3.555425e+02
1.700000e-07	-2.295401e-06	-5.236742e-09	-1.533732e+01	-3.548886e+02
1.800000e-07	-2.280133e-06	-5.171248e-09	-1.523530e+01	-3.541075e+02
1.900000e-07	-2.264139e-06	-5.146514e-09	-1.512844e+01	-3.531994e+02
2.000000e-07	-2.247209e-06	-5.186345e-09	-1.501531e+01	-3.521645e+02
2.100000e-07	-2.229214e-06	-5.118494e-09	-1.489507e+01	-3.510034e+02
2.200000e-07	-2.210572e-06	-5.033070e-09	-1.477051e+01	-3.497163e+02
2.300000e-07	-2.191328e-06	-5.115945e-09	-1.464193e+01	-3.483038e+02
2.400000e-07	-2.171314e-06	-5.102219e-09	-1.450820e+01	-3.467663e+02
2.500000e-07	-2.150577e-06	-4.970671e-09	-1.436964e+01	-3.451045e+02
2.600000e-07	-2.129225e-06	-4.959717e-09	-1.422697e+01	-3.433189e+02
2.700000e-07	-2.107224e-06	-4.994005e-09	-1.407996e+01	-3.414101e+02
2.800000e-07	-2.084427e-06	-4.939672e-09	-1.392764e+01	-3.393788e+02
2.900000e-07	-2.060809e-06	-4.905178e-09	-1.376983e+01	-3.372258e+02
3.000000e-07	-2.036602e-06	-4.867905e-09	-1.360809e+01	-3.349519e+02
3.100000e-07	-2.011901e-06	-4.812551e-09	-1.344304e+01	-3.325577e+02
3.200000e-07	-1.986421e-06	-4.819190e-09	-1.327279e+01	-3.300443e+02
3.300000e-07	-1.959865e-06	-4.794442e-09	-1.309535e+01	-3.274125e+02
3.400000e-07	-1.932275e-06	-4.696829e-09	-1.291100e+01	-3.246633e+02
3.500000e-07	-1.904065e-06	-4.659650e-09	-1.272250e+01	-3.217976e+02
3.600000e-07	-1.875415e-06	-4.655308e-09	-1.253108e+01	-3.188164e+02
3.700000e-07	-1.846183e-06	-4.603429e-09	-1.233575e+01	-3.157209e+02
3.800000e-07	-1.816257e-06	-4.584037e-09	-1.213579e+01	-3.125121e+02
3.900000e-07	-1.785634e-06	-4.526142e-09	-1.193118e+01	-3.091912e+02
4.000000e-07	-1.754382e-06	-4.443586e-09	-1.172236e+01	-3.057594e+02
4.100000e-07	-1.722636e-06	-4.437514e-09	-1.151024e+01	-3.022179e+02
4.200000e-07	-1.690534e-06	-4.422013e-09	-1.129574e+01	-2.985680e+02
4.300000e-07	-1.657976e-06	-4.317356e-09	-1.107820e+01	-2.948109e+02
4.400000e-07	-1.624713e-06	-4.249849e-09	-1.085594e+01	-2.909481e+02
4.500000e-07	-1.590568e-06	-4.241537e-09	-1.062779e+01	-2.869810e+02
4.600000e-07	-1.555501e-06	-4.197460e-09	-1.039348e+01	-2.829109e+02
4.700000e-07	-1.519759e-06	-4.138688e-09	-1.015467e+01	-2.787392e+02
4.800000e-07	-1.483666e-06	-4.069000e-09	-9.913501e+00	-2.744676e+02
4.900000e-07	-1.447252e-06	-4.004439e-09	-9.670190e+00	-2.700975e+02
5.000000e-07	-1.410339e-06	-3.966367e-09	-9.423550e+00	-2.656305e+02
5.100000e-07	-1.372812e-06	-3.927300e-09	-9.172802e+00	-2.610682e+02
5.200000e-07	-1.334797e-06	-3.849735e-09	-8.918795e+00	-2.564123e+02
5.300000e-07	-1.296387e-06	-3.773889e-09	-8.662145e+00	-2.516643e+02
5.400000e-07	-1.257544e-06	-3.722208e-09	-8.402607e+00	-2.468261e+02
5.500000e-07	-1.218185e-06	-3.675335e-09	-8.139617e+00	-2.418993e+02
5.600000e-07	-1.178369e-06	-3.619179e-09	-7.873582e+00	-2.368857e+02
5.700000e-07	-1.138305e-06	-3.534860e-09	-7.605880e+00	-2.317871e+02
5.800000e-07	-1.098066e-06	-3.457391e-09	-7.337016e+00	-2.266054e+02
5.900000e-07	-1.057576e-06	-3.409717e-09	-7.066470e+00	-2.213423e+02
6.000000e-07	-1.016696e-06	-3.360187e-09	-6.793319e+00	-2.159998e+02
6.100000e-07	-9.753131e-07	-3.275329e-09	-6.516808e+00	-2.105798e+02
6.200000e-07	-9.332845e-07	-3.187837e-09	-6.235983e+00	-2.050843e+02
6.300000e-07	-8.906426e-07	-3.121655e-09	-5.951060e+00	-1.995152e+02
6.400000e-07	-8.475651e-07	-3.063322e-09	-5.663227e+00	-1.938744e+02
6.500000e-07	-8.040809e-07	-2.996925e-09	-5.372676e+00	-1.881641e+02
6.600000e-07	-7.602673e-07	-2.911481e-09	-5.079924e+00	-1.823863e+02
6.700000e-07	-7.162662e-07	-2.826381e-09	-4.785919e+00	-1.765430e+02
6.800000e-07	-6.721124e-07	-2.756900e-09	-4.490894e+00	-1.706364e+02
6.900000e-07	-6.278337e-07	-2.691683e-09	-4.195034e+00	-1.646685e+02
7.000000e-07	-5.834598e-07	-2.606042e-09	-3.898539e+00	-1.586415e+02
7.100000e-07	-5.389234e-07	-2.510635e-09	-3.600957e+00	-1.525576e+02
7.200000e-07	-4.941777e-07	-2.427348e-09	-3.301977e+00	-1.464189e+02
7.300000e-07	-4.492329e-07	-2.357560e-09	-3.001667e+00	-1.402277e+02
7.400000e-07	-4.040742e-07	-2.281686e-09	-2.699927e+00	-1.339861e+02
7.500000e-07	-3.587516e-07	-2.187131e-09	-2.397092e+00	-1.276964e+02
7.600000e-07	-3.133058e-07	-2.091509e-09	-2.093434e+00	-1.213609e+02
7.700000e-07	-2.677179e-07	-2.007765e-09	-1.788827e+00	-1.149818e+02
7.800000e-07	-2.220363e-07	-1.928426e-09	-1.483593e+00	-1.085614e+02
7.900000e-07	-1.762853e-07	-1.835723e-09	-1.177896e+00	-1.021021e+02
8.000000e-07	-1.305129e-07	-1.734393e-09	-8.720562e-01	-9.560606e+01
8.100000e-07	-8.474820e-08	-1.637935e-09	-5.662672e-01	-8.907571e+01
8.200000e-07	-3.889085e-08	-1.551535e-09	-2.598593e-01	-8.251336e+01
8.300000e-07	7.044967e-09	-1.463262e-09	4.707278e-02	-7.592136e+01
8.400000e-07	5.293695e-08	-1.358934e-09	3.537120e-01	-6.930209e+01
8.500000e-07	9.872020e-08	-1.248897e-09	6.596247e-01	-6.265791e+01
8.600000e-07	1.444486e-07	-1.149391e-09	9.651712e-01	-5.599121e+01
8.700000e-07	1.902102e-07	-1.058354e-09	1.270939e+00	-4.930438e+01
8.800000e-07	2.359718e-07	-9.575148e-10	1.576707e+00	-4.259981e+01
8.900000e-07	2.816270e-07	-8.458397e-10	1.881764e+00	-3.587991e+01
9.000000e-07	3.270864e-07	-7.369859e-10	2.185513e+00	-2.914709e+01
9.100000e-07	3.723678e-07	-6.369326e-10	2.488072e+00	-2.240376e+01
9.200000e-07	4.175115e-07	-5.344531e-10	2.789712e+00	-1.565235e+01
9.300000e-07	4.624978e-07	-4.197613e-10	3.090300e+00	-8.895263e+00
9.400000e-07	5.072850e-07	-3.003202e-10	3.389557e+00	-2.134933e+00
9.500000e-07	5.518290e-07	-1.877937e-10	3.687189e+00	4.626218e+00
9.600000e-07	5.962029e-07	-8.286919e-11	3.983685e+00	1.138577e+01
9.700000e-07	6.404877e-07	2.870576e-11	4.279585e+00	1.814129e+01
9.800000e-07	6.847008e-07	1.502622e-10	4.575007e+00	2.489036e+01
9.900000e-07	7.288377e-07	2.707848e-10	4.869919e+00	3.163057e+01
1.000000e-06	7.728557e-07	3.823656e-10	5.164036e+00	3.835949e+01
1.010000e-06	8.166426e-07	4.922406e-10	5.456610e+00	4.507471e+01
1.020000e-06	8.600860e-07	6.124086e-10	5.746888e+00	5.177382e+01
1.030000e-06	9.030751e-07	7.397699e-10	6.034131e+00	5.845442e+01
1.040000e-06	9.454317e-07	8.606039e-10	6.317148e+00	6.511413e+01
1.050000e-06	9.871076e-07	9.733998e-10	6.595616e+00	7.175053e+01
1.060000e-06	1.028209e-06	1.091722e-09	6.870246e+00	7.836127e+01
1.070000e-06	1.068880e-06	1.217508e-09	7.141999e+00	8.494397e+01
1.080000e-06	1.109251e-06	1.342084e-09	7.411749e+00	9.149626e+01
1.090000e-06	1.149373e-06	1.457443e-09	7.679833e+00	9.801581e+01
1.100000e-06	1.189277e-06	1.569156e-09	7.946467e+00	1.045003e+02
1.110000e-06	1.228866e-06	1.689195e-09	8.210987e+00	1.109473e+02
1.120000e-06	1.268024e-06	1.816491e-09	8.472632e+00	1.173546e+02
1.130000e-06	1.306719e-06	1.940354e-09	8.731180e+00	1.237199e+02
1.140000e-06	1.344914e-06	2.056299e-09	8.986390e+00	1.300409e+02
1.150000e-06	1.382620e-06	2.170429e-09	9.238333e+00	1.363153e+02
1.160000e-06	1.419848e-06	2.288038e-09	9.487082e+00	1.425409e+02
1.170000e-06	1.456632e-06	2.405754e-09	9.732868e+00	1.487154e+02
1.180000e-06	1.493038e-06	2.516832e-09	9.976121e+00	1.548367e+02
1.190000e-06	1.529103e-06	2.624254e-09	1.021710e+01	1.609025e+02
1.200000e-06	1.564725e-06	2.735084e-09	1.045512e+01	1.669107e+02
1.210000e-06	1.599668e-06	2.850149e-09	1.068860e+01	1.728590e+02
1.220000e-06	1.633757e-06	2.962010e-09	1.091638e+01	1.787455e+02
1.230000e-06	1.666919e-06	3.066597e-09	1.113795e+01	1.845679e+02
1.240000e-06	1.699379e-06	3.168118e-09	1.135485e+01	1.903242e+02
1.250000e-06	1.731430e-06	3.269827e-09	1.156900e+01	1.960123e+02
1.260000e-06	1.763001e-06	3.370907e-09	1.177995e+01	2.016302e+02
1.270000e-06	1.793982e-06	3.465549e-09	1.198696e+01	2.071758e+02
1.280000e-06	1.824356e-06	3.554039e-09	1.218991e+01	2.126472e+02
1.290000e-06	1.854095e-06	3.643386e-09	1.238862e+01	2.180424e+02
1.300000e-06	1.883187e-06	3.734487e-09	1.258300e+01	2.233595e+02
1.310000e-06	1.911733e-06	3.823215e-09	1.277374e+01	2.285966e+02
1.320000e-06	1.939823e-06	3.906631e-09	1.296143e+01	2.337517e+02
1.330000e-06	1.967326e-06	3.985921e-09	1.314520e+01	2.388231e+02
1.340000e-06	1.993971e-06	4.062743e-09	1.332324e+01	2.438089e+02
1.350000e-06	2.019505e-06	4.137382e-09	1.349385e+01	2.487074e+02
1.360000e-06	2.044104e-06	4.206678e-09	1.365821e+01	2.535167e+02
1.370000e-06	2.068092e-06	4.270792e-09	1.381849e+01	2.582352e+02
1.380000e-06	2.091404e-06	4.334212e-09	1.397426e+01	2.628611e+02
1.390000e-06	2.113969e-06	4.399607e-09	1.412504e+01	2.673929e+02
1.400000e-06	2.135802e-06	4.464291e-09	1.427092e+01	2.718288e+02
1.410000e-06	2.156915e-06	4.523926e-09	1.441199e+01	2.761673e+02
1.420000e-06	2.177405e-06	4.579633e-09	1.454890e+01	2.804069e+02
1.430000e-06	2.197308e-06	4.634210e-09	1.468188e+01	2.845459e+02
1.440000e-06	2.216517e-06	4.687683e-09	1.481023e+01	2.885830e+02
1.450000e-06	2.234891e-06	4.735593e-09	1.493301e+01	2.925167e+02
1.460000e-06	2.252386e-06	4.777040e-09	1.504990e+01	2.963455e+02
1.470000e-06	2.269114e-06	4.816346e-09	1.516167e+01	3.000682e+02
1.480000e-06	2.284982e-06	4.857971e-09	1.526770e+01	3.036833e+02
1.490000e-06	2.299891e-06	4.900491e-09	1.536732e+01	3.071896e+02
1.500000e-06	2.313959e-06	4.939656e-09	1.546132e+01	3.105858e+02
1.510000e-06	2.327222e-06	4.975349e-09	1.554994e+01	3.138707e+02
1.520000e-06	2.339661e-06	5.008849e-09	1.563306e+01	3.170431e+02
1.530000e-06	2.351161e-06	5.041886e-09	1.570990e+01	3.201018e+02
1.540000e-06	2.361556e-06	5.071929e-09	1.577935e+01	3.230459e+02
1.550000e-06	2.370844e-06	5.095982e-09	1.584141e+01	3.258742e+02
1.560000e-06	2.379237e-06	5.117648e-09	1.589749e+01	3.285857e+02
1.570000e-06	2.386911e-06	5.141578e-09	1.594877e+01	3.311794e+02
1.580000e-06	2.393824e-06	5.165506e-09	1.599496e+01	3.336545e+02
1.590000e-06	2.399867e-06	5.185483e-09	1.603533e+01	3.360100e+02
1.600000e-06	2.405059e-06	5.202647e-09	1.607003e+01	3.382450e+02
1.610000e-06	2.409535e-06	5.218893e-09	1.609994e+01	3.403588e+02
1.620000e-06	2.413376e-06	5.234788e-09	1.612560e+01	3.423507e+02
1.630000e-06	2.416347e-06	5.249382e-09	1.614545e+01	3.442199e+02
1.640000e-06	2.418124e-06	5.259779e-09	1.615732e+01	3.459657e+02
1.650000e-06	2.418854e-06	5.266952e-09	1.616220e+01	3.475875e+02
1.660000e-06	2.418837e-06	5.274406e-09	1.616209e+01	3.490847e+02
1.670000e-06	2.418083e-06	5.281659e-09	1.615705e+01	3.504568e+02
1.680000e-06	2.416581e-06	5.285318e-09	1.614701e+01	3.517034e+02
1.690000e-06	2.414349e-06	5.285865e-09	1.613210e+01	3.528239e+02
1.700000e-06	2.411345e-06	5.285367e-09	1.611203e+01	3.538179e+02
1.710000e-06	2.407655e-06	5.286938e-09	1.608737e+01	3.546851e+02
1.720000e-06	2.403377e-06	5.294341e-09	1.605879e+01	3.554252e+02
1.730000e-06	2.398287e-06	5.295731e-09	1.602478e+01	3.560380e+02
1.740000e-06	2.392000e-06	5.256326e-09	1.598277e+01	3.565231e+02
1.750000e-06	2.384377e-06	5.219514e-09	1.593183e+01	3.568805e+02
1.760000e-06	2.375559e-06	5.272803e-09	1.587291e+01	3.571100e+02
1.770000e-06	2.366096e-06	5.316273e-09	1.580969e+01	3.572115e+02
1.780000e-06	2.356497e-06	5.239314e-09	1.574555e+01	3.571850e+02
1.790000e-06	2.346344e-06	5.170672e-09	1.567771e+01	3.570304e+02
1.800000e-06	2.334871e-06	5.214011e-09	1.560105e+01	3.567479e+02
1.810000e-06	2.322373e-06	5.239033e-09	1.551754e+01	3.563376e+02
1.820000e-06	2.309489e-06	5.163242e-09	1.543145e+01	3.557996e+02
1.830000e-06	2.295539e-06	5.158144e-09	1.533824e+01	3.551340e+02
1.840000e-06	2.280103e-06	5.208067e-09	1.523510e+01	3.543412e+02
1.850000e-06	2.263967e-06	5.127063e-09	1.512728e+01	3.534214e+02
1.860000e-06	2.247394e-06	5.093354e-09	1.501655e+01	3.523749e+02
1.870000e-06	2.229848e-06	5.181624e-09	1.489931e+01	3.512022e+02
1.880000e-06	2.211259e-06	5.105346e-09	1.477511e+01	3.499036e+02
1.890000e-06	2.192053e-06	4.971898e-09	1.464677e+01	3.484796e+02
1.900000e-06	2.172269e-06	5.049359e-09	1.451458e+01	3.469307e+02
1.910000e-06	2.151717e-06	5.088741e-09	1.437726e+01	3.452575e+02
1.920000e-06	2.130274e-06	4.957041e-09	1.423398e+01	3.434606e+02
1.930000e-06	2.107836e-06	4.921443e-09	1.408406e+01	3.415406e+02
1.940000e-06	2.084554e-06	4.944105e-09	1.392849e+01	3.394982e+02
1.950000e-06	2.060643e-06	4.882055e-09	1.376872e+01	3.373341e+02
1.960000e-06	2.035969e-06	4.870577e-09	1.360385e+01	3.350492e+02
1.970000e-06	2.010607e-06	4.838257e-09	1.343439e+01	3.326442e+02
1.980000e-06	1.984689e-06	4.741621e-09	1.326121e+01	3.301200e+02
1.990000e-06	1.957985e-06	4.760589e-09	1.308279e+01	3.274774e+02
2.000000e-06	1.930598e-06	4.758484e-09	1.289979e+01	3.247176e+02
2.010000e-06	1.902771e-06	4.655881e-09	1.271386e+01	3.218414e+02
2.020000e-06	1.874182e-06	4.627137e-09	1.252283e+01	3.188499e+02
2.030000e-06	1.844545e-06	4.595458e-09	1.232481e+01	3.157441e+02
2.040000e-06	1.814112e-06	4.518179e-09	1.212146e+01	3.125252e+02
2.050000e-06	1.783050e-06	4.534326e-09	1.191391e+01	3.091943e+02
2.060000e-06	1.751412e-06	4.497153e-09	1.170251e+01	3.057526e+02
2.070000e-06	1.719263e-06	4.373857e-09	1.148770e+01	3.022013e+02
2.080000e-06	1.686497e-06	4.373720e-09	1.126877e+01	2.985418e+02
2.090000e-06	1.653134e-06	4.373074e-09	1.104584e+01	2.947753e+02
2.100000e-06	1.619268e-06	4.276096e-09	1.081956e+01	2.909032e+02
2.110000e-06	1.584829e-06	4.207709e-09	1.058945e+01	2.869269e+02
2.120000e-06	1.549848e-06	4.164286e-09	1.035572e+01	2.828477e+02
2.130000e-06	1.514450e-06	4.120300e-09	1.011919e+01	2.786672e+02
2.140000e-06	1.478710e-06	4.086810e-09	9.880388e+00	2.743869e+02
2.150000e-06	1.442603e-06	4.019103e-09	9.639129e+00	2.700083e+02
2.160000e-06	1.405834e-06	3.943212e-09	9.393445e+00	2.655330e+02
2.170000e-06	1.368130e-06	3.902098e-09	9.141520e+00	2.609625e+02
2.180000e-06	1.329606e-06	3.852192e-09	8.884106e+00	2.562985e+02
2.190000e-06	1.290505e-06	3.789513e-09	8.622848e+00	2.515428e+02
2.200000e-06	1.251040e-06	3.716296e-09	8.359147e+00	2.466969e+02
2.210000e-06	1.211315e-06	3.639645e-09	8.093719e+00	2.417626e+02
2.220000e-06	1.171279e-06	3.589323e-09	7.826204e+00	2.367418e+02
2.230000e-06	1.130882e-06	3.549965e-09	7.556281e+00	2.316361e+02
2.240000e-06	1.090051e-06	3.478932e-09	7.283461e+00	2.264475e+02
2.250000e-06	1.048782e-06	3.391003e-09	7.007707e+00	2.211778e+02
2.260000e-06	1.007200e-06	3.331222e-09	6.729871e+00	2.158288e+02
2.270000e-06	9.653450e-07	3.279568e-09	6.450204e+00	2.104026e+02
2.280000e-06	9.230947e-07	3.207378e-09	6.167897e+00	2.049010e+02
2.290000e-06	8.804578e-07	3.122186e-09	5.883008e+00	1.993260e+02
2.300000e-06	8.375262e-07	3.042790e-09	5.596149e+00	1.936797e+02
2.310000e-06	7.942992e-07	2.976657e-09	5.307317e+00	1.879639e+02
2.320000e-06	7.508594e-07	2.917146e-09	5.017062e+00	1.821809e+02
2.330000e-06	7.073085e-07	2.840301e-09	4.726066e+00	1.763327e+02
2.340000e-06	6.636635e-07	2.750647e-09	4.434441e+00	1.704213e+02
2.350000e-06	6.199011e-07	2.673479e-09	4.142031e+00	1.644489e+02
2.360000e-06	5.759997e-07	2.605056e-09	3.848692e+00	1.584177e+02
2.370000e-06	5.318626e-07	2.530759e-09	3.553778e+00	1.523297e+02
2.380000e-06	4.875846e-07	2.438993e-09	3.257923e+00	1.461872e+02
2.390000e-06	4.432006e-07	2.344472e-09	2.961360e+00	1.399924e+02
2.400000e-06	3.985212e-07	2.264949e-09	2.662823e+00	1.337475e+02
2.410000e-06	3.535847e-07	2.189827e-09	2.362568e+00	1.274548e+02
2.420000e-06	3.084653e-07	2.101998e-09	2.061091e+00	1.211164e+02
2.430000e-06	2.632394e-07	2.005575e-09	1.758902e+00	1.147347e+02
2.440000e-06	2.180109e-07	1.913980e-09	1.456697e+00	1.083120e+02
2.450000e-06	1.727255e-07	1.831144e-09	1.154110e+00	1.018505e+02
2.460000e-06	1.272625e-07	1.745966e-09	8.503376e-01	9.535265e+01
2.470000e-06	8.168415e-08	1.647345e-09	5.457939e-01	8.882069e+01
2.480000e-06	3.611381e-08	1.543760e-09	2.413038e-01	8.225698e+01
2.490000e-06	-9.443978e-09	1.446888e-09	-6.310240e-02	7.566388e+01
2.500000e-06	-5.499079e-08	1.355475e-09	-3.674353e-01	6.904376e+01
2.510000e-06	-1.005027e-07	1.257681e-09	-6.715350e-01	6.239899e+01
2.520000e-06	-1.459530e-07	1.152912e-09	-9.752229e-01	5.573195e+01
2.530000e-06	-1.913209e-07	1.051448e-09	-1.278360e+00	4.904503e+01
2.540000e-06	-2.366207e-07	9.552976e-10	-1.581043e+00	4.234064e+01
2.550000e-06	-2.818283e-07	8.547927e-10	-1.883109e+00	3.562117e+01
2.560000e-06	-3.268324e-07	7.435850e-10	-2.183816e+00	2.888904e+01
2.570000e-06	-3.716332e-07	6.299303e-10	-2.483164e+00	2.214666e+01
2.580000e-06	-4.162927e-07	5.220277e-10	-2.781568e+00	1.539645e+01
2.590000e-06	-4.607789e-07	4.182820e-10	-3.078814e+00	8.640836e+00
2.600000e-06	-5.050507e-07	3.082838e-10	-3.374628e+00	1.882233e+00
2.610000e-06	-5.491190e-07	1.898331e-10	-3.669081e+00	-4.876931e+00
2.620000e-06	-5.929895e-07	7.261241e-11	-3.962214e+00	-1.163423e+01
2.630000e-06	-6.366814e-07	-3.720171e-11	-4.254152e+00	-1.838725e+01
2.640000e-06	-6.802891e-07	-1.469144e-10	-4.545529e+00	-2.513355e+01
2.650000e-06	-7.238529e-07	-2.662088e-10	-4.836611e+00	-3.187073e+01
2.660000e-06	-7.673439e-07	-3.889285e-10	-5.127208e+00	-3.859637e+01
2.670000e-06	-8.106849e-07	-5.064366e-10	-5.416802e+00	-4.530805e+01
2.680000e-06	-8.537042e-07	-6.199145e-10	-5.704247e+00	-5.200336e+01
2.690000e-06	-8.963645e-07	-7.395398e-10	-5.989293e+00	-5.867991e+01
2.700000e-06	-9.386708e-07	-8.668319e-10	-6.271973e+00	-6.533530e+01
2.710000e-06	-9.805622e-07	-9.901569e-10	-6.551882e+00	-7.196714e+01
2.720000e-06	-1.022190e-06	-1.105098e-09	-6.830027e+00	-7.857305e+01
2.730000e-06	-1.063566e-06	-1.218783e-09	-7.106494e+00	-8.515067e+01
2.740000e-06	-1.104542e-06	-1.336934e-09	-7.380284e+00	-9.169764e+01
2.750000e-06	-1.145071e-06	-1.457481e-09	-7.651088e+00	-9.821160e+01
2.760000e-06	-1.185182e-06	-1.576475e-09	-7.919103e+00	-1.046902e+02
2.770000e-06	-1.224986e-06	-1.692353e-09	-8.185060e+00	-1.111312e+02
2.780000e-06	-1.264534e-06	-1.811034e-09	-8.449313e+00	-1.175322e+02
2.790000e-06	-1.303790e-06	-1.934637e-09	-8.711614e+00	-1.238909e+02
2.800000e-06	-1.342597e-06	-2.056284e-09	-8.970914e+00	-1.302051e+02
2.810000e-06	-1.380687e-06	-2.170692e-09	-9.225418e+00	-1.364724e+02
2.820000e-06	-1.417954e-06	-2.281508e-09	-9.474430e+00	-1.426907e+02
2.830000e-06	-1.454484e-06	-2.394670e-09	-9.718510e+00	-1.488577e+02
2.840000e-06	-1.490444e-06	-2.508540e-09	-9.958792e+00	-1.549712e+02
2.850000e-06	-1.526052e-06	-2.618737e-09	-1.019672e+01	-1.610290e+02
2.860000e-06	-1.561301e-06	-2.725958e-09	-1.043224e+01	-1.670290e+02
2.870000e-06	-1.596046e-06	-2.834557e-09	-1.066440e+01	-1.729689e+02
2.880000e-06	-1.630181e-06	-2.944958e-09	-1.089248e+01	-1.788466e+02
2.890000e-06	-1.663736e-06	-3.052857e-09	-1.111669e+01	-1.846601e+02
2.900000e-06	-1.696731e-06	-3.152903e-09	-1.133715e+01	-1.904073e+02
2.910000e-06	-1.729109e-06	-3.248144e-09	-1.155349e+01	-1.960860e+02
2.920000e-06	-1.760946e-06	-3.344495e-09	-1.176622e+01	-2.016943e+02
2.930000e-06	-1.792333e-06	-3.440405e-09	-1.197594e+01	-2.072302e+02
2.940000e-06	-1.823098e-06	-3.531130e-09	-1.218150e+01	-2.126916e+02
