# Temperatura_=_20.0
# Concentracion g/m^3_=_10000.0
# C_Vs_to_Am_M_A/Vsm_=_65563218390.804596
# pendiente_HvsI_1/m_=_3716.3
# ordenada_HvsI_A/m_=_1297.0
# frecuencia_Hz_=_302310.82924927043

Tiempo_(s)	Campo_(V.s)	Magnetizacion_(V.s)	Campo_(kA/m)	Magnetizacion_(A/m)
0.000000e+00	-1.041077e-06	-4.041427e-11	-6.866572e+00	-2.185470e+00
1.000000e-08	-1.040886e-06	-4.439434e-11	-6.865313e+00	-2.183790e+00
2.000000e-08	-1.040472e-06	-4.046232e-11	-6.862586e+00	-2.181112e+00
3.000000e-08	-1.039841e-06	-3.603852e-11	-6.858424e+00	-2.177456e+00
4.000000e-08	-1.038930e-06	-3.477518e-11	-6.852416e+00	-2.172843e+00
5.000000e-08	-1.037684e-06	-1.978140e-11	-6.844194e+00	-2.167293e+00
6.000000e-08	-1.036066e-06	3.075714e-12	-6.833523e+00	-2.160829e+00
7.000000e-08	-1.034015e-06	1.082308e-11	-6.819996e+00	-2.153474e+00
8.000000e-08	-1.031382e-06	-9.657650e-12	-6.802627e+00	-2.145252e+00
9.000000e-08	-1.028096e-06	-4.541499e-11	-6.780954e+00	-2.136186e+00
1.000000e-07	-1.024278e-06	-6.682955e-11	-6.755774e+00	-2.126303e+00
1.100000e-07	-1.020053e-06	-6.832288e-11	-6.727910e+00	-2.115626e+00
1.200000e-07	-1.015539e-06	-4.520492e-11	-6.698137e+00	-2.104183e+00
1.300000e-07	-1.010815e-06	-2.775587e-11	-6.666978e+00	-2.091997e+00
1.400000e-07	-1.005890e-06	-3.095951e-11	-6.634495e+00	-2.079097e+00
1.500000e-07	-1.000679e-06	-2.454794e-11	-6.600122e+00	-2.065507e+00
1.600000e-07	-9.950430e-07	-5.224502e-12	-6.562951e+00	-2.051255e+00
1.700000e-07	-9.890339e-07	-8.134137e-12	-6.523317e+00	-2.036367e+00
1.800000e-07	-9.827002e-07	-2.963511e-11	-6.481542e+00	-2.020868e+00
1.900000e-07	-9.760664e-07	-3.885561e-11	-6.437788e+00	-2.004785e+00
2.000000e-07	-9.691369e-07	-3.711192e-11	-6.392084e+00	-1.988143e+00
2.100000e-07	-9.618277e-07	-3.476414e-11	-6.343875e+00	-1.970968e+00
2.200000e-07	-9.541513e-07	-2.506880e-11	-6.293244e+00	-1.953285e+00
2.300000e-07	-9.461635e-07	-1.606474e-11	-6.240560e+00	-1.935118e+00
2.400000e-07	-9.379002e-07	-2.658461e-11	-6.186058e+00	-1.916492e+00
2.500000e-07	-9.294227e-07	-3.871044e-11	-6.130143e+00	-1.897429e+00
2.600000e-07	-9.207736e-07	-3.027082e-11	-6.073097e+00	-1.877952e+00
2.700000e-07	-9.118925e-07	-1.985718e-11	-6.014520e+00	-1.858084e+00
2.800000e-07	-9.026813e-07	-3.201307e-11	-5.953766e+00	-1.837845e+00
2.900000e-07	-8.930820e-07	-3.912032e-11	-5.890452e+00	-1.817255e+00
3.000000e-07	-8.830098e-07	-2.248157e-11	-5.824020e+00	-1.796335e+00
3.100000e-07	-8.723268e-07	-1.072653e-11	-5.753559e+00	-1.775103e+00
3.200000e-07	-8.610628e-07	-2.822769e-11	-5.679265e+00	-1.753575e+00
3.300000e-07	-8.494102e-07	-4.069257e-11	-5.602409e+00	-1.731769e+00
3.400000e-07	-8.374182e-07	-2.938513e-11	-5.523314e+00	-1.709701e+00
3.500000e-07	-8.250948e-07	-1.936913e-11	-5.442033e+00	-1.687383e+00
3.600000e-07	-8.124968e-07	-2.412229e-11	-5.358941e+00	-1.664830e+00
3.700000e-07	-7.996792e-07	-2.447922e-11	-5.274401e+00	-1.642054e+00
3.800000e-07	-7.866101e-07	-1.870529e-11	-5.188201e+00	-1.619066e+00
3.900000e-07	-7.732611e-07	-2.167814e-11	-5.100157e+00	-1.595875e+00
4.000000e-07	-7.595973e-07	-2.449601e-11	-5.010035e+00	-1.572491e+00
4.100000e-07	-7.456231e-07	-2.128084e-11	-4.917866e+00	-1.548920e+00
4.200000e-07	-7.314136e-07	-2.544982e-11	-4.824145e+00	-1.525169e+00
4.300000e-07	-7.169468e-07	-3.115913e-11	-4.728727e+00	-1.501244e+00
4.400000e-07	-7.022009e-07	-2.050349e-11	-4.631469e+00	-1.477147e+00
4.500000e-07	-6.871168e-07	-1.051314e-11	-4.531979e+00	-1.452882e+00
4.600000e-07	-6.716684e-07	-1.993856e-11	-4.430087e+00	-1.428451e+00
4.700000e-07	-6.559270e-07	-2.989371e-11	-4.326262e+00	-1.403855e+00
4.800000e-07	-6.398497e-07	-2.430211e-11	-4.220222e+00	-1.379092e+00
4.900000e-07	-6.234331e-07	-1.916682e-11	-4.111944e+00	-1.354161e+00
5.000000e-07	-6.067256e-07	-2.403395e-11	-4.001747e+00	-1.329060e+00
5.100000e-07	-5.896782e-07	-2.646721e-11	-3.889308e+00	-1.303785e+00
5.200000e-07	-5.723514e-07	-2.199759e-11	-3.775027e+00	-1.278332e+00
5.300000e-07	-5.548276e-07	-1.839808e-11	-3.659446e+00	-1.252696e+00
5.400000e-07	-5.371295e-07	-1.730192e-11	-3.542716e+00	-1.226870e+00
5.500000e-07	-5.192750e-07	-1.735505e-11	-3.424954e+00	-1.200847e+00
5.600000e-07	-5.013229e-07	-2.029543e-11	-3.306548e+00	-1.174620e+00
5.700000e-07	-4.832510e-07	-2.079039e-11	-3.187352e+00	-1.148181e+00
5.800000e-07	-4.650413e-07	-1.481968e-11	-3.067248e+00	-1.121520e+00
5.900000e-07	-4.467679e-07	-1.179463e-11	-2.946723e+00	-1.094627e+00
6.000000e-07	-4.284012e-07	-1.500351e-11	-2.825583e+00	-1.067494e+00
6.100000e-07	-4.098752e-07	-1.531268e-11	-2.703391e+00	-1.040110e+00
6.200000e-07	-3.912406e-07	-1.041110e-11	-2.580485e+00	-1.012463e+00
6.300000e-07	-3.725151e-07	-8.350481e-12	-2.456978e+00	-9.845426e-01
6.400000e-07	-3.536628e-07	-1.114212e-11	-2.332635e+00	-9.563381e-01
6.500000e-07	-3.346867e-07	-1.373488e-11	-2.207475e+00	-9.278378e-01
6.600000e-07	-3.156135e-07	-1.315597e-11	-2.081675e+00	-8.990304e-01
6.700000e-07	-2.964129e-07	-1.000274e-11	-1.955035e+00	-8.699044e-01
6.800000e-07	-2.770773e-07	-8.098512e-12	-1.827504e+00	-8.404486e-01
6.900000e-07	-2.576080e-07	-9.055887e-12	-1.699091e+00	-8.106519e-01
7.000000e-07	-2.380305e-07	-8.819470e-12	-1.569965e+00	-7.805033e-01
7.100000e-07	-2.183607e-07	-4.223880e-12	-1.440230e+00	-7.499923e-01
7.200000e-07	-1.985879e-07	8.235733e-13	-1.309815e+00	-7.191088e-01
7.300000e-07	-1.787320e-07	1.414919e-12	-1.178853e+00	-6.878430e-01
7.400000e-07	-1.587680e-07	-2.026942e-12	-1.047177e+00	-6.561858e-01
7.500000e-07	-1.387475e-07	-2.705125e-12	-9.151291e-01	-6.241287e-01
7.600000e-07	-1.186912e-07	1.699228e-12	-7.828454e-01	-5.916637e-01
7.700000e-07	-9.859094e-08	3.713323e-12	-6.502709e-01	-5.587836e-01
7.800000e-07	-7.845316e-08	1.435862e-12	-5.174492e-01	-5.254822e-01
7.900000e-07	-5.829839e-08	-6.270584e-13	-3.845155e-01	-4.917540e-01
8.000000e-07	-3.815551e-08	8.569937e-13	-2.516602e-01	-4.575943e-01
8.100000e-07	-1.798958e-08	4.573935e-12	-1.186529e-01	-4.229997e-01
8.200000e-07	2.180900e-09	5.336695e-12	1.438444e-02	-3.879675e-01
8.300000e-07	2.237041e-08	3.046174e-12	1.475473e-01	-3.524963e-01
8.400000e-07	4.256855e-08	3.226868e-12	2.807671e-01	-3.165857e-01
8.500000e-07	6.270030e-08	7.681588e-12	4.135490e-01	-2.802366e-01
8.600000e-07	8.279437e-08	9.212478e-12	5.460823e-01	-2.434510e-01
8.700000e-07	1.029196e-07	5.558099e-12	6.788213e-01	-2.062321e-01
8.800000e-07	1.230456e-07	2.525317e-12	8.115654e-01	-1.685846e-01
8.900000e-07	1.430821e-07	3.821632e-12	9.437187e-01	-1.305143e-01
9.000000e-07	1.630600e-07	5.888466e-12	1.075486e+00	-9.202839e-02
9.100000e-07	1.829768e-07	5.276068e-12	1.206850e+00	-5.313538e-02
9.200000e-07	2.027599e-07	3.746733e-12	1.337332e+00	-1.384517e-02
9.300000e-07	2.223821e-07	4.088690e-12	1.466754e+00	2.583098e-02
9.400000e-07	2.419138e-07	5.265863e-12	1.595578e+00	6.588044e-02
9.500000e-07	2.614003e-07	4.180392e-12	1.724104e+00	1.062892e-01
9.600000e-07	2.807698e-07	2.237888e-12	1.851858e+00	1.470419e-01
9.700000e-07	3.000063e-07	2.318033e-12	1.978735e+00	1.881218e-01
9.800000e-07	3.191445e-07	5.500966e-12	2.104964e+00	2.295107e-01
9.900000e-07	3.381589e-07	9.157720e-12	2.230376e+00	2.711894e-01
1.000000e-06	3.570344e-07	9.204366e-12	2.354873e+00	3.131369e-01
1.010000e-06	3.757716e-07	7.030072e-12	2.478456e+00	3.553314e-01
1.020000e-06	3.943476e-07	6.918348e-12	2.600977e+00	3.977495e-01
1.030000e-06	4.127964e-07	8.589242e-12	2.722659e+00	4.403667e-01
1.040000e-06	4.311306e-07	8.348861e-12	2.843584e+00	4.831573e-01
1.050000e-06	4.493666e-07	6.718578e-12	2.963863e+00	5.260946e-01
1.060000e-06	4.675474e-07	5.947689e-12	3.083777e+00	5.691505e-01
1.070000e-06	4.856268e-07	7.453350e-12	3.203022e+00	6.122963e-01
1.080000e-06	5.035478e-07	9.496674e-12	3.321223e+00	6.555018e-01
1.090000e-06	5.213738e-07	9.882706e-12	3.438797e+00	6.987362e-01
1.100000e-06	5.391025e-07	9.650059e-12	3.555729e+00	7.419677e-01
1.110000e-06	5.566191e-07	9.375263e-12	3.671262e+00	7.851639e-01
1.120000e-06	5.739581e-07	9.521303e-12	3.785625e+00	8.282915e-01
1.130000e-06	5.911376e-07	9.054453e-12	3.898934e+00	8.713163e-01
1.140000e-06	6.080204e-07	7.645435e-12	4.010287e+00	9.142040e-01
1.150000e-06	6.246154e-07	7.484802e-12	4.119742e+00	9.569193e-01
1.160000e-06	6.408636e-07	1.084288e-11	4.226909e+00	9.994268e-01
1.170000e-06	6.567213e-07	1.500128e-11	4.331501e+00	1.041691e+00
1.180000e-06	6.722122e-07	1.703179e-11	4.433674e+00	1.083674e+00
1.190000e-06	6.873668e-07	1.728674e-11	4.533628e+00	1.125342e+00
1.200000e-06	7.022673e-07	1.719030e-11	4.631906e+00	1.166657e+00
1.210000e-06	7.169667e-07	1.785093e-11	4.728858e+00	1.207582e+00
1.220000e-06	7.314446e-07	1.866295e-11	4.824349e+00	1.248081e+00
1.230000e-06	7.456426e-07	1.792357e-11	4.917995e+00	1.288118e+00
1.240000e-06	7.595323e-07	1.652404e-11	5.009606e+00	1.327656e+00
1.250000e-06	7.730987e-07	1.665061e-11	5.099085e+00	1.366660e+00
1.260000e-06	7.863860e-07	1.803834e-11	5.186724e+00	1.405094e+00
1.270000e-06	7.993509e-07	1.991586e-11	5.272236e+00	1.442923e+00
1.280000e-06	8.120181e-07	1.988460e-11	5.355784e+00	1.480112e+00
1.290000e-06	8.244453e-07	1.931033e-11	5.437749e+00	1.516627e+00
1.300000e-06	8.366837e-07	2.116591e-11	5.518469e+00	1.552436e+00
1.310000e-06	8.486950e-07	2.408822e-11	5.597691e+00	1.587505e+00
1.320000e-06	8.602926e-07	2.441730e-11	5.674185e+00	1.621804e+00
1.330000e-06	8.714078e-07	2.258080e-11	5.747497e+00	1.655301e+00
1.340000e-06	8.819756e-07	2.278473e-11	5.817198e+00	1.687967e+00
1.350000e-06	8.920373e-07	2.638831e-11	5.883562e+00	1.719773e+00
1.360000e-06	9.016772e-07	2.963151e-11	5.947143e+00	1.750692e+00
1.370000e-06	9.108697e-07	2.931119e-11	6.007774e+00	1.780698e+00
1.380000e-06	9.197195e-07	2.841809e-11	6.066144e+00	1.809764e+00
1.390000e-06	9.283737e-07	2.955507e-11	6.123224e+00	1.837868e+00
1.400000e-06	9.368446e-07	3.111291e-11	6.179095e+00	1.864988e+00
1.410000e-06	9.450725e-07	3.076938e-11	6.233364e+00	1.891101e+00
1.420000e-06	9.530117e-07	2.852851e-11	6.285728e+00	1.916190e+00
1.430000e-06	9.606497e-07	2.704164e-11	6.336105e+00	1.940234e+00
1.440000e-06	9.679615e-07	2.849397e-11	6.384331e+00	1.963219e+00
1.450000e-06	9.749339e-07	3.104877e-11	6.430319e+00	1.985129e+00
1.460000e-06	9.815988e-07	3.147800e-11	6.474278e+00	2.005950e+00
1.470000e-06	9.879207e-07	3.073345e-11	6.515975e+00	2.025671e+00
1.480000e-06	9.939070e-07	3.260684e-11	6.555459e+00	2.044281e+00
1.490000e-06	9.995573e-07	3.580209e-11	6.592726e+00	2.061773e+00
1.500000e-06	1.004851e-06	3.663384e-11	6.627638e+00	2.078139e+00
1.510000e-06	1.009827e-06	3.466964e-11	6.660462e+00	2.093373e+00
1.520000e-06	1.014547e-06	3.215631e-11	6.691591e+00	2.107473e+00
1.530000e-06	1.019048e-06	3.130197e-11	6.721282e+00	2.120436e+00
1.540000e-06	1.023339e-06	3.163199e-11	6.749580e+00	2.132261e+00
1.550000e-06	1.027296e-06	3.101805e-11	6.775680e+00	2.142951e+00
1.560000e-06	1.030780e-06	3.053170e-11	6.798662e+00	2.152508e+00
1.570000e-06	1.033716e-06	3.152939e-11	6.818023e+00	2.160937e+00
1.580000e-06	1.036083e-06	3.378922e-11	6.833637e+00	2.168243e+00
1.590000e-06	1.037941e-06	3.585763e-11	6.845890e+00	2.174434e+00
1.600000e-06	1.039357e-06	3.591358e-11	6.855233e+00	2.179519e+00
1.610000e-06	1.040400e-06	3.516282e-11	6.862109e+00	2.183508e+00
1.620000e-06	1.041125e-06	3.535529e-11	6.866894e+00	2.186414e+00
1.630000e-06	1.041601e-06	3.595843e-11	6.870028e+00	2.188250e+00
1.640000e-06	1.041816e-06	3.360837e-11	6.871450e+00	2.189029e+00
1.650000e-06	1.041744e-06	2.925869e-11	6.870974e+00	2.188768e+00
1.660000e-06	1.041356e-06	2.557276e-11	6.868415e+00	2.187484e+00
1.670000e-06	1.040572e-06	2.834920e-11	6.863246e+00	2.185195e+00
1.680000e-06	1.039377e-06	3.224960e-11	6.855361e+00	2.181920e+00
1.690000e-06	1.037872e-06	3.584000e-11	6.845435e+00	2.177679e+00
1.700000e-06	1.036076e-06	5.437457e-11	6.833592e+00	2.172494e+00
1.710000e-06	1.033917e-06	7.231506e-11	6.819348e+00	2.166385e+00
1.720000e-06	1.031392e-06	7.130874e-11	6.802695e+00	2.159377e+00
1.730000e-06	1.028548e-06	3.861906e-11	6.783937e+00	2.151491e+00
1.740000e-06	1.025423e-06	-2.886937e-12	6.763326e+00	2.142753e+00
1.750000e-06	1.022095e-06	-9.728986e-12	6.741376e+00	2.133187e+00
1.760000e-06	1.018584e-06	-3.287466e-12	6.718219e+00	2.122818e+00
1.770000e-06	1.014809e-06	1.462978e-11	6.693320e+00	2.111672e+00
1.780000e-06	1.010668e-06	2.595650e-11	6.666005e+00	2.099773e+00
1.790000e-06	1.006011e-06	2.446673e-11	6.635294e+00	2.087150e+00
1.800000e-06	1.000736e-06	3.812855e-11	6.600499e+00	2.073827e+00
1.810000e-06	9.948200e-07	5.155764e-11	6.561480e+00	2.059831e+00
1.820000e-06	9.883676e-07	4.505137e-11	6.518922e+00	2.045188e+00
1.830000e-06	9.815464e-07	2.221905e-11	6.473933e+00	2.029925e+00
1.840000e-06	9.744310e-07	1.032497e-11	6.427002e+00	2.014067e+00
1.850000e-06	9.670552e-07	9.740608e-12	6.378354e+00	1.997641e+00
1.860000e-06	9.594566e-07	1.797747e-11	6.328236e+00	1.980672e+00
1.870000e-06	9.516255e-07	2.807479e-11	6.276585e+00	1.963184e+00
1.880000e-06	9.434583e-07	2.686225e-11	6.222717e+00	1.945203e+00
1.890000e-06	9.349120e-07	1.380563e-11	6.166348e+00	1.926754e+00
1.900000e-06	9.260381e-07	1.224503e-11	6.107819e+00	1.907859e+00
1.910000e-06	9.169252e-07	2.511943e-11	6.047714e+00	1.888541e+00
1.920000e-06	9.075672e-07	2.435353e-11	5.985991e+00	1.868823e+00
1.930000e-06	8.978425e-07	7.701369e-12	5.921851e+00	1.848726e+00
1.940000e-06	8.877422e-07	1.259906e-11	5.855233e+00	1.828271e+00
1.950000e-06	8.773758e-07	3.493657e-11	5.786860e+00	1.807477e+00
1.960000e-06	8.667231e-07	2.926124e-11	5.716599e+00	1.786364e+00
1.970000e-06	8.556877e-07	3.888155e-12	5.643813e+00	1.764950e+00
1.980000e-06	8.443278e-07	3.757604e-12	5.568887e+00	1.743250e+00
1.990000e-06	8.327243e-07	2.407509e-11	5.492355e+00	1.721282e+00
2.000000e-06	8.208541e-07	2.456851e-11	5.414063e+00	1.699060e+00
2.010000e-06	8.086852e-07	1.754207e-11	5.333801e+00	1.676597e+00
2.020000e-06	7.960790e-07	2.241949e-11	5.250655e+00	1.653906e+00
2.030000e-06	7.829768e-07	2.588586e-11	5.164237e+00	1.630999e+00
2.040000e-06	7.693496e-07	1.682031e-11	5.074358e+00	1.607886e+00
2.050000e-06	7.551623e-07	1.610496e-11	4.980783e+00	1.584575e+00
2.060000e-06	7.406219e-07	1.980695e-11	4.884879e+00	1.561076e+00
2.070000e-06	7.258245e-07	1.094165e-11	4.787281e+00	1.537394e+00
2.080000e-06	7.107546e-07	1.033319e-11	4.687885e+00	1.513536e+00
2.090000e-06	6.955132e-07	2.787552e-11	4.587359e+00	1.489505e+00
2.100000e-06	6.801744e-07	3.174017e-11	4.486190e+00	1.465305e+00
2.110000e-06	6.647095e-07	1.303502e-11	4.384188e+00	1.440938e+00
2.120000e-06	6.490666e-07	1.060550e-11	4.281013e+00	1.416405e+00
2.130000e-06	6.332306e-07	2.371990e-11	4.176565e+00	1.391707e+00
2.140000e-06	6.171643e-07	2.027127e-11	4.070597e+00	1.366841e+00
2.150000e-06	6.008351e-07	6.793089e-12	3.962896e+00	1.341807e+00
2.160000e-06	5.842791e-07	8.896546e-12	3.853698e+00	1.316600e+00
2.170000e-06	5.675077e-07	1.810683e-11	3.743080e+00	1.291216e+00
2.180000e-06	5.505257e-07	1.900848e-11	3.631072e+00	1.265652e+00
2.190000e-06	5.333802e-07	1.798612e-11	3.517987e+00	1.239900e+00
2.200000e-06	5.161121e-07	1.576118e-11	3.404093e+00	1.213954e+00
2.210000e-06	4.987021e-07	1.264690e-11	3.289263e+00	1.187808e+00
2.220000e-06	4.811394e-07	1.578058e-11	3.173425e+00	1.161452e+00
2.230000e-06	4.633824e-07	2.213625e-11	3.056306e+00	1.134878e+00
2.240000e-06	4.455016e-07	1.928371e-11	2.938371e+00	1.108076e+00
2.250000e-06	4.275366e-07	1.297504e-11	2.819880e+00	1.081038e+00
2.260000e-06	4.093750e-07	1.692725e-11	2.700093e+00	1.053752e+00
2.270000e-06	3.909775e-07	2.421568e-11	2.578749e+00	1.026209e+00
2.280000e-06	3.723942e-07	2.314239e-11	2.456180e+00	9.983965e-01
2.290000e-06	3.537010e-07	1.728778e-11	2.332886e+00	9.703041e-01
2.300000e-06	3.348747e-07	1.525328e-11	2.208715e+00	9.419204e-01
2.310000e-06	3.159064e-07	1.780436e-11	2.083606e+00	9.132339e-01
2.320000e-06	2.968769e-07	2.063597e-11	1.958095e+00	8.842335e-01
2.330000e-06	2.777807e-07	1.860380e-11	1.832143e+00	8.549076e-01
2.340000e-06	2.585993e-07	1.353608e-11	1.705629e+00	8.252451e-01
2.350000e-06	2.393694e-07	1.314389e-11	1.578796e+00	7.952350e-01
2.360000e-06	2.201093e-07	1.703572e-11	1.451763e+00	7.648666e-01
2.370000e-06	2.008254e-07	1.689194e-11	1.324573e+00	7.341296e-01
2.380000e-06	1.815344e-07	1.240616e-11	1.197337e+00	7.030141e-01
2.390000e-06	1.622283e-07	1.103961e-11	1.070001e+00	6.715108e-01
2.400000e-06	1.428878e-07	1.346631e-11	9.424376e-01	6.396107e-01
2.410000e-06	1.235335e-07	1.497696e-11	8.147833e-01	6.073058e-01
2.420000e-06	1.041837e-07	1.261211e-11	6.871587e-01	5.745886e-01
2.430000e-06	8.483922e-08	9.327102e-12	5.595694e-01	5.414525e-01
2.440000e-06	6.548967e-08	8.316640e-12	4.319467e-01	5.078915e-01
2.450000e-06	4.613690e-08	8.634981e-12	3.043027e-01	4.739008e-01
2.460000e-06	2.678531e-08	8.413022e-12	1.766664e-01	4.394764e-01
2.470000e-06	7.414384e-09	6.346979e-12	4.890265e-02	4.046153e-01
2.480000e-06	-1.196586e-08	4.776063e-12	-7.892260e-02	3.693157e-01
2.490000e-06	-3.133177e-08	4.569684e-12	-2.066532e-01	3.335767e-01
2.500000e-06	-5.070032e-08	3.483786e-12	-3.344013e-01	2.973986e-01
2.510000e-06	-7.007799e-08	3.531770e-13	-4.622096e-01	2.607832e-01
2.520000e-06	-8.944938e-08	-2.788698e-12	-5.899764e-01	2.237331e-01
2.530000e-06	-1.088024e-07	-2.010035e-12	-7.176218e-01	1.862523e-01
2.540000e-06	-1.281484e-07	2.584084e-12	-8.452215e-01	1.483463e-01
2.550000e-06	-1.474891e-07	4.473038e-12	-9.727859e-01	1.100218e-01
2.560000e-06	-1.668023e-07	1.369094e-12	-1.100169e+00	7.128656e-02
2.570000e-06	-1.860919e-07	-1.076206e-12	-1.227397e+00	3.215012e-02
2.580000e-06	-2.053750e-07	-1.011430e-12	-1.354581e+00	-7.376845e-03
2.590000e-06	-2.246343e-07	-1.180909e-12	-1.481608e+00	-4.728225e-02
2.600000e-06	-2.438564e-07	-3.523487e-12	-1.608390e+00	-8.755263e-02
2.610000e-06	-2.630300e-07	-5.049788e-12	-1.734853e+00	-1.281731e-01
2.620000e-06	-2.821563e-07	-4.164440e-12	-1.861003e+00	-1.691276e-01
2.630000e-06	-3.012015e-07	-2.338409e-12	-1.986618e+00	-2.103983e-01
2.640000e-06	-3.201343e-07	-1.936356e-12	-2.111492e+00	-2.519666e-01
2.650000e-06	-3.389867e-07	-5.073856e-12	-2.235836e+00	-2.938121e-01
2.660000e-06	-3.577427e-07	-9.492026e-12	-2.359544e+00	-3.359132e-01
2.670000e-06	-3.763282e-07	-1.140638e-11	-2.482127e+00	-3.782473e-01
2.680000e-06	-3.947206e-07	-1.001323e-11	-2.603437e+00	-4.207903e-01
2.690000e-06	-4.129298e-07	-8.750080e-12	-2.723539e+00	-4.635170e-01
2.700000e-06	-4.309317e-07	-8.556117e-12	-2.842273e+00	-5.064009e-01
2.710000e-06	-4.487722e-07	-8.501622e-12	-2.959943e+00	-5.494146e-01
2.720000e-06	-4.664842e-07	-8.099284e-12	-3.076764e+00	-5.925296e-01
2.730000e-06	-4.840314e-07	-7.757176e-12	-3.192500e+00	-6.357162e-01
2.740000e-06	-5.014383e-07	-9.356351e-12	-3.307309e+00	-6.789440e-01
2.750000e-06	-5.187202e-07	-1.226397e-11	-3.421295e+00	-7.221816e-01
2.760000e-06	-5.358975e-07	-1.398248e-11	-3.534590e+00	-7.653966e-01
2.770000e-06	-5.529452e-07	-1.348107e-11	-3.647031e+00	-8.085561e-01
2.780000e-06	-5.697986e-07	-1.216944e-11	-3.758190e+00	-8.516264e-01
2.790000e-06	-5.864343e-07	-1.156134e-11	-3.867913e+00	-8.945731e-01
2.800000e-06	-6.028346e-07	-1.249839e-11	-3.976083e+00	-9.373614e-01
2.810000e-06	-6.189954e-07	-1.506452e-11	-4.082674e+00	-9.799558e-01
2.820000e-06	-6.349181e-07	-1.686059e-11	-4.187695e+00	-1.022321e+00
2.830000e-06	-6.506376e-07	-1.778604e-11	-4.291375e+00	-1.064420e+00
2.840000e-06	-6.661865e-07	-1.988053e-11	-4.393930e+00	-1.106217e+00
2.850000e-06	-6.816036e-07	-2.237235e-11	-4.495616e+00	-1.147676e+00
2.860000e-06	-6.968783e-07	-2.249064e-11	-4.596362e+00	-1.188759e+00
2.870000e-06	-7.120383e-07	-2.032432e-11	-4.696352e+00	-1.229431e+00
2.880000e-06	-7.269972e-07	-1.889899e-11	-4.795016e+00	-1.269655e+00
2.890000e-06	-7.416248e-07	-1.980302e-11	-4.891494e+00	-1.309395e+00
2.900000e-06	-7.558725e-07	-2.253485e-11	-4.985467e+00	-1.348614e+00
2.910000e-06	-7.696492e-07	-2.294348e-11	-5.076333e+00	-1.387277e+00
2.920000e-06	-7.829639e-07	-2.022013e-11	-5.164152e+00	-1.425348e+00
2.930000e-06	-7.957681e-07	-1.901557e-11	-5.248604e+00	-1.462794e+00
2.940000e-06	-8.081051e-07	-2.111324e-11	-5.329975e+00	-1.499579e+00
