# Temperatura_=_20.0
# Concentracion g/m^3_=_10000.0
# C_Vs_to_Am_M_A/Vsm_=_65563218390.804596
# pendiente_HvsI_1/m_=_3716.3
# ordenada_HvsI_A/m_=_1297.0
# frecuencia_Hz_=_302296.530959232

Tiempo_(s)	Campo_(V.s)	Magnetizacion_(V.s)	Campo_(kA/m)	Magnetizacion_(A/m)
0.000000e+00	-1.042015e-06	-1.556720e-09	-6.864912e+00	-1.018672e+02
1.000000e-08	-1.042072e-06	-1.553135e-09	-6.865289e+00	-1.019315e+02
2.000000e-08	-1.041883e-06	-1.550535e-09	-6.864040e+00	-1.019567e+02
3.000000e-08	-1.041494e-06	-1.551223e-09	-6.861479e+00	-1.019428e+02
4.000000e-08	-1.040894e-06	-1.558156e-09	-6.857529e+00	-1.018897e+02
5.000000e-08	-1.039940e-06	-1.559673e-09	-6.851245e+00	-1.017977e+02
6.000000e-08	-1.038596e-06	-1.564082e-09	-6.842389e+00	-1.016668e+02
7.000000e-08	-1.036814e-06	-1.590114e-09	-6.830645e+00	-1.014971e+02
8.000000e-08	-1.034438e-06	-1.613479e-09	-6.814993e+00	-1.012888e+02
9.000000e-08	-1.031441e-06	-1.590481e-09	-6.795252e+00	-1.010420e+02
1.000000e-07	-1.027902e-06	-1.515104e-09	-6.771932e+00	-1.007569e+02
1.100000e-07	-1.023939e-06	-1.461588e-09	-6.745824e+00	-1.004338e+02
1.200000e-07	-1.019678e-06	-1.472848e-09	-6.717754e+00	-1.000727e+02
1.300000e-07	-1.015224e-06	-1.517884e-09	-6.688407e+00	-9.967408e+01
1.400000e-07	-1.010544e-06	-1.542414e-09	-6.657579e+00	-9.923805e+01
1.500000e-07	-1.005558e-06	-1.524780e-09	-6.624732e+00	-9.876493e+01
1.600000e-07	-1.000215e-06	-1.492078e-09	-6.589529e+00	-9.825501e+01
1.700000e-07	-9.944676e-07	-1.504312e-09	-6.551665e+00	-9.770861e+01
1.800000e-07	-9.883852e-07	-1.540386e-09	-6.511593e+00	-9.712605e+01
1.900000e-07	-9.820377e-07	-1.510232e-09	-6.469775e+00	-9.650768e+01
2.000000e-07	-9.753819e-07	-1.427573e-09	-6.425926e+00	-9.585385e+01
2.100000e-07	-9.683627e-07	-1.403794e-09	-6.379683e+00	-9.516495e+01
2.200000e-07	-9.609159e-07	-1.450849e-09	-6.330623e+00	-9.444135e+01
2.300000e-07	-9.530530e-07	-1.472889e-09	-6.278821e+00	-9.368346e+01
2.400000e-07	-9.449187e-07	-1.440260e-09	-6.225231e+00	-9.289170e+01
2.500000e-07	-9.365866e-07	-1.400072e-09	-6.170338e+00	-9.206649e+01
2.600000e-07	-9.280689e-07	-1.381387e-09	-6.114223e+00	-9.120828e+01
2.700000e-07	-9.194020e-07	-1.375732e-09	-6.057124e+00	-9.031751e+01
2.800000e-07	-9.104979e-07	-1.381492e-09	-5.998463e+00	-8.939464e+01
2.900000e-07	-9.011158e-07	-1.368303e-09	-5.936653e+00	-8.844015e+01
3.000000e-07	-8.911456e-07	-1.322152e-09	-5.870968e+00	-8.745452e+01
3.100000e-07	-8.807262e-07	-1.294741e-09	-5.802324e+00	-8.643824e+01
3.200000e-07	-8.698717e-07	-1.323341e-09	-5.730813e+00	-8.539180e+01
3.300000e-07	-8.585093e-07	-1.328468e-09	-5.655956e+00	-8.431571e+01
3.400000e-07	-8.467148e-07	-1.260065e-09	-5.578253e+00	-8.321048e+01
3.500000e-07	-8.345755e-07	-1.207623e-09	-5.498278e+00	-8.207663e+01
3.600000e-07	-8.222112e-07	-1.239020e-09	-5.416820e+00	-8.091468e+01
3.700000e-07	-8.096319e-07	-1.268326e-09	-5.333947e+00	-7.972517e+01
3.800000e-07	-7.967599e-07	-1.218727e-09	-5.249144e+00	-7.850862e+01
3.900000e-07	-7.835855e-07	-1.156868e-09	-5.162350e+00	-7.726558e+01
4.000000e-07	-7.701098e-07	-1.150072e-09	-5.073571e+00	-7.599659e+01
4.100000e-07	-7.563307e-07	-1.159278e-09	-4.982792e+00	-7.470219e+01
4.200000e-07	-7.422601e-07	-1.135823e-09	-4.890094e+00	-7.338293e+01
4.300000e-07	-7.279208e-07	-1.094437e-09	-4.795624e+00	-7.203936e+01
4.400000e-07	-7.133283e-07	-1.062564e-09	-4.699487e+00	-7.067203e+01
4.500000e-07	-6.984379e-07	-1.054022e-09	-4.601388e+00	-6.928149e+01
4.600000e-07	-6.832397e-07	-1.061160e-09	-4.501260e+00	-6.786830e+01
4.700000e-07	-6.676777e-07	-1.042678e-09	-4.398736e+00	-6.643301e+01
4.800000e-07	-6.517199e-07	-9.834933e-10	-4.293604e+00	-6.497617e+01
4.900000e-07	-6.354617e-07	-9.410489e-10	-4.186494e+00	-6.349835e+01
5.000000e-07	-6.188799e-07	-9.492785e-10	-4.077250e+00	-6.200009e+01
5.100000e-07	-6.019246e-07	-9.501989e-10	-3.965547e+00	-6.048195e+01
5.200000e-07	-5.846899e-07	-9.002706e-10	-3.852003e+00	-5.894447e+01
5.300000e-07	-5.672764e-07	-8.503213e-10	-3.737281e+00	-5.738822e+01
5.400000e-07	-5.497382e-07	-8.463147e-10	-3.621738e+00	-5.581374e+01
5.500000e-07	-5.320775e-07	-8.504187e-10	-3.505387e+00	-5.422158e+01
5.600000e-07	-5.142695e-07	-8.180616e-10	-3.388066e+00	-5.261228e+01
5.700000e-07	-4.963266e-07	-7.659970e-10	-3.269856e+00	-5.098639e+01
5.800000e-07	-4.782782e-07	-7.349199e-10	-3.150951e+00	-4.934446e+01
5.900000e-07	-4.601175e-07	-7.297938e-10	-3.031306e+00	-4.768702e+01
6.000000e-07	-4.418398e-07	-7.190739e-10	-2.910891e+00	-4.601462e+01
6.100000e-07	-4.234734e-07	-6.820173e-10	-2.789891e+00	-4.432779e+01
6.200000e-07	-4.050186e-07	-6.359381e-10	-2.668308e+00	-4.262707e+01
6.300000e-07	-3.864594e-07	-6.130252e-10	-2.546038e+00	-4.091299e+01
6.400000e-07	-3.677912e-07	-6.095836e-10	-2.423050e+00	-3.918609e+01
6.500000e-07	-3.489871e-07	-5.894372e-10	-2.299166e+00	-3.744689e+01
6.600000e-07	-3.299819e-07	-5.433228e-10	-2.173958e+00	-3.569593e+01
6.700000e-07	-3.107959e-07	-5.047065e-10	-2.047558e+00	-3.393372e+01
6.800000e-07	-2.914773e-07	-4.935422e-10	-1.920286e+00	-3.216081e+01
6.900000e-07	-2.720306e-07	-4.829641e-10	-1.792168e+00	-3.037770e+01
7.000000e-07	-2.524586e-07	-4.457720e-10	-1.663226e+00	-2.858494e+01
7.100000e-07	-2.327767e-07	-3.979090e-10	-1.533559e+00	-2.678303e+01
7.200000e-07	-2.129819e-07	-3.713413e-10	-1.403149e+00	-2.497251e+01
7.300000e-07	-1.930698e-07	-3.634966e-10	-1.271966e+00	-2.315389e+01
7.400000e-07	-1.731278e-07	-3.435986e-10	-1.140585e+00	-2.132770e+01
7.500000e-07	-1.531925e-07	-3.009887e-10	-1.009249e+00	-1.949446e+01
7.600000e-07	-1.331810e-07	-2.607133e-10	-8.774117e-01	-1.765470e+01
7.700000e-07	-1.130985e-07	-2.420407e-10	-7.451054e-01	-1.580893e+01
7.800000e-07	-9.299283e-08	-2.262827e-10	-6.126473e-01	-1.395768e+01
7.900000e-07	-7.286011e-08	-1.918092e-10	-4.800107e-01	-1.210148e+01
8.000000e-07	-5.267919e-08	-1.473019e-10	-3.470565e-01	-1.024085e+01
8.100000e-07	-3.244964e-08	-1.164673e-10	-2.137819e-01	-8.376326e+00
8.200000e-07	-1.223439e-08	-1.022530e-10	-8.060157e-02	-6.508438e+00
8.300000e-07	7.954845e-09	-8.090347e-11	5.240742e-02	-4.637717e+00
8.400000e-07	2.813388e-08	-4.141225e-11	1.853492e-01	-2.764700e+00
8.500000e-07	4.828749e-08	-2.277549e-12	3.181235e-01	-8.899247e-01
8.600000e-07	6.844740e-08	2.037889e-11	4.509392e-01	9.860663e-01
8.700000e-07	8.860939e-08	3.795060e-11	5.837687e-01	2.862728e+00
8.800000e-07	1.087178e-07	6.839977e-11	7.162451e-01	4.739513e+00
8.900000e-07	1.287781e-07	1.101060e-10	8.484045e-01	6.615867e+00
9.000000e-07	1.487829e-07	1.451181e-10	9.801983e-01	8.491236e+00
9.100000e-07	1.687002e-07	1.657305e-10	1.111416e+00	1.036506e+01
9.200000e-07	1.885868e-07	1.869324e-10	1.242431e+00	1.223677e+01
9.300000e-07	2.084085e-07	2.206245e-10	1.373019e+00	1.410580e+01
9.400000e-07	2.280830e-07	2.582061e-10	1.502637e+00	1.597158e+01
9.500000e-07	2.476939e-07	2.847223e-10	1.631836e+00	1.783352e+01
9.600000e-07	2.672554e-07	3.036033e-10	1.760709e+00	1.969105e+01
9.700000e-07	2.866680e-07	3.322042e-10	1.888601e+00	2.154357e+01
9.800000e-07	3.059137e-07	3.717598e-10	2.015394e+00	2.339050e+01
9.900000e-07	3.249915e-07	4.060432e-10	2.141081e+00	2.523123e+01
1.000000e-06	3.439287e-07	4.268425e-10	2.265841e+00	2.706517e+01
1.010000e-06	3.627792e-07	4.460564e-10	2.390030e+00	2.889169e+01
1.020000e-06	3.814802e-07	4.759274e-10	2.513235e+00	3.071020e+01
1.030000e-06	4.000084e-07	5.106503e-10	2.635301e+00	3.252007e+01
1.040000e-06	4.184444e-07	5.382932e-10	2.756759e+00	3.432068e+01
1.050000e-06	4.367515e-07	5.595261e-10	2.877368e+00	3.611140e+01
1.060000e-06	4.549309e-07	5.856178e-10	2.997136e+00	3.789161e+01
1.070000e-06	4.729927e-07	6.200518e-10	3.116129e+00	3.966066e+01
1.080000e-06	4.909335e-07	6.535801e-10	3.234326e+00	4.141791e+01
1.090000e-06	5.087567e-07	6.755242e-10	3.351747e+00	4.316272e+01
1.100000e-06	5.264266e-07	6.937950e-10	3.468158e+00	4.489445e+01
1.110000e-06	5.440384e-07	7.201187e-10	3.584186e+00	4.661244e+01
1.120000e-06	5.615445e-07	7.528476e-10	3.699519e+00	4.831605e+01
1.130000e-06	5.788320e-07	7.808696e-10	3.813411e+00	5.000460e+01
1.140000e-06	5.959280e-07	8.018815e-10	3.926041e+00	5.167745e+01
1.150000e-06	6.127612e-07	8.253094e-10	4.036940e+00	5.333393e+01
1.160000e-06	6.292011e-07	8.550478e-10	4.145248e+00	5.497338e+01
1.170000e-06	6.452732e-07	8.838676e-10	4.251133e+00	5.659515e+01
1.180000e-06	6.610565e-07	9.031417e-10	4.355115e+00	5.819856e+01
1.190000e-06	6.764929e-07	9.179816e-10	4.456812e+00	5.978295e+01
1.200000e-06	6.915813e-07	9.385993e-10	4.556216e+00	6.134766e+01
1.210000e-06	7.063970e-07	9.675923e-10	4.653824e+00	6.289203e+01
1.220000e-06	7.209664e-07	9.951682e-10	4.749808e+00	6.441540e+01
1.230000e-06	7.353283e-07	1.015381e-09	4.844426e+00	6.591711e+01
1.240000e-06	7.494942e-07	1.034733e-09	4.937753e+00	6.739651e+01
1.250000e-06	7.633790e-07	1.059416e-09	5.029227e+00	6.885294e+01
1.260000e-06	7.768931e-07	1.084899e-09	5.118259e+00	7.028575e+01
1.270000e-06	7.900993e-07	1.103476e-09	5.205263e+00	7.169431e+01
1.280000e-06	8.030411e-07	1.117712e-09	5.290526e+00	7.307797e+01
1.290000e-06	8.157198e-07	1.136454e-09	5.374054e+00	7.443610e+01
1.300000e-06	8.281635e-07	1.161133e-09	5.456035e+00	7.576808e+01
1.310000e-06	8.403438e-07	1.184401e-09	5.536280e+00	7.707329e+01
1.320000e-06	8.522686e-07	1.201372e-09	5.614842e+00	7.835112e+01
1.330000e-06	8.638930e-07	1.215887e-09	5.691424e+00	7.960096e+01
1.340000e-06	8.750393e-07	1.233476e-09	5.764858e+00	8.082223e+01
1.350000e-06	8.855658e-07	1.252973e-09	5.834208e+00	8.201434e+01
1.360000e-06	8.955123e-07	1.269311e-09	5.899736e+00	8.317672e+01
1.370000e-06	9.049722e-07	1.282733e-09	5.962059e+00	8.430881e+01
1.380000e-06	9.140590e-07	1.298509e-09	6.021924e+00	8.541006e+01
1.390000e-06	9.228650e-07	1.317654e-09	6.079939e+00	8.647993e+01
1.400000e-06	9.314324e-07	1.335765e-09	6.136382e+00	8.751790e+01
1.410000e-06	9.398205e-07	1.349515e-09	6.191644e+00	8.852347e+01
1.420000e-06	9.480394e-07	1.360228e-09	6.245791e+00	8.949613e+01
1.430000e-06	9.559875e-07	1.372378e-09	6.298154e+00	9.043542e+01
1.440000e-06	9.635214e-07	1.387352e-09	6.347788e+00	9.134085e+01
1.450000e-06	9.706598e-07	1.401506e-09	6.394817e+00	9.221200e+01
1.460000e-06	9.774822e-07	1.412117e-09	6.439763e+00	9.304842e+01
1.470000e-06	9.840262e-07	1.422311e-09	6.482876e+00	9.384970e+01
1.480000e-06	9.902717e-07	1.435561e-09	6.524022e+00	9.461545e+01
1.490000e-06	9.961659e-07	1.448558e-09	6.562854e+00	9.534528e+01
1.500000e-06	1.001671e-06	1.457965e-09	6.599124e+00	9.603885e+01
1.510000e-06	1.006820e-06	1.464958e-09	6.633041e+00	9.669582e+01
1.520000e-06	1.011685e-06	1.473350e-09	6.665095e+00	9.731585e+01
1.530000e-06	1.016330e-06	1.484209e-09	6.695697e+00	9.789866e+01
1.540000e-06	1.020774e-06	1.493693e-09	6.724976e+00	9.844396e+01
1.550000e-06	1.024996e-06	1.500004e-09	6.752789e+00	9.895150e+01
1.560000e-06	1.028921e-06	1.505580e-09	6.778645e+00	9.942104e+01
1.570000e-06	1.032408e-06	1.512515e-09	6.801619e+00	9.985236e+01
1.580000e-06	1.035367e-06	1.519673e-09	6.821116e+00	1.002453e+02
1.590000e-06	1.037752e-06	1.525394e-09	6.836827e+00	1.005996e+02
1.600000e-06	1.039547e-06	1.528858e-09	6.848651e+00	1.009152e+02
1.610000e-06	1.040832e-06	1.532716e-09	6.857116e+00	1.011919e+02
1.620000e-06	1.041745e-06	1.538126e-09	6.863136e+00	1.014296e+02
1.630000e-06	1.042391e-06	1.542218e-09	6.867391e+00	1.016283e+02
1.640000e-06	1.042825e-06	1.544846e-09	6.870248e+00	1.017879e+02
1.650000e-06	1.043007e-06	1.549289e-09	6.871450e+00	1.019083e+02
1.660000e-06	1.042851e-06	1.555449e-09	6.870417e+00	1.019895e+02
1.670000e-06	1.042327e-06	1.563415e-09	6.866970e+00	1.020316e+02
1.680000e-06	1.041452e-06	1.566484e-09	6.861203e+00	1.020345e+02
1.690000e-06	1.040234e-06	1.555901e-09	6.853178e+00	1.019983e+02
1.700000e-06	1.038682e-06	1.545326e-09	6.842957e+00	1.019231e+02
1.710000e-06	1.036784e-06	1.528000e-09	6.830449e+00	1.018089e+02
1.720000e-06	1.034518e-06	1.500120e-09	6.815521e+00	1.016559e+02
1.730000e-06	1.031882e-06	1.482717e-09	6.798155e+00	1.014642e+02
1.740000e-06	1.028890e-06	1.506786e-09	6.778446e+00	1.012340e+02
1.750000e-06	1.025618e-06	1.583579e-09	6.756890e+00	1.009654e+02
1.760000e-06	1.022132e-06	1.613568e-09	6.733922e+00	1.006586e+02
1.770000e-06	1.018522e-06	1.567994e-09	6.710139e+00	1.003139e+02
1.780000e-06	1.014757e-06	1.509167e-09	6.685332e+00	9.993139e+01
1.790000e-06	1.010583e-06	1.494212e-09	6.657834e+00	9.951143e+01
1.800000e-06	1.005807e-06	1.519886e-09	6.626370e+00	9.905426e+01
1.810000e-06	1.000377e-06	1.510368e-09	6.590598e+00	9.856016e+01
1.820000e-06	9.944239e-07	1.456325e-09	6.551377e+00	9.802944e+01
1.830000e-06	9.879524e-07	1.425002e-09	6.508742e+00	9.746243e+01
1.840000e-06	9.809600e-07	1.468528e-09	6.462675e+00	9.685945e+01
1.850000e-06	9.736774e-07	1.512879e-09	6.414697e+00	9.622086e+01
1.860000e-06	9.662269e-07	1.490680e-09	6.365612e+00	9.554702e+01
1.870000e-06	9.585633e-07	1.425765e-09	6.315123e+00	9.483833e+01
1.880000e-06	9.505916e-07	1.394118e-09	6.262605e+00	9.409518e+01
1.890000e-06	9.422807e-07	1.408947e-09	6.207852e+00	9.331797e+01
1.900000e-06	9.336636e-07	1.423475e-09	6.151081e+00	9.250713e+01
1.910000e-06	9.247276e-07	1.408585e-09	6.092210e+00	9.166309e+01
1.920000e-06	9.154911e-07	1.372821e-09	6.031359e+00	9.078631e+01
1.930000e-06	9.059828e-07	1.344147e-09	5.968717e+00	8.987722e+01
1.940000e-06	8.962239e-07	1.351489e-09	5.904424e+00	8.893632e+01
1.950000e-06	8.862042e-07	1.372615e-09	5.838413e+00	8.796406e+01
1.960000e-06	8.757958e-07	1.335286e-09	5.769842e+00	8.696094e+01
1.970000e-06	8.649717e-07	1.267885e-09	5.698532e+00	8.592745e+01
1.980000e-06	8.538515e-07	1.268615e-09	5.625270e+00	8.486409e+01
1.990000e-06	8.424541e-07	1.322001e-09	5.550183e+00	8.377137e+01
2.000000e-06	8.307628e-07	1.297990e-09	5.473159e+00	8.264981e+01
2.010000e-06	8.188074e-07	1.208240e-09	5.394396e+00	8.149993e+01
2.020000e-06	8.065415e-07	1.181112e-09	5.313587e+00	8.032225e+01
2.030000e-06	7.938241e-07	1.223965e-09	5.229803e+00	7.911731e+01
2.040000e-06	7.805710e-07	1.220834e-09	5.142490e+00	7.788565e+01
2.050000e-06	7.668579e-07	1.159719e-09	5.052147e+00	7.662780e+01
2.060000e-06	7.526993e-07	1.126288e-09	4.958868e+00	7.534431e+01
2.070000e-06	7.380669e-07	1.129420e-09	4.862468e+00	7.403572e+01
2.080000e-06	7.230965e-07	1.124069e-09	4.763841e+00	7.270259e+01
2.090000e-06	7.079243e-07	1.099000e-09	4.663886e+00	7.134546e+01
2.100000e-06	6.925955e-07	1.061878e-09	4.562898e+00	6.996489e+01
2.110000e-06	6.771423e-07	1.021030e-09	4.461090e+00	6.856142e+01
2.120000e-06	6.615554e-07	1.014102e-09	4.358402e+00	6.713562e+01
2.130000e-06	6.458320e-07	1.029868e-09	4.254814e+00	6.568804e+01
2.140000e-06	6.299245e-07	9.992862e-10	4.150014e+00	6.421923e+01
2.150000e-06	6.137870e-07	9.307641e-10	4.043698e+00	6.272975e+01
2.160000e-06	5.974287e-07	9.069238e-10	3.935928e+00	6.122015e+01
2.170000e-06	5.807777e-07	9.252426e-10	3.826229e+00	5.969098e+01
2.180000e-06	5.638595e-07	9.049923e-10	3.714770e+00	5.814280e+01
2.190000e-06	5.467848e-07	8.449611e-10	3.602280e+00	5.657615e+01
2.200000e-06	5.295762e-07	8.119386e-10	3.488908e+00	5.499158e+01
2.210000e-06	5.122590e-07	8.146196e-10	3.374820e+00	5.338965e+01
2.220000e-06	4.948235e-07	8.048567e-10	3.259953e+00	5.177089e+01
2.230000e-06	4.772762e-07	7.662316e-10	3.144349e+00	5.013585e+01
2.240000e-06	4.596001e-07	7.205373e-10	3.027897e+00	4.848508e+01
2.250000e-06	4.417505e-07	6.926363e-10	2.910302e+00	4.681912e+01
2.260000e-06	4.237129e-07	6.861630e-10	2.791468e+00	4.513849e+01
2.270000e-06	4.055002e-07	6.722314e-10	2.671481e+00	4.344375e+01
2.280000e-06	3.871158e-07	6.305566e-10	2.550363e+00	4.173541e+01
2.290000e-06	3.685841e-07	5.859881e-10	2.428274e+00	4.001403e+01
2.300000e-06	3.498778e-07	5.702428e-10	2.305034e+00	3.828012e+01
2.310000e-06	3.309884e-07	5.649550e-10	2.180589e+00	3.653422e+01
2.320000e-06	3.120074e-07	5.324501e-10	2.055540e+00	3.477686e+01
2.330000e-06	2.929424e-07	4.795976e-10	1.929938e+00	3.300856e+01
2.340000e-06	2.737878e-07	4.476739e-10	1.803745e+00	3.122984e+01
2.350000e-06	2.545645e-07	4.447574e-10	1.677100e+00	2.944124e+01
2.360000e-06	2.352722e-07	4.328014e-10	1.550000e+00	2.764327e+01
2.370000e-06	2.159365e-07	3.915544e-10	1.422614e+00	2.583647e+01
2.380000e-06	1.965671e-07	3.470699e-10	1.295006e+00	2.402134e+01
2.390000e-06	1.771562e-07	3.277927e-10	1.167125e+00	2.219842e+01
2.400000e-06	1.577381e-07	3.182443e-10	1.039197e+00	2.036822e+01
2.410000e-06	1.383172e-07	2.885891e-10	9.112494e-01	1.853128e+01
2.420000e-06	1.188886e-07	2.432076e-10	7.832518e-01	1.668810e+01
2.430000e-06	9.944415e-08	2.105454e-10	6.551493e-01	1.483923e+01
2.440000e-06	7.997207e-08	1.986290e-10	5.268650e-01	1.298517e+01
2.450000e-06	6.049826e-08	1.839101e-10	3.985694e-01	1.112646e+01
2.460000e-06	4.102514e-08	1.486311e-10	2.702782e-01	9.263631e+00
2.470000e-06	2.153519e-08	1.061339e-10	1.418763e-01	7.397206e+00
2.480000e-06	2.049270e-09	8.003460e-11	1.350083e-02	5.527721e+00
2.490000e-06	-1.742397e-08	6.641003e-11	-1.147911e-01	3.655709e+00
2.500000e-06	-3.689591e-08	4.203747e-11	-2.430744e-01	1.781708e+00
2.510000e-06	-5.635895e-08	2.708430e-12	-3.712992e-01	-9.374114e-02
2.520000e-06	-7.583280e-08	-3.223820e-11	-4.995951e-01	-1.970095e+00
2.530000e-06	-9.531191e-08	-5.114227e-11	-6.279256e-01	-3.846808e+00
2.540000e-06	-1.147635e-07	-6.875512e-11	-7.560747e-01	-5.723327e+00
2.550000e-06	-1.341949e-07	-1.022182e-10	-8.840909e-01	-7.599100e+00
2.560000e-06	-1.536078e-07	-1.436787e-10	-1.011986e+00	-9.473567e+00
2.570000e-06	-1.730097e-07	-1.715357e-10	-1.139807e+00	-1.134616e+01
2.580000e-06	-1.923995e-07	-1.854092e-10	-1.267549e+00	-1.321633e+01
2.590000e-06	-2.117339e-07	-2.070619e-10	-1.394927e+00	-1.508348e+01
2.600000e-06	-2.310193e-07	-2.454617e-10	-1.521981e+00	-1.694705e+01
2.610000e-06	-2.502901e-07	-2.829623e-10	-1.648939e+00	-1.880646e+01
2.620000e-06	-2.695144e-07	-3.042216e-10	-1.775591e+00	-2.066111e+01
2.630000e-06	-2.886756e-07	-3.206963e-10	-1.901827e+00	-2.251042e+01
2.640000e-06	-3.076746e-07	-3.501707e-10	-2.026995e+00	-2.435380e+01
2.650000e-06	-3.265421e-07	-3.894022e-10	-2.151296e+00	-2.619063e+01
2.660000e-06	-3.453415e-07	-4.194141e-10	-2.275149e+00	-2.802032e+01
2.670000e-06	-3.639961e-07	-4.373124e-10	-2.398048e+00	-2.984225e+01
2.680000e-06	-3.825026e-07	-4.594405e-10	-2.519971e+00	-3.165582e+01
2.690000e-06	-4.008077e-07	-4.946189e-10	-2.640566e+00	-3.346038e+01
2.700000e-06	-4.189208e-07	-5.309823e-10	-2.759897e+00	-3.525533e+01
2.710000e-06	-4.368552e-07	-5.541238e-10	-2.878051e+00	-3.704004e+01
2.720000e-06	-4.546418e-07	-5.704558e-10	-2.995232e+00	-3.881386e+01
2.730000e-06	-4.723307e-07	-5.967006e-10	-3.111768e+00	-4.057616e+01
2.740000e-06	-4.898859e-07	-6.335138e-10	-3.227424e+00	-4.232630e+01
2.750000e-06	-5.073088e-07	-6.649418e-10	-3.342208e+00	-4.406362e+01
2.760000e-06	-5.246335e-07	-6.850987e-10	-3.456345e+00	-4.578750e+01
2.770000e-06	-5.418551e-07	-7.053490e-10	-3.569803e+00	-4.749726e+01
2.780000e-06	-5.588664e-07	-7.367449e-10	-3.681875e+00	-4.919225e+01
2.790000e-06	-5.756433e-07	-7.713226e-10	-3.792403e+00	-5.087183e+01
2.800000e-06	-5.922349e-07	-7.934518e-10	-3.901711e+00	-5.253532e+01
2.810000e-06	-6.085985e-07	-8.072085e-10	-4.009516e+00	-5.418206e+01
2.820000e-06	-6.246939e-07	-8.287449e-10	-4.115554e+00	-5.581140e+01
2.830000e-06	-6.405499e-07	-8.620546e-10	-4.220015e+00	-5.742267e+01
2.840000e-06	-6.562298e-07	-8.933116e-10	-4.323316e+00	-5.901521e+01
2.850000e-06	-6.717963e-07	-9.128396e-10	-4.425870e+00	-6.058835e+01
2.860000e-06	-6.872381e-07	-9.302784e-10	-4.527602e+00	-6.214143e+01
2.870000e-06	-7.025240e-07	-9.584296e-10	-4.628308e+00	-6.367380e+01
2.880000e-06	-7.176339e-07	-9.911622e-10	-4.727853e+00	-6.518479e+01
2.890000e-06	-7.325134e-07	-1.013704e-09	-4.825881e+00	-6.667374e+01
2.900000e-06	-7.470161e-07	-1.027094e-09	-4.921426e+00	-6.814000e+01
2.910000e-06	-7.610429e-07	-1.046296e-09	-5.013837e+00	-6.958293e+01
2.920000e-06	-7.746250e-07	-1.077236e-09	-5.103317e+00	-7.100187e+01
2.930000e-06	-7.877388e-07	-1.107970e-09	-5.189712e+00	-7.239619e+01
2.940000e-06	-8.003712e-07	-1.127868e-09	-5.272936e+00	-7.376526e+01
