# Temperatura_=_20.0
# Concentracion g/m^3_=_10000.0
# C_Vs_to_Am_M_A/Vsm_=_65563218390.804596
# pendiente_HvsI_1/m_=_3716.3
# ordenada_HvsI_A/m_=_1297.0
# frecuencia_Hz_=_302302.1054053937

Tiempo_(s)	Campo_(V.s)	Magnetizacion_(V.s)	Campo_(kA/m)	Magnetizacion_(A/m)
0.000000e+00	-1.041983e-06	-1.529113e-09	-6.864866e+00	-1.002277e+02
1.000000e-08	-1.041965e-06	-1.528100e-09	-6.864742e+00	-1.002912e+02
2.000000e-08	-1.041690e-06	-1.525885e-09	-6.862934e+00	-1.003160e+02
3.000000e-08	-1.041196e-06	-1.529352e-09	-6.859678e+00	-1.003021e+02
4.000000e-08	-1.040474e-06	-1.530723e-09	-6.854920e+00	-1.002494e+02
5.000000e-08	-1.039485e-06	-1.528279e-09	-6.848408e+00	-1.001582e+02
6.000000e-08	-1.038138e-06	-1.546156e-09	-6.839529e+00	-1.000284e+02
7.000000e-08	-1.036305e-06	-1.569193e-09	-6.827455e+00	-9.986015e+01
8.000000e-08	-1.033894e-06	-1.576674e-09	-6.811574e+00	-9.965365e+01
9.000000e-08	-1.030869e-06	-1.539220e-09	-6.791644e+00	-9.940903e+01
1.000000e-07	-1.027235e-06	-1.486292e-09	-6.767701e+00	-9.912645e+01
1.100000e-07	-1.023121e-06	-1.456778e-09	-6.740593e+00	-9.880613e+01
1.200000e-07	-1.018701e-06	-1.467453e-09	-6.711474e+00	-9.844826e+01
1.300000e-07	-1.014118e-06	-1.497944e-09	-6.681284e+00	-9.805310e+01
1.400000e-07	-1.009342e-06	-1.503583e-09	-6.649814e+00	-9.762089e+01
1.500000e-07	-1.004270e-06	-1.482196e-09	-6.616398e+00	-9.715191e+01
1.600000e-07	-9.988932e-07	-1.475595e-09	-6.580976e+00	-9.664646e+01
1.700000e-07	-9.931725e-07	-1.494322e-09	-6.543287e+00	-9.610484e+01
1.800000e-07	-9.870457e-07	-1.494517e-09	-6.502922e+00	-9.552738e+01
1.900000e-07	-9.805729e-07	-1.456548e-09	-6.460277e+00	-9.491442e+01
2.000000e-07	-9.737829e-07	-1.415605e-09	-6.415543e+00	-9.426634e+01
2.100000e-07	-9.666174e-07	-1.409967e-09	-6.368335e+00	-9.358349e+01
2.200000e-07	-9.590690e-07	-1.425803e-09	-6.318604e+00	-9.286628e+01
2.300000e-07	-9.511753e-07	-1.431169e-09	-6.266598e+00	-9.211510e+01
2.400000e-07	-9.429898e-07	-1.407689e-09	-6.212670e+00	-9.133039e+01
2.500000e-07	-9.345982e-07	-1.374766e-09	-6.157384e+00	-9.051256e+01
2.600000e-07	-9.260555e-07	-1.356074e-09	-6.101102e+00	-8.966206e+01
2.700000e-07	-9.173275e-07	-1.358962e-09	-6.043600e+00	-8.877935e+01
2.800000e-07	-9.082890e-07	-1.355587e-09	-5.984051e+00	-8.786490e+01
2.900000e-07	-8.988795e-07	-1.329829e-09	-5.922059e+00	-8.691919e+01
3.000000e-07	-8.890299e-07	-1.300722e-09	-5.857168e+00	-8.594269e+01
3.100000e-07	-8.786592e-07	-1.299139e-09	-5.788843e+00	-8.493591e+01
3.200000e-07	-8.677740e-07	-1.302882e-09	-5.717128e+00	-8.389935e+01
3.300000e-07	-8.563502e-07	-1.273532e-09	-5.641865e+00	-8.283353e+01
3.400000e-07	-8.444821e-07	-1.226245e-09	-5.563675e+00	-8.173896e+01
3.500000e-07	-8.322931e-07	-1.208787e-09	-5.483370e+00	-8.061617e+01
3.600000e-07	-8.198442e-07	-1.218652e-09	-5.401354e+00	-7.946570e+01
3.700000e-07	-8.071510e-07	-1.213686e-09	-5.317727e+00	-7.828808e+01
3.800000e-07	-7.942375e-07	-1.182584e-09	-5.232650e+00	-7.708386e+01
3.900000e-07	-7.810471e-07	-1.150185e-09	-5.145748e+00	-7.585358e+01
4.000000e-07	-7.675056e-07	-1.136129e-09	-5.056533e+00	-7.459779e+01
4.100000e-07	-7.536700e-07	-1.127539e-09	-4.965380e+00	-7.331705e+01
4.200000e-07	-7.395420e-07	-1.104084e-09	-4.872301e+00	-7.201192e+01
4.300000e-07	-7.251574e-07	-1.066392e-09	-4.777531e+00	-7.068294e+01
4.400000e-07	-7.104919e-07	-1.040693e-09	-4.680912e+00	-6.933069e+01
4.500000e-07	-6.955314e-07	-1.038752e-09	-4.582348e+00	-6.795572e+01
4.600000e-07	-6.802438e-07	-1.033050e-09	-4.481629e+00	-6.655859e+01
4.700000e-07	-6.645826e-07	-9.987199e-10	-4.378449e+00	-6.513987e+01
4.800000e-07	-6.486179e-07	-9.556398e-10	-4.273269e+00	-6.370012e+01
4.900000e-07	-6.322592e-07	-9.360379e-10	-4.165493e+00	-6.223990e+01
5.000000e-07	-6.155127e-07	-9.313654e-10	-4.055163e+00	-6.075977e+01
5.100000e-07	-5.985147e-07	-9.108618e-10	-3.943176e+00	-5.926029e+01
5.200000e-07	-5.812667e-07	-8.713124e-10	-3.829541e+00	-5.774202e+01
5.300000e-07	-5.637720e-07	-8.388343e-10	-3.714281e+00	-5.620551e+01
5.400000e-07	-5.461307e-07	-8.266075e-10	-3.598056e+00	-5.465132e+01
5.500000e-07	-5.283392e-07	-8.156772e-10	-3.480841e+00	-5.308001e+01
5.600000e-07	-5.103489e-07	-7.850632e-10	-3.362316e+00	-5.149211e+01
5.700000e-07	-4.922441e-07	-7.443015e-10	-3.243036e+00	-4.988818e+01
5.800000e-07	-4.740714e-07	-7.200615e-10	-3.123310e+00	-4.826877e+01
5.900000e-07	-4.558420e-07	-7.116991e-10	-3.003209e+00	-4.663441e+01
6.000000e-07	-4.375348e-07	-6.933392e-10	-2.882597e+00	-4.498565e+01
6.100000e-07	-4.190853e-07	-6.566715e-10	-2.761047e+00	-4.332302e+01
6.200000e-07	-4.005053e-07	-6.212693e-10	-2.638636e+00	-4.164705e+01
6.300000e-07	-3.818210e-07	-6.015041e-10	-2.515539e+00	-3.995828e+01
6.400000e-07	-3.630467e-07	-5.865020e-10	-2.391849e+00	-3.825725e+01
6.500000e-07	-3.441796e-07	-5.588874e-10	-2.267548e+00	-3.654446e+01
6.600000e-07	-3.252071e-07	-5.209828e-10	-2.142552e+00	-3.482045e+01
6.700000e-07	-3.060925e-07	-4.919912e-10	-2.016620e+00	-3.308574e+01
6.800000e-07	-2.868378e-07	-4.769677e-10	-1.889764e+00	-3.134084e+01
6.900000e-07	-2.674670e-07	-4.582313e-10	-1.762144e+00	-2.958628e+01
7.000000e-07	-2.479045e-07	-4.237049e-10	-1.633261e+00	-2.782257e+01
7.100000e-07	-2.281787e-07	-3.872119e-10	-1.503303e+00	-2.605022e+01
7.200000e-07	-2.084000e-07	-3.655713e-10	-1.372995e+00	-2.426975e+01
7.300000e-07	-1.885423e-07	-3.512556e-10	-1.242167e+00	-2.248166e+01
7.400000e-07	-1.685975e-07	-3.251445e-10	-1.110766e+00	-2.068647e+01
7.500000e-07	-1.486056e-07	-2.857421e-10	-9.790535e-01	-1.888468e+01
7.600000e-07	-1.285681e-07	-2.524015e-10	-8.470412e-01	-1.707680e+01
7.700000e-07	-1.084863e-07	-2.323158e-10	-7.147370e-01	-1.526334e+01
7.800000e-07	-8.837848e-08	-2.110504e-10	-5.822612e-01	-1.344480e+01
7.900000e-07	-6.824582e-08	-1.770652e-10	-4.496218e-01	-1.162171e+01
8.000000e-07	-4.804550e-08	-1.398341e-10	-3.165367e-01	-9.794558e+00
8.100000e-07	-2.780358e-08	-1.148140e-10	-1.831774e-01	-7.963863e+00
8.200000e-07	-7.560271e-09	-9.775876e-11	-4.980910e-02	-6.130134e+00
8.300000e-07	1.267947e-08	-7.216197e-11	8.353576e-02	-4.293885e+00
8.400000e-07	3.288761e-08	-3.445327e-11	2.166724e-01	-2.455630e+00
8.500000e-07	5.306987e-08	4.797515e-13	3.496385e-01	-6.158862e-01
8.600000e-07	7.323438e-08	2.370341e-11	4.824878e-01	1.224827e+00
8.700000e-07	9.336602e-08	4.541282e-11	6.151204e-01	3.065989e+00
8.800000e-07	1.134757e-07	7.763416e-11	7.476082e-01	4.907073e+00
8.900000e-07	1.335589e-07	1.143760e-10	8.799218e-01	6.747552e+00
9.000000e-07	1.536016e-07	1.431661e-10	1.011969e+00	8.586894e+00
9.100000e-07	1.735835e-07	1.643148e-10	1.143615e+00	1.042456e+01
9.200000e-07	1.934559e-07	1.891806e-10	1.274539e+00	1.226002e+01
9.300000e-07	2.132739e-07	2.242360e-10	1.405106e+00	1.409272e+01
9.400000e-07	2.329946e-07	2.599600e-10	1.535031e+00	1.592212e+01
9.500000e-07	2.525791e-07	2.863289e-10	1.664059e+00	1.774767e+01
9.600000e-07	2.720579e-07	3.081242e-10	1.792390e+00	1.956880e+01
9.700000e-07	2.913582e-07	3.367393e-10	1.919546e+00	2.138495e+01
9.800000e-07	3.105134e-07	3.699040e-10	2.045745e+00	2.319557e+01
9.900000e-07	3.295705e-07	3.967145e-10	2.171299e+00	2.500007e+01
1.000000e-06	3.485003e-07	4.171385e-10	2.296014e+00	2.679789e+01
1.010000e-06	3.672888e-07	4.412129e-10	2.419797e+00	2.858843e+01
1.020000e-06	3.859039e-07	4.740382e-10	2.542438e+00	3.037111e+01
1.030000e-06	4.044203e-07	5.067507e-10	2.664429e+00	3.214534e+01
1.040000e-06	4.228819e-07	5.325216e-10	2.786059e+00	3.391053e+01
1.050000e-06	4.412240e-07	5.549566e-10	2.906902e+00	3.566606e+01
1.060000e-06	4.594588e-07	5.818246e-10	3.027038e+00	3.741134e+01
1.070000e-06	4.775733e-07	6.145354e-10	3.146381e+00	3.914575e+01
1.080000e-06	4.955907e-07	6.433997e-10	3.265085e+00	4.086868e+01
1.090000e-06	5.135473e-07	6.634826e-10	3.383387e+00	4.257950e+01
1.100000e-06	5.313633e-07	6.836642e-10	3.500764e+00	4.427759e+01
1.110000e-06	5.490188e-07	7.109020e-10	3.617083e+00	4.596233e+01
1.120000e-06	5.664940e-07	7.412502e-10	3.732214e+00	4.763307e+01
1.130000e-06	5.838075e-07	7.666935e-10	3.846280e+00	4.928919e+01
1.140000e-06	6.009353e-07	7.882666e-10	3.959123e+00	5.093005e+01
1.150000e-06	6.177580e-07	8.140101e-10	4.069955e+00	5.255501e+01
1.160000e-06	6.342267e-07	8.423908e-10	4.178456e+00	5.416341e+01
1.170000e-06	6.502644e-07	8.664111e-10	4.284117e+00	5.575463e+01
1.180000e-06	6.658920e-07	8.843696e-10	4.387075e+00	5.732800e+01
1.190000e-06	6.811938e-07	9.018345e-10	4.487888e+00	5.888289e+01
1.200000e-06	6.961982e-07	9.252761e-10	4.586741e+00	6.041865e+01
1.210000e-06	7.109801e-07	9.533179e-10	4.684128e+00	6.193463e+01
1.220000e-06	7.255647e-07	9.771938e-10	4.780215e+00	6.343018e+01
1.230000e-06	7.398984e-07	9.948187e-10	4.874649e+00	6.490465e+01
1.240000e-06	7.539609e-07	1.015051e-09	4.967297e+00	6.635741e+01
1.250000e-06	7.677517e-07	1.041566e-09	5.058154e+00	6.778782e+01
1.260000e-06	7.812339e-07	1.067395e-09	5.146978e+00	6.919522e+01
1.270000e-06	7.943770e-07	1.085170e-09	5.233569e+00	7.057900e+01
1.280000e-06	8.072084e-07	1.098748e-09	5.318105e+00	7.193851e+01
1.290000e-06	8.197907e-07	1.118747e-09	5.401001e+00	7.327313e+01
1.300000e-06	8.321407e-07	1.143389e-09	5.482366e+00	7.458225e+01
1.310000e-06	8.442268e-07	1.162345e-09	5.561993e+00	7.586525e+01
1.320000e-06	8.560133e-07	1.175326e-09	5.639645e+00	7.712152e+01
1.330000e-06	8.674125e-07	1.191625e-09	5.714746e+00	7.835046e+01
1.340000e-06	8.782926e-07	1.214549e-09	5.786428e+00	7.955149e+01
1.350000e-06	8.885948e-07	1.235992e-09	5.854301e+00	8.072402e+01
1.360000e-06	8.983886e-07	1.249476e-09	5.918826e+00	8.186747e+01
1.370000e-06	9.077197e-07	1.259535e-09	5.980301e+00	8.298129e+01
1.380000e-06	9.166866e-07	1.274429e-09	6.039377e+00	8.406493e+01
1.390000e-06	9.254176e-07	1.292806e-09	6.096900e+00	8.511785e+01
1.400000e-06	9.339566e-07	1.308387e-09	6.153157e+00	8.613951e+01
1.410000e-06	9.423105e-07	1.319115e-09	6.208194e+00	8.712942e+01
1.420000e-06	9.504153e-07	1.330274e-09	6.261591e+00	8.808706e+01
1.430000e-06	9.582152e-07	1.347654e-09	6.312979e+00	8.901195e+01
1.440000e-06	9.657017e-07	1.365993e-09	6.362302e+00	8.990363e+01
1.450000e-06	9.728445e-07	1.378290e-09	6.409361e+00	9.076164e+01
1.460000e-06	9.796281e-07	1.385851e-09	6.454053e+00	9.158553e+01
1.470000e-06	9.860883e-07	1.395560e-09	6.496615e+00	9.237489e+01
1.480000e-06	9.922599e-07	1.409133e-09	6.537275e+00	9.312932e+01
1.490000e-06	9.980521e-07	1.420329e-09	6.575435e+00	9.384843e+01
1.500000e-06	1.003404e-06	1.426536e-09	6.610696e+00	9.453184e+01
1.510000e-06	1.008415e-06	1.432658e-09	6.643708e+00	9.517922e+01
1.520000e-06	1.013195e-06	1.443807e-09	6.675201e+00	9.579023e+01
1.530000e-06	1.017814e-06	1.458370e-09	6.705634e+00	9.636455e+01
1.540000e-06	1.022253e-06	1.469957e-09	6.734875e+00	9.690192e+01
1.550000e-06	1.026402e-06	1.476262e-09	6.762213e+00	9.740204e+01
1.560000e-06	1.030165e-06	1.480782e-09	6.787005e+00	9.786468e+01
1.570000e-06	1.033439e-06	1.486247e-09	6.808571e+00	9.828961e+01
1.580000e-06	1.036164e-06	1.492108e-09	6.826528e+00	9.867662e+01
1.590000e-06	1.038328e-06	1.496077e-09	6.840780e+00	9.902553e+01
1.600000e-06	1.039910e-06	1.496980e-09	6.851207e+00	9.933618e+01
1.610000e-06	1.041045e-06	1.499209e-09	6.858682e+00	9.960842e+01
1.620000e-06	1.041895e-06	1.505420e-09	6.864283e+00	9.984215e+01
1.630000e-06	1.042482e-06	1.510921e-09	6.868149e+00	1.000373e+02
1.640000e-06	1.042844e-06	1.513710e-09	6.870534e+00	1.001937e+02
1.650000e-06	1.042983e-06	1.517354e-09	6.871450e+00	1.003114e+02
1.660000e-06	1.042745e-06	1.523163e-09	6.869883e+00	1.003903e+02
1.670000e-06	1.042037e-06	1.531791e-09	6.865217e+00	1.004304e+02
1.680000e-06	1.040958e-06	1.530043e-09	6.858108e+00	1.004318e+02
1.690000e-06	1.039629e-06	1.521850e-09	6.849352e+00	1.003945e+02
1.700000e-06	1.038002e-06	1.511298e-09	6.838634e+00	1.003185e+02
1.710000e-06	1.036021e-06	1.485189e-09	6.825586e+00	1.002040e+02
1.720000e-06	1.033653e-06	1.468302e-09	6.809984e+00	1.000510e+02
1.730000e-06	1.030913e-06	1.464178e-09	6.791930e+00	9.985963e+01
1.740000e-06	1.027871e-06	1.506737e-09	6.771889e+00	9.963009e+01
1.750000e-06	1.024585e-06	1.556274e-09	6.750238e+00	9.936253e+01
1.760000e-06	1.021124e-06	1.559674e-09	6.727437e+00	9.905714e+01
1.770000e-06	1.017465e-06	1.532288e-09	6.703335e+00	9.871412e+01
1.780000e-06	1.013512e-06	1.489333e-09	6.677288e+00	9.833371e+01
1.790000e-06	1.009102e-06	1.481816e-09	6.648238e+00	9.791615e+01
1.800000e-06	1.004128e-06	1.483795e-09	6.615465e+00	9.746171e+01
1.810000e-06	9.985218e-07	1.461486e-09	6.578529e+00	9.697067e+01
1.820000e-06	9.923232e-07	1.428177e-09	6.537692e+00	9.644335e+01
1.830000e-06	9.857042e-07	1.429295e-09	6.494084e+00	9.588006e+01
1.840000e-06	9.787240e-07	1.460095e-09	6.448096e+00	9.528113e+01
1.850000e-06	9.714514e-07	1.476277e-09	6.400183e+00	9.464693e+01
1.860000e-06	9.639590e-07	1.453669e-09	6.350821e+00	9.397782e+01
1.870000e-06	9.562132e-07	1.411605e-09	6.299789e+00	9.327419e+01
1.880000e-06	9.481530e-07	1.389651e-09	6.246687e+00	9.253644e+01
1.890000e-06	9.397621e-07	1.393415e-09	6.191405e+00	9.176497e+01
1.900000e-06	9.310202e-07	1.399401e-09	6.133811e+00	9.096023e+01
1.910000e-06	9.219565e-07	1.383793e-09	6.074097e+00	9.012264e+01
1.920000e-06	9.126234e-07	1.354751e-09	6.012608e+00	8.925266e+01
1.930000e-06	9.030467e-07	1.341197e-09	5.949514e+00	8.835075e+01
1.940000e-06	8.931872e-07	1.348481e-09	5.884557e+00	8.741738e+01
1.950000e-06	8.829992e-07	1.337042e-09	5.817435e+00	8.645305e+01
1.960000e-06	8.725059e-07	1.296863e-09	5.748303e+00	8.545823e+01
1.970000e-06	8.616776e-07	1.271727e-09	5.676963e+00	8.443344e+01
1.980000e-06	8.504723e-07	1.282976e-09	5.603140e+00	8.337918e+01
1.990000e-06	8.389300e-07	1.284905e-09	5.527096e+00	8.229597e+01
2.000000e-06	8.271326e-07	1.248224e-09	5.449372e+00	8.118433e+01
2.010000e-06	8.150626e-07	1.204129e-09	5.369851e+00	8.004480e+01
2.020000e-06	8.025920e-07	1.190268e-09	5.287691e+00	7.887791e+01
2.030000e-06	7.896706e-07	1.191126e-09	5.202562e+00	7.768420e+01
2.040000e-06	7.762918e-07	1.175500e-09	5.114419e+00	7.646422e+01
2.050000e-06	7.623649e-07	1.146394e-09	5.022665e+00	7.521851e+01
2.060000e-06	7.479487e-07	1.122730e-09	4.927687e+00	7.394764e+01
2.070000e-06	7.331808e-07	1.114205e-09	4.830392e+00	7.265214e+01
2.080000e-06	7.181512e-07	1.106545e-09	4.731373e+00	7.133259e+01
2.090000e-06	7.029282e-07	1.077899e-09	4.631080e+00	6.998955e+01
2.100000e-06	6.875925e-07	1.034246e-09	4.530044e+00	6.862356e+01
2.110000e-06	6.721955e-07	1.008886e-09	4.428604e+00	6.723520e+01
2.120000e-06	6.566706e-07	1.007641e-09	4.326322e+00	6.582502e+01
2.130000e-06	6.409574e-07	9.962694e-10	4.222800e+00	6.439359e+01
2.140000e-06	6.250590e-07	9.607580e-10	4.118057e+00	6.294148e+01
2.150000e-06	6.089033e-07	9.281096e-10	4.011618e+00	6.146923e+01
2.160000e-06	5.924950e-07	9.149615e-10	3.903516e+00	5.997741e+01
2.170000e-06	5.758465e-07	9.022953e-10	3.793832e+00	5.846658e+01
2.180000e-06	5.589440e-07	8.723137e-10	3.682473e+00	5.693730e+01
2.190000e-06	5.418698e-07	8.326894e-10	3.569984e+00	5.539012e+01
2.200000e-06	5.246563e-07	8.052481e-10	3.456577e+00	5.382559e+01
2.210000e-06	5.073125e-07	7.942920e-10	3.342311e+00	5.224427e+01
2.220000e-06	4.898368e-07	7.792178e-10	3.227176e+00	5.064670e+01
2.230000e-06	4.722459e-07	7.459385e-10	3.111283e+00	4.903344e+01
2.240000e-06	4.545300e-07	7.097124e-10	2.994566e+00	4.740501e+01
2.250000e-06	4.366398e-07	6.897162e-10	2.876700e+00	4.576197e+01
2.260000e-06	4.185831e-07	6.764425e-10	2.757738e+00	4.410485e+01
2.270000e-06	4.003439e-07	6.500948e-10	2.637573e+00	4.243419e+01
2.280000e-06	3.819079e-07	6.121694e-10	2.516112e+00	4.075052e+01
2.290000e-06	3.632859e-07	5.806810e-10	2.393425e+00	3.905436e+01
2.300000e-06	3.444884e-07	5.635182e-10	2.269582e+00	3.734625e+01
2.310000e-06	3.255863e-07	5.471621e-10	2.145050e+00	3.562672e+01
2.320000e-06	3.066280e-07	5.159096e-10	2.020147e+00	3.389628e+01
2.330000e-06	2.875859e-07	4.776172e-10	1.894693e+00	3.215545e+01
2.340000e-06	2.684369e-07	4.516697e-10	1.768535e+00	3.040475e+01
2.350000e-06	2.492090e-07	4.365713e-10	1.641856e+00	2.864470e+01
2.360000e-06	2.299269e-07	4.136392e-10	1.514820e+00	2.687581e+01
2.370000e-06	2.106258e-07	3.774440e-10	1.387659e+00	2.509860e+01
2.380000e-06	1.913115e-07	3.446308e-10	1.260411e+00	2.331357e+01
2.390000e-06	1.719888e-07	3.240113e-10	1.133108e+00	2.152123e+01
2.400000e-06	1.526585e-07	3.038853e-10	1.005755e+00	1.972210e+01
2.410000e-06	1.333006e-07	2.728889e-10	8.782204e-01	1.791668e+01
2.420000e-06	1.139227e-07	2.360798e-10	7.505531e-01	1.610547e+01
2.430000e-06	9.452803e-08	2.088648e-10	6.227760e-01	1.428900e+01
2.440000e-06	7.512469e-08	1.920726e-10	4.949416e-01	1.246777e+01
2.450000e-06	5.571667e-08	1.711816e-10	3.670764e-01	1.064227e+01
2.460000e-06	3.630557e-08	1.384185e-10	2.391909e-01	8.813037e+00
2.470000e-06	1.689502e-08	1.039381e-10	1.113089e-01	6.980567e+00
2.480000e-06	-2.526727e-09	7.875498e-11	-1.664676e-02	5.145374e+00
2.490000e-06	-2.193692e-08	5.844422e-11	-1.445263e-01	3.307973e+00
2.500000e-06	-4.131566e-08	3.156588e-11	-2.721986e-01	1.468879e+00
2.510000e-06	-6.067838e-08	-1.278265e-12	-3.997655e-01	-3.713884e-01
2.520000e-06	-8.005538e-08	-2.922255e-11	-5.274263e-01	-2.212309e+00
2.530000e-06	-9.944386e-08	-5.012481e-11	-6.551628e-01	-4.053359e+00
2.540000e-06	-1.188276e-07	-7.299610e-11	-7.828680e-01	-5.894012e+00
2.550000e-06	-1.382109e-07	-1.037866e-10	-9.105706e-01	-7.733737e+00
2.560000e-06	-1.575815e-07	-1.363111e-10	-1.038189e+00	-9.572000e+00
2.570000e-06	-1.769363e-07	-1.621083e-10	-1.165704e+00	-1.140826e+01
2.580000e-06	-1.962742e-07	-1.835737e-10	-1.293107e+00	-1.324199e+01
2.590000e-06	-2.155784e-07	-2.099300e-10	-1.420288e+00	-1.507262e+01
2.600000e-06	-2.348319e-07	-2.428830e-10	-1.547136e+00	-1.689962e+01
2.610000e-06	-2.540329e-07	-2.737239e-10	-1.673637e+00	-1.872242e+01
2.620000e-06	-2.731906e-07	-2.973329e-10	-1.799853e+00	-2.054048e+01
2.630000e-06	-2.923007e-07	-3.208290e-10	-1.925756e+00	-2.235321e+01
2.640000e-06	-3.113208e-07	-3.500051e-10	-2.051065e+00	-2.416005e+01
2.650000e-06	-3.302687e-07	-3.815418e-10	-2.175899e+00	-2.596044e+01
2.660000e-06	-3.491185e-07	-4.076401e-10	-2.300086e+00	-2.775378e+01
2.670000e-06	-3.678010e-07	-4.291872e-10	-2.423172e+00	-2.953949e+01
2.680000e-06	-3.863151e-07	-4.555602e-10	-2.545147e+00	-3.131699e+01
2.690000e-06	-4.046532e-07	-4.885895e-10	-2.665964e+00	-3.308567e+01
2.700000e-06	-4.227723e-07	-5.205306e-10	-2.785338e+00	-3.484494e+01
2.710000e-06	-4.406971e-07	-5.465653e-10	-2.903431e+00	-3.659419e+01
2.720000e-06	-4.584492e-07	-5.705308e-10	-3.020386e+00	-3.833282e+01
2.730000e-06	-4.760466e-07	-5.974865e-10	-3.136323e+00	-4.006020e+01
2.740000e-06	-4.935569e-07	-6.268407e-10	-3.251685e+00	-4.177573e+01
2.750000e-06	-5.109815e-07	-6.531859e-10	-3.366483e+00	-4.347877e+01
2.760000e-06	-5.282885e-07	-6.763314e-10	-3.480506e+00	-4.516870e+01
2.770000e-06	-5.454114e-07	-7.015939e-10	-3.593317e+00	-4.684489e+01
2.780000e-06	-5.623502e-07	-7.321436e-10	-3.704914e+00	-4.850671e+01
2.790000e-06	-5.791115e-07	-7.621060e-10	-3.815342e+00	-5.015351e+01
2.800000e-06	-5.956640e-07	-7.857022e-10	-3.924394e+00	-5.178466e+01
2.810000e-06	-6.119478e-07	-8.066690e-10	-4.031676e+00	-5.339952e+01
2.820000e-06	-6.279581e-07	-8.304198e-10	-4.137156e+00	-5.499744e+01
2.830000e-06	-6.437590e-07	-8.567965e-10	-4.241257e+00	-5.657777e+01
2.840000e-06	-6.594061e-07	-8.811503e-10	-4.344344e+00	-5.813987e+01
2.850000e-06	-6.749333e-07	-9.028700e-10	-4.446642e+00	-5.968310e+01
2.860000e-06	-6.903117e-07	-9.266361e-10	-4.547959e+00	-6.120679e+01
2.870000e-06	-7.055507e-07	-9.546479e-10	-4.648358e+00	-6.271032e+01
2.880000e-06	-7.206404e-07	-9.826691e-10	-4.747772e+00	-6.419302e+01
2.890000e-06	-7.354461e-07	-1.005156e-09	-4.845316e+00	-6.565426e+01
2.900000e-06	-7.499166e-07	-1.022802e-09	-4.940652e+00	-6.709340e+01
2.910000e-06	-7.639888e-07	-1.043298e-09	-5.033363e+00	-6.850979e+01
2.920000e-06	-7.775110e-07	-1.070052e-09	-5.122451e+00	-6.990279e+01
2.930000e-06	-7.905291e-07	-1.095374e-09	-5.208218e+00	-7.127179e+01
2.940000e-06	-8.031028e-07	-1.114707e-09	-5.291057e+00	-7.261614e+01
