# Temperatura_=_20.0
# Concentracion g/m^3_=_10000.0
# C_Vs_to_Am_M_A/Vsm_=_65563218390.804596
# pendiente_HvsI_1/m_=_3716.3
# ordenada_HvsI_A/m_=_1297.0
# frecuencia_Hz_=_302194.607147698

Tiempo_(s)	Campo_(V.s)	Magnetizacion_(V.s)	Campo_(kA/m)	Magnetizacion_(A/m)
0.000000e+00	-1.341295e-06	-2.195898e-09	-8.728937e+00	-1.426062e+02
1.000000e-08	-1.341024e-06	-2.194207e-09	-8.727176e+00	-1.427970e+02
2.000000e-08	-1.340439e-06	-2.191445e-09	-8.723366e+00	-1.428888e+02
3.000000e-08	-1.339443e-06	-2.189049e-09	-8.716885e+00	-1.428703e+02
4.000000e-08	-1.337842e-06	-2.183450e-09	-8.706464e+00	-1.427477e+02
5.000000e-08	-1.335466e-06	-2.214338e-09	-8.691003e+00	-1.425547e+02
6.000000e-08	-1.332288e-06	-2.238979e-09	-8.670319e+00	-1.423463e+02
7.000000e-08	-1.328440e-06	-2.143613e-09	-8.645281e+00	-1.421710e+02
8.000000e-08	-1.324242e-06	-2.141517e-09	-8.617959e+00	-1.420382e+02
9.000000e-08	-1.319817e-06	-2.239213e-09	-8.589164e+00	-1.419028e+02
1.000000e-07	-1.315044e-06	-2.248299e-09	-8.558097e+00	-1.416825e+02
1.100000e-07	-1.309848e-06	-2.101112e-09	-8.524288e+00	-1.413026e+02
1.200000e-07	-1.304227e-06	-2.075119e-09	-8.487702e+00	-1.407393e+02
1.300000e-07	-1.298086e-06	-2.191041e-09	-8.447741e+00	-1.400376e+02
1.400000e-07	-1.291473e-06	-2.188019e-09	-8.404705e+00	-1.392864e+02
1.500000e-07	-1.284470e-06	-2.097913e-09	-8.359128e+00	-1.385696e+02
1.600000e-07	-1.276985e-06	-2.077949e-09	-8.310420e+00	-1.379205e+02
1.700000e-07	-1.269072e-06	-2.134028e-09	-8.258918e+00	-1.373083e+02
1.800000e-07	-1.260881e-06	-2.096086e-09	-8.205613e+00	-1.366637e+02
1.900000e-07	-1.252431e-06	-2.061561e-09	-8.150621e+00	-1.359226e+02
2.000000e-07	-1.243576e-06	-2.094658e-09	-8.092994e+00	-1.350618e+02
2.100000e-07	-1.233938e-06	-2.078434e-09	-8.030274e+00	-1.341028e+02
2.200000e-07	-1.223443e-06	-1.970025e-09	-7.961974e+00	-1.330885e+02
2.300000e-07	-1.212457e-06	-1.988853e-09	-7.890481e+00	-1.320501e+02
2.400000e-07	-1.201055e-06	-2.086785e-09	-7.816274e+00	-1.309892e+02
2.500000e-07	-1.189060e-06	-2.022448e-09	-7.738212e+00	-1.298851e+02
2.600000e-07	-1.176564e-06	-1.874741e-09	-7.656893e+00	-1.287181e+02
2.700000e-07	-1.163731e-06	-1.912950e-09	-7.573381e+00	-1.274889e+02
2.800000e-07	-1.150460e-06	-2.015884e-09	-7.487015e+00	-1.262207e+02
2.900000e-07	-1.136716e-06	-1.940713e-09	-7.397570e+00	-1.249417e+02
3.000000e-07	-1.122595e-06	-1.824177e-09	-7.305668e+00	-1.236633e+02
3.100000e-07	-1.108107e-06	-1.846823e-09	-7.211386e+00	-1.223695e+02
3.200000e-07	-1.093110e-06	-1.888205e-09	-7.113790e+00	-1.210258e+02
3.300000e-07	-1.077500e-06	-1.834389e-09	-7.012202e+00	-1.196010e+02
3.400000e-07	-1.061299e-06	-1.794830e-09	-6.906768e+00	-1.180873e+02
3.500000e-07	-1.044458e-06	-1.772473e-09	-6.797165e+00	-1.165058e+02
3.600000e-07	-1.027117e-06	-1.724902e-09	-6.684313e+00	-1.148953e+02
3.700000e-07	-1.009561e-06	-1.721168e-09	-6.570065e+00	-1.132912e+02
3.800000e-07	-9.918105e-07	-1.753900e-09	-6.454546e+00	-1.117083e+02
3.900000e-07	-9.737875e-07	-1.687962e-09	-6.337256e+00	-1.101337e+02
4.000000e-07	-9.554858e-07	-1.590262e-09	-6.218151e+00	-1.085339e+02
4.100000e-07	-9.368769e-07	-1.614597e-09	-6.097047e+00	-1.068687e+02
4.200000e-07	-9.178869e-07	-1.657784e-09	-5.973463e+00	-1.051068e+02
4.300000e-07	-8.984382e-07	-1.585793e-09	-5.846895e+00	-1.032376e+02
4.400000e-07	-8.786562e-07	-1.493975e-09	-5.718156e+00	-1.012756e+02
4.500000e-07	-8.586534e-07	-1.492102e-09	-5.587981e+00	-9.925722e+01
4.600000e-07	-8.384567e-07	-1.506859e-09	-5.456544e+00	-9.722870e+01
4.700000e-07	-8.181502e-07	-1.473855e-09	-5.324393e+00	-9.522835e+01
4.800000e-07	-7.977379e-07	-1.413207e-09	-5.191552e+00	-9.327005e+01
4.900000e-07	-7.771524e-07	-1.363734e-09	-5.057585e+00	-9.133590e+01
5.000000e-07	-7.562741e-07	-1.347021e-09	-4.921712e+00	-8.938375e+01
5.100000e-07	-7.350747e-07	-1.349575e-09	-4.783751e+00	-8.736788e+01
5.200000e-07	-7.135562e-07	-1.317069e-09	-4.643711e+00	-8.526273e+01
5.300000e-07	-6.917411e-07	-1.245032e-09	-4.501742e+00	-8.307651e+01
5.400000e-07	-6.697026e-07	-1.201731e-09	-4.358319e+00	-8.084633e+01
5.500000e-07	-6.474765e-07	-1.202459e-09	-4.213675e+00	-7.861735e+01
5.600000e-07	-6.250634e-07	-1.189292e-09	-4.067814e+00	-7.641814e+01
5.700000e-07	-6.024603e-07	-1.128780e-09	-3.920717e+00	-7.424687e+01
5.800000e-07	-5.796319e-07	-1.066944e-09	-3.772153e+00	-7.207611e+01
5.900000e-07	-5.565973e-07	-1.046320e-09	-3.622247e+00	-6.987181e+01
6.000000e-07	-5.333214e-07	-1.044189e-09	-3.470772e+00	-6.761390e+01
6.100000e-07	-5.098564e-07	-1.008597e-09	-3.318065e+00	-6.530562e+01
6.200000e-07	-4.862283e-07	-9.426962e-10	-3.164297e+00	-6.296750e+01
6.300000e-07	-4.623438e-07	-8.972260e-10	-3.008861e+00	-6.062191e+01
6.400000e-07	-4.383153e-07	-8.860205e-10	-2.852487e+00	-5.827985e+01
6.500000e-07	-4.141757e-07	-8.688969e-10	-2.695390e+00	-5.593814e+01
6.600000e-07	-3.899335e-07	-8.159908e-10	-2.537626e+00	-5.358724e+01
6.700000e-07	-3.656415e-07	-7.543856e-10	-2.379537e+00	-5.122211e+01
6.800000e-07	-3.413304e-07	-7.221503e-10	-2.221325e+00	-4.884740e+01
6.900000e-07	-3.169865e-07	-7.125889e-10	-2.062898e+00	-4.647374e+01
7.000000e-07	-2.925308e-07	-6.815419e-10	-1.903744e+00	-4.410850e+01
7.100000e-07	-2.680316e-07	-6.220948e-10	-1.744307e+00	-4.174855e+01
7.200000e-07	-2.434979e-07	-5.731495e-10	-1.584646e+00	-3.938045e+01
7.300000e-07	-2.188507e-07	-5.526373e-10	-1.424246e+00	-3.698746e+01
7.400000e-07	-1.941015e-07	-5.322386e-10	-1.263182e+00	-3.455855e+01
7.500000e-07	-1.692655e-07	-4.859234e-10	-1.101553e+00	-3.209335e+01
7.600000e-07	-1.444223e-07	-4.276221e-10	-9.398779e-01	-2.960081e+01
7.700000e-07	-1.195118e-07	-3.878751e-10	-7.777638e-01	-2.709347e+01
7.800000e-07	-9.449445e-08	-3.674295e-10	-6.149550e-01	-2.458149e+01
7.900000e-07	-6.947341e-08	-3.358006e-10	-4.521220e-01	-2.206944e+01
8.000000e-07	-4.441493e-08	-2.815269e-10	-2.890453e-01	-1.955615e+01
8.100000e-07	-1.931529e-08	-2.285727e-10	-1.257009e-01	-1.703631e+01
8.200000e-07	5.776461e-09	-1.986961e-10	3.759230e-02	-1.450258e+01
8.300000e-07	3.081530e-08	-1.759208e-10	2.005411e-01	-1.194828e+01
8.400000e-07	5.586474e-08	-1.329804e-10	3.635589e-01	-9.370940e+00
8.500000e-07	8.093456e-08	-7.613078e-11	5.267094e-01	-6.775683e+00
8.600000e-07	1.058898e-07	-3.304378e-11	6.891141e-01	-4.175935e+00
8.700000e-07	1.307722e-07	-7.264646e-12	8.510449e-01	-1.589258e+00
8.800000e-07	1.556466e-07	2.548750e-11	1.012923e+00	9.712284e-01
8.900000e-07	1.804769e-07	7.638314e-11	1.174515e+00	3.505546e+00
9.000000e-07	2.052121e-07	1.265038e-10	1.335488e+00	6.029826e+00
9.100000e-07	2.298536e-07	1.599141e-10	1.495851e+00	8.570123e+00
9.200000e-07	2.544126e-07	1.847448e-10	1.655677e+00	1.114921e+01
9.300000e-07	2.789153e-07	2.226169e-10	1.815137e+00	1.377350e+01
9.400000e-07	3.034035e-07	2.745501e-10	1.974502e+00	1.642825e+01
9.500000e-07	3.278335e-07	3.198527e-10	2.133489e+00	1.908440e+01
9.600000e-07	3.521650e-07	3.500897e-10	2.291834e+00	2.171382e+01
9.700000e-07	3.764463e-07	3.815958e-10	2.449854e+00	2.430397e+01
9.800000e-07	4.006879e-07	4.284206e-10	2.607614e+00	2.686382e+01
9.900000e-07	4.248028e-07	4.783978e-10	2.764550e+00	2.941774e+01
1.000000e-06	4.487604e-07	5.146593e-10	2.920462e+00	3.199167e+01
1.010000e-06	4.725788e-07	5.425397e-10	3.075468e+00	3.459966e+01
1.020000e-06	4.962780e-07	5.799549e-10	3.229699e+00	3.723827e+01
1.030000e-06	5.197726e-07	6.290802e-10	3.382599e+00	3.989074e+01
1.040000e-06	5.429893e-07	6.739824e-10	3.533689e+00	4.253728e+01
1.050000e-06	5.659735e-07	7.063362e-10	3.683266e+00	4.516483e+01
1.060000e-06	5.886969e-07	7.368888e-10	3.831147e+00	4.777085e+01
1.070000e-06	6.112382e-07	7.792582e-10	3.977842e+00	5.036026e+01
1.080000e-06	6.336411e-07	8.269207e-10	4.123637e+00	5.293837e+01
1.090000e-06	6.558735e-07	8.666257e-10	4.268322e+00	5.550514e+01
1.100000e-06	6.779456e-07	8.973311e-10	4.411963e+00	5.805429e+01
1.110000e-06	6.998010e-07	9.321427e-10	4.554195e+00	6.057788e+01
1.120000e-06	7.213570e-07	9.749440e-10	4.694478e+00	6.307319e+01
1.130000e-06	7.425898e-07	1.015089e-09	4.832658e+00	6.554727e+01
1.140000e-06	7.635498e-07	1.046927e-09	4.969062e+00	6.801513e+01
1.150000e-06	7.842433e-07	1.078436e-09	5.103732e+00	7.049146e+01
1.160000e-06	8.047251e-07	1.118054e-09	5.237024e+00	7.297972e+01
1.170000e-06	8.250943e-07	1.160495e-09	5.369584e+00	7.546522e+01
1.180000e-06	8.453575e-07	1.197805e-09	5.501453e+00	7.791795e+01
1.190000e-06	8.654775e-07	1.228618e-09	5.632391e+00	8.030579e+01
1.200000e-06	8.853471e-07	1.260500e-09	5.761700e+00	8.261212e+01
1.210000e-06	9.048572e-07	1.296774e-09	5.888668e+00	8.484770e+01
1.220000e-06	9.239718e-07	1.332645e-09	6.013063e+00	8.704821e+01
1.230000e-06	9.426841e-07	1.361836e-09	6.134840e+00	8.925658e+01
1.240000e-06	9.610319e-07	1.389704e-09	6.254244e+00	9.149883e+01
1.250000e-06	9.790298e-07	1.422745e-09	6.371372e+00	9.376726e+01
1.260000e-06	9.967187e-07	1.460215e-09	6.486488e+00	9.602196e+01
1.270000e-06	1.014175e-06	1.494838e-09	6.600092e+00	9.821066e+01
1.280000e-06	1.031351e-06	1.523959e-09	6.711873e+00	1.002956e+02
1.290000e-06	1.048187e-06	1.551696e-09	6.821433e+00	1.022714e+02
1.300000e-06	1.064558e-06	1.581668e-09	6.927975e+00	1.041636e+02
1.310000e-06	1.080322e-06	1.612021e-09	7.030565e+00	1.060098e+02
1.320000e-06	1.095515e-06	1.637598e-09	7.129436e+00	1.078374e+02
1.330000e-06	1.110276e-06	1.660739e-09	7.225498e+00	1.096518e+02
1.340000e-06	1.124676e-06	1.686101e-09	7.319217e+00	1.114420e+02
1.350000e-06	1.138669e-06	1.715944e-09	7.410277e+00	1.131951e+02
1.360000e-06	1.152216e-06	1.744754e-09	7.498438e+00	1.149078e+02
1.370000e-06	1.165282e-06	1.767260e-09	7.583472e+00	1.165845e+02
1.380000e-06	1.177913e-06	1.787206e-09	7.665669e+00	1.182248e+02
1.390000e-06	1.190181e-06	1.812083e-09	7.745511e+00	1.198135e+02
1.400000e-06	1.202089e-06	1.839038e-09	7.823009e+00	1.213246e+02
1.410000e-06	1.213555e-06	1.860096e-09	7.897622e+00	1.227416e+02
1.420000e-06	1.224314e-06	1.875952e-09	7.967640e+00	1.240778e+02
1.430000e-06	1.234255e-06	1.894180e-09	8.032337e+00	1.253800e+02
1.440000e-06	1.243573e-06	1.917829e-09	8.092980e+00	1.267055e+02
1.450000e-06	1.252405e-06	1.940862e-09	8.150453e+00	1.280836e+02
1.460000e-06	1.260864e-06	1.958792e-09	8.205503e+00	1.294864e+02
1.470000e-06	1.269049e-06	1.974974e-09	8.258772e+00	1.308330e+02
1.480000e-06	1.276919e-06	1.994160e-09	8.309987e+00	1.320285e+02
1.490000e-06	1.284378e-06	2.012571e-09	8.358528e+00	1.330192e+02
1.500000e-06	1.291407e-06	2.025699e-09	8.404276e+00	1.338279e+02
1.510000e-06	1.297978e-06	2.034046e-09	8.447033e+00	1.345456e+02
1.520000e-06	1.304062e-06	2.042967e-09	8.486628e+00	1.352832e+02
1.530000e-06	1.309670e-06	2.056326e-09	8.523126e+00	1.361102e+02
1.540000e-06	1.314787e-06	2.070770e-09	8.556428e+00	1.370180e+02
1.550000e-06	1.319501e-06	2.081706e-09	8.587106e+00	1.379301e+02
1.560000e-06	1.323908e-06	2.089422e-09	8.615786e+00	1.387495e+02
1.570000e-06	1.328071e-06	2.099482e-09	8.642879e+00	1.394136e+02
1.580000e-06	1.331855e-06	2.111396e-09	8.667506e+00	1.399238e+02
1.590000e-06	1.335036e-06	2.119130e-09	8.688204e+00	1.403339e+02
1.600000e-06	1.337513e-06	2.121897e-09	8.704325e+00	1.407129e+02
1.610000e-06	1.339213e-06	2.125522e-09	8.715390e+00	1.411058e+02
1.620000e-06	1.340271e-06	2.134830e-09	8.722276e+00	1.415179e+02
1.630000e-06	1.340938e-06	2.145542e-09	8.726612e+00	1.419248e+02
1.640000e-06	1.341334e-06	2.150676e-09	8.729192e+00	1.422941e+02
1.650000e-06	1.341397e-06	2.149053e-09	8.729600e+00	1.426014e+02
1.660000e-06	1.340981e-06	2.150263e-09	8.726893e+00	1.428303e+02
1.670000e-06	1.340062e-06	2.160548e-09	8.720910e+00	1.429666e+02
1.680000e-06	1.338688e-06	2.169769e-09	8.711971e+00	1.429963e+02
1.690000e-06	1.336958e-06	2.171836e-09	8.700712e+00	1.429161e+02
1.700000e-06	1.334827e-06	2.138194e-09	8.686847e+00	1.427476e+02
1.710000e-06	1.332109e-06	2.116530e-09	8.669154e+00	1.425389e+02
1.720000e-06	1.328872e-06	2.186648e-09	8.648088e+00	1.423456e+02
1.730000e-06	1.325377e-06	2.162397e-09	8.625346e+00	1.421972e+02
1.740000e-06	1.321667e-06	2.081730e-09	8.601203e+00	1.420718e+02
1.750000e-06	1.317513e-06	2.111617e-09	8.574167e+00	1.418989e+02
1.760000e-06	1.312666e-06	2.215839e-09	8.542620e+00	1.415943e+02
1.770000e-06	1.307228e-06	2.177114e-09	8.507232e+00	1.411082e+02
1.780000e-06	1.301356e-06	2.072430e-09	8.469023e+00	1.404567e+02
1.790000e-06	1.294808e-06	2.088009e-09	8.426404e+00	1.397151e+02
1.800000e-06	1.287596e-06	2.150544e-09	8.379474e+00	1.389761e+02
1.810000e-06	1.280058e-06	2.117070e-09	8.330416e+00	1.382984e+02
1.820000e-06	1.272309e-06	2.049938e-09	8.279988e+00	1.376778e+02
1.830000e-06	1.264111e-06	2.076854e-09	8.226633e+00	1.370566e+02
1.840000e-06	1.255271e-06	2.080970e-09	8.169104e+00	1.363628e+02
1.850000e-06	1.246020e-06	2.029450e-09	8.108899e+00	1.355532e+02
1.860000e-06	1.236512e-06	2.030998e-09	8.047023e+00	1.346317e+02
1.870000e-06	1.226563e-06	2.090585e-09	7.982278e+00	1.336362e+02
1.880000e-06	1.216043e-06	2.014765e-09	7.913814e+00	1.326063e+02
1.890000e-06	1.205129e-06	1.911599e-09	7.842788e+00	1.315569e+02
1.900000e-06	1.193889e-06	1.976054e-09	7.769644e+00	1.304747e+02
1.910000e-06	1.182135e-06	2.067868e-09	7.693148e+00	1.293362e+02
1.920000e-06	1.169872e-06	1.946774e-09	7.613341e+00	1.281322e+02
1.930000e-06	1.157264e-06	1.824103e-09	7.531292e+00	1.268772e+02
1.940000e-06	1.144099e-06	1.917359e-09	7.445618e+00	1.256002e+02
1.950000e-06	1.130041e-06	1.983759e-09	7.354131e+00	1.243222e+02
1.960000e-06	1.115232e-06	1.857607e-09	7.257753e+00	1.230388e+02
1.970000e-06	1.100037e-06	1.782751e-09	7.158866e+00	1.217213e+02
1.980000e-06	1.084597e-06	1.855077e-09	7.058384e+00	1.203342e+02
1.990000e-06	1.068948e-06	1.849455e-09	6.956546e+00	1.188578e+02
2.000000e-06	1.053088e-06	1.775630e-09	6.853332e+00	1.173014e+02
2.010000e-06	1.036839e-06	1.772849e-09	6.747582e+00	1.156985e+02
2.020000e-06	1.020139e-06	1.752131e-09	6.638902e+00	1.140886e+02
2.030000e-06	1.003057e-06	1.676895e-09	6.527737e+00	1.124969e+02
2.040000e-06	9.856507e-07	1.690351e-09	6.414459e+00	1.109221e+02
2.050000e-06	9.679357e-07	1.724156e-09	6.299173e+00	1.093383e+02
2.060000e-06	9.499339e-07	1.632241e-09	6.182020e+00	1.077060e+02
2.070000e-06	9.316179e-07	1.559495e-09	6.062822e+00	1.059885e+02
2.080000e-06	9.129235e-07	1.610735e-09	5.941162e+00	1.041652e+02
2.090000e-06	8.938934e-07	1.617581e-09	5.817318e+00	1.022398e+02
2.100000e-06	8.746013e-07	1.521005e-09	5.691767e+00	1.002404e+02
2.110000e-06	8.551247e-07	1.464088e-09	5.565017e+00	9.821088e+01
2.120000e-06	8.355230e-07	1.470186e-09	5.437452e+00	9.619525e+01
2.130000e-06	8.158142e-07	1.461795e-09	5.309191e+00	9.421950e+01
2.140000e-06	7.959256e-07	1.426171e-09	5.179759e+00	9.227934e+01
2.150000e-06	7.758218e-07	1.376777e-09	5.048926e+00	9.034110e+01
2.160000e-06	7.553160e-07	1.335191e-09	4.915477e+00	8.835756e+01
2.170000e-06	7.342164e-07	1.324698e-09	4.778165e+00	8.629199e+01
2.180000e-06	7.126126e-07	1.313049e-09	4.637571e+00	8.413754e+01
2.190000e-06	6.906596e-07	1.261362e-09	4.494704e+00	8.192078e+01
2.200000e-06	6.682825e-07	1.203639e-09	4.349077e+00	7.968656e+01
2.210000e-06	6.454507e-07	1.173578e-09	4.200491e+00	7.747317e+01
2.220000e-06	6.223716e-07	1.163640e-09	4.050296e+00	7.529235e+01
2.230000e-06	5.991064e-07	1.142807e-09	3.898890e+00	7.312592e+01
2.240000e-06	5.756933e-07	1.088090e-09	3.746522e+00	7.093989e+01
2.250000e-06	5.521923e-07	1.031678e-09	3.593580e+00	6.870617e+01
2.260000e-06	5.286086e-07	1.016643e-09	3.440101e+00	6.641791e+01
2.270000e-06	5.049521e-07	1.008047e-09	3.286149e+00	6.408980e+01
2.280000e-06	4.812229e-07	9.567146e-10	3.131723e+00	6.174544e+01
2.290000e-06	4.573580e-07	8.948665e-10	2.976414e+00	5.940174e+01
2.300000e-06	4.333277e-07	8.629482e-10	2.820028e+00	5.706117e+01
2.310000e-06	4.091134e-07	8.502095e-10	2.662446e+00	5.471554e+01
2.320000e-06	3.847467e-07	8.247929e-10	2.503871e+00	5.235675e+01
2.330000e-06	3.603084e-07	7.715019e-10	2.344830e+00	4.998525e+01
2.340000e-06	3.357284e-07	7.150540e-10	2.184867e+00	4.761006e+01
2.350000e-06	3.109211e-07	6.895160e-10	2.023426e+00	4.524112e+01
2.360000e-06	2.859490e-07	6.758044e-10	1.860911e+00	4.288029e+01
2.370000e-06	2.609299e-07	6.331647e-10	1.698091e+00	4.051799e+01
2.380000e-06	2.358524e-07	5.770797e-10	1.534890e+00	3.813776e+01
2.390000e-06	2.106638e-07	5.421831e-10	1.370967e+00	3.572518e+01
2.400000e-06	1.853989e-07	5.235505e-10	1.206547e+00	3.327512e+01
2.410000e-06	1.600833e-07	4.955670e-10	1.041797e+00	3.079305e+01
2.420000e-06	1.347103e-07	4.468257e-10	8.766731e-01	2.829080e+01
2.430000e-06	1.092815e-07	3.927612e-10	7.111868e-01	2.578012e+01
2.440000e-06	8.380502e-08	3.585397e-10	5.453898e-01	2.326817e+01
2.450000e-06	5.834678e-08	3.380458e-10	3.797117e-01	2.075610e+01
2.460000e-06	3.292141e-08	3.019115e-10	2.142473e-01	1.824014e+01
2.470000e-06	7.473424e-09	2.487770e-10	4.863586e-02	1.571352e+01
2.480000e-06	-1.800346e-08	2.046460e-10	-1.171637e-01	1.316890e+01
2.490000e-06	-4.349633e-08	1.795023e-10	-2.830673e-01	1.060155e+01
2.500000e-06	-6.899410e-08	1.520013e-10	-4.490027e-01	8.013014e+00
2.510000e-06	-9.445878e-08	1.035533e-10	-6.147229e-01	5.413356e+00
2.520000e-06	-1.198706e-07	4.896943e-11	-7.800989e-01	2.819220e+00
2.530000e-06	-1.452906e-07	1.408279e-11	-9.455281e-01	2.468221e-01
2.540000e-06	-1.706740e-07	-6.920937e-12	-1.110720e+00	-2.297404e+00
2.550000e-06	-1.960044e-07	-4.113645e-11	-1.275566e+00	-4.822890e+00
2.560000e-06	-2.212602e-07	-9.185871e-11	-1.439926e+00	-7.352766e+00
2.570000e-06	-2.463991e-07	-1.392376e-10	-1.603527e+00	-9.913017e+00
2.580000e-06	-2.714660e-07	-1.710202e-10	-1.766658e+00	-1.251830e+01
2.590000e-06	-2.964472e-07	-2.008880e-10	-1.929231e+00	-1.516277e+01
2.600000e-06	-3.212320e-07	-2.464544e-10	-2.090527e+00	-1.782198e+01
2.610000e-06	-3.457889e-07	-2.999334e-10	-2.250339e+00	-2.046533e+01
2.620000e-06	-3.701841e-07	-3.387709e-10	-2.409100e+00	-2.307222e+01
2.630000e-06	-3.944859e-07	-3.629424e-10	-2.567252e+00	-2.564247e+01
2.640000e-06	-4.186229e-07	-3.966094e-10	-2.724332e+00	-2.819526e+01
2.650000e-06	-4.425806e-07	-4.472526e-10	-2.880245e+00	-3.075772e+01
2.660000e-06	-4.664258e-07	-4.964570e-10	-3.035425e+00	-3.335027e+01
2.670000e-06	-4.901558e-07	-5.310591e-10	-3.189857e+00	-3.597700e+01
2.680000e-06	-5.138071e-07	-5.622533e-10	-3.343776e+00	-3.862581e+01
2.690000e-06	-5.373727e-07	-6.054707e-10	-3.497137e+00	-4.127681e+01
2.700000e-06	-5.608812e-07	-6.568247e-10	-3.650127e+00	-4.391319e+01
2.710000e-06	-5.843251e-07	-6.975781e-10	-3.802695e+00	-4.652789e+01
2.720000e-06	-6.076634e-07	-7.256764e-10	-3.954578e+00	-4.912339e+01
2.730000e-06	-6.308185e-07	-7.605112e-10	-4.105268e+00	-5.170571e+01
2.740000e-06	-6.536741e-07	-8.094800e-10	-4.254008e+00	-5.427757e+01
2.750000e-06	-6.762009e-07	-8.584560e-10	-4.400609e+00	-5.683506e+01
2.760000e-06	-6.984042e-07	-8.936441e-10	-4.545105e+00	-5.937016e+01
2.770000e-06	-7.201809e-07	-9.227863e-10	-4.686824e+00	-6.187711e+01
2.780000e-06	-7.414366e-07	-9.617382e-10	-4.825153e+00	-6.435855e+01
2.790000e-06	-7.622367e-07	-1.008838e-09	-4.960517e+00	-6.682677e+01
2.800000e-06	-7.826232e-07	-1.048637e-09	-5.093189e+00	-6.929792e+01
2.810000e-06	-8.026790e-07	-1.078265e-09	-5.223708e+00	-7.178152e+01
2.820000e-06	-8.225091e-07	-1.112402e-09	-5.352760e+00	-7.427095e+01
2.830000e-06	-8.421532e-07	-1.158375e-09	-5.480601e+00	-7.674170e+01
2.840000e-06	-8.616705e-07	-1.204790e-09	-5.607616e+00	-7.916044e+01
2.850000e-06	-8.810403e-07	-1.238541e-09	-5.733672e+00	-8.150187e+01
2.860000e-06	-9.001993e-07	-1.264614e-09	-5.858355e+00	-8.376437e+01
2.870000e-06	-9.190027e-07	-1.297708e-09	-5.980725e+00	-8.597429e+01
2.880000e-06	-9.374157e-07	-1.339942e-09	-6.100554e+00	-8.817435e+01
2.890000e-06	-9.554994e-07	-1.378866e-09	-6.218240e+00	-9.040063e+01
2.900000e-06	-9.732227e-07	-1.408951e-09	-6.333580e+00	-9.266089e+01
2.910000e-06	-9.906640e-07	-1.439343e-09	-6.447085e+00	-9.492753e+01
2.920000e-06	-1.007894e-06	-1.479026e-09	-6.559213e+00	-9.715034e+01
2.930000e-06	-1.024749e-06	-1.520216e-09	-6.668906e+00	-9.928227e+01
2.940000e-06	-1.041159e-06	-1.551008e-09	-6.775698e+00	-1.013030e+02
