# Temperatura_=_20.0
# Concentracion g/m^3_=_10000.0
# C_Vs_to_Am_M_A/Vsm_=_65563218390.804596
# pendiente_HvsI_1/m_=_3716.3
# ordenada_HvsI_A/m_=_1297.0
# frecuencia_Hz_=_302189.83459336124

Tiempo_(s)	Campo_(V.s)	Magnetizacion_(V.s)	Campo_(kA/m)	Magnetizacion_(A/m)
0.000000e+00	-1.341270e-06	-2.200104e-09	-8.725921e+00	-1.429724e+02
1.000000e-08	-1.340995e-06	-2.200129e-09	-8.724131e+00	-1.432162e+02
2.000000e-08	-1.340456e-06	-2.196386e-09	-8.720629e+00	-1.433703e+02
3.000000e-08	-1.339538e-06	-2.196901e-09	-8.714654e+00	-1.434014e+02
4.000000e-08	-1.338063e-06	-2.197953e-09	-8.705058e+00	-1.432884e+02
5.000000e-08	-1.335843e-06	-2.181571e-09	-8.690617e+00	-1.430451e+02
6.000000e-08	-1.332816e-06	-2.215690e-09	-8.670921e+00	-1.427294e+02
7.000000e-08	-1.329097e-06	-2.226296e-09	-8.646725e+00	-1.424247e+02
8.000000e-08	-1.324933e-06	-2.131496e-09	-8.619639e+00	-1.421977e+02
9.000000e-08	-1.320523e-06	-2.164887e-09	-8.590946e+00	-1.420565e+02
1.000000e-07	-1.315870e-06	-2.238825e-09	-8.560677e+00	-1.419384e+02
1.100000e-07	-1.310803e-06	-2.219574e-09	-8.527712e+00	-1.417363e+02
1.200000e-07	-1.305256e-06	-2.086008e-09	-8.491623e+00	-1.413539e+02
1.300000e-07	-1.299304e-06	-2.116608e-09	-8.452906e+00	-1.407553e+02
1.400000e-07	-1.292878e-06	-2.203836e-09	-8.411097e+00	-1.399814e+02
1.500000e-07	-1.285925e-06	-2.158653e-09	-8.365864e+00	-1.391251e+02
1.600000e-07	-1.278527e-06	-2.085464e-09	-8.317734e+00	-1.382825e+02
1.700000e-07	-1.270719e-06	-2.086575e-09	-8.266937e+00	-1.375095e+02
1.800000e-07	-1.262511e-06	-2.134833e-09	-8.213540e+00	-1.368062e+02
1.900000e-07	-1.254013e-06	-2.076561e-09	-8.158254e+00	-1.361310e+02
2.000000e-07	-1.245240e-06	-2.062007e-09	-8.101177e+00	-1.354284e+02
2.100000e-07	-1.235906e-06	-2.090414e-09	-8.040454e+00	-1.346519e+02
2.200000e-07	-1.225679e-06	-2.065799e-09	-7.973919e+00	-1.337704e+02
2.300000e-07	-1.214714e-06	-1.970339e-09	-7.902587e+00	-1.327657e+02
2.400000e-07	-1.203321e-06	-2.012354e-09	-7.828463e+00	-1.316321e+02
2.500000e-07	-1.191445e-06	-2.070940e-09	-7.751203e+00	-1.303839e+02
2.600000e-07	-1.179069e-06	-1.978126e-09	-7.670690e+00	-1.290635e+02
2.700000e-07	-1.166299e-06	-1.871939e-09	-7.587612e+00	-1.277380e+02
2.800000e-07	-1.153136e-06	-1.939599e-09	-7.501976e+00	-1.264755e+02
2.900000e-07	-1.139525e-06	-2.000012e-09	-7.413424e+00	-1.253098e+02
3.000000e-07	-1.125468e-06	-1.897137e-09	-7.321975e+00	-1.242151e+02
3.100000e-07	-1.110999e-06	-1.824331e-09	-7.227844e+00	-1.231084e+02
3.200000e-07	-1.096088e-06	-1.867570e-09	-7.130840e+00	-1.218858e+02
3.300000e-07	-1.080622e-06	-1.879743e-09	-7.030221e+00	-1.204743e+02
3.400000e-07	-1.064484e-06	-1.810638e-09	-6.925228e+00	-1.188697e+02
3.500000e-07	-1.047729e-06	-1.784600e-09	-6.816226e+00	-1.171399e+02
3.600000e-07	-1.030504e-06	-1.761232e-09	-6.704167e+00	-1.153904e+02
3.700000e-07	-1.012967e-06	-1.716930e-09	-6.590073e+00	-1.137116e+02
3.800000e-07	-9.952415e-07	-1.725385e-09	-6.474758e+00	-1.121385e+02
3.900000e-07	-9.772697e-07	-1.737172e-09	-6.357839e+00	-1.106406e+02
4.000000e-07	-9.589969e-07	-1.656286e-09	-6.238961e+00	-1.091440e+02
4.100000e-07	-9.404596e-07	-1.592141e-09	-6.118363e+00	-1.075694e+02
4.200000e-07	-9.216642e-07	-1.633119e-09	-5.996085e+00	-1.058639e+02
4.300000e-07	-9.024716e-07	-1.636586e-09	-5.871224e+00	-1.040146e+02
4.400000e-07	-8.828018e-07	-1.552027e-09	-5.743258e+00	-1.020441e+02
4.500000e-07	-8.628160e-07	-1.493946e-09	-5.613236e+00	-9.999614e+01
4.600000e-07	-8.426749e-07	-1.502400e-09	-5.482204e+00	-9.792167e+01
4.700000e-07	-8.223964e-07	-1.495616e-09	-5.350278e+00	-9.586690e+01
4.800000e-07	-8.019949e-07	-1.451310e-09	-5.217551e+00	-9.386303e+01
4.900000e-07	-7.814625e-07	-1.395169e-09	-5.083973e+00	-9.191581e+01
5.000000e-07	-7.607178e-07	-1.354613e-09	-4.949014e+00	-8.999922e+01
5.100000e-07	-7.395948e-07	-1.346986e-09	-4.811594e+00	-8.805995e+01
5.200000e-07	-7.180687e-07	-1.338523e-09	-4.671551e+00	-8.603596e+01
5.300000e-07	-6.962983e-07	-1.289284e-09	-4.529919e+00	-8.388386e+01
5.400000e-07	-6.743292e-07	-1.223000e-09	-4.386995e+00	-8.160175e+01
5.500000e-07	-6.521687e-07	-1.197322e-09	-4.242825e+00	-7.923379e+01
5.600000e-07	-6.298238e-07	-1.190194e-09	-4.097455e+00	-7.685185e+01
5.700000e-07	-6.072792e-07	-1.155707e-09	-3.950786e+00	-7.452269e+01
5.800000e-07	-5.845038e-07	-1.093713e-09	-3.802616e+00	-7.227786e+01
5.900000e-07	-5.615148e-07	-1.046933e-09	-3.653056e+00	-7.010200e+01
6.000000e-07	-5.383512e-07	-1.034334e-09	-3.502360e+00	-6.794459e+01
6.100000e-07	-5.149916e-07	-1.023126e-09	-3.350389e+00	-6.574667e+01
6.200000e-07	-4.914029e-07	-9.778706e-10	-3.196928e+00	-6.346729e+01
6.300000e-07	-4.675839e-07	-9.156115e-10	-3.041968e+00	-6.109696e+01
6.400000e-07	-4.435967e-07	-8.814562e-10	-2.885914e+00	-5.865497e+01
6.500000e-07	-4.194903e-07	-8.660009e-10	-2.729085e+00	-5.617662e+01
6.600000e-07	-3.952873e-07	-8.323825e-10	-2.571627e+00	-5.369960e+01
6.700000e-07	-3.710128e-07	-7.741695e-10	-2.413704e+00	-5.125533e+01
6.800000e-07	-3.466987e-07	-7.239746e-10	-2.255523e+00	-4.886463e+01
6.900000e-07	-3.223574e-07	-7.028321e-10	-2.097166e+00	-4.653430e+01
7.000000e-07	-2.979260e-07	-6.877196e-10	-1.938222e+00	-4.425269e+01
7.100000e-07	-2.733971e-07	-6.475002e-10	-1.778644e+00	-4.198734e+01
7.200000e-07	-2.488410e-07	-5.911938e-10	-1.618889e+00	-3.969009e+01
7.300000e-07	-2.242423e-07	-5.527916e-10	-1.458857e+00	-3.731217e+01
7.400000e-07	-1.995783e-07	-5.308301e-10	-1.298400e+00	-3.482518e+01
7.500000e-07	-1.748047e-07	-4.980794e-10	-1.137230e+00	-3.223752e+01
7.600000e-07	-1.499491e-07	-4.441324e-10	-9.755260e-01	-2.959575e+01
7.700000e-07	-1.250866e-07	-3.898224e-10	-8.137777e-01	-2.696745e+01
7.800000e-07	-1.001476e-07	-3.585723e-10	-6.515320e-01	-2.441197e+01
7.900000e-07	-7.512673e-08	-3.356982e-10	-4.887531e-01	-2.195339e+01
8.000000e-07	-5.004650e-08	-2.971248e-10	-3.255883e-01	-1.956939e+01
8.100000e-07	-2.501486e-08	-2.437574e-10	-1.627396e-01	-1.720190e+01
8.200000e-07	-1.297231e-11	-1.994854e-10	-8.439415e-05	-1.478420e+01
8.300000e-07	2.503475e-08	-1.728184e-10	1.628690e-01	-1.227095e+01
8.400000e-07	5.010609e-08	-1.415852e-10	3.259760e-01	-9.656950e+00
8.500000e-07	7.517519e-08	-9.129486e-11	4.890684e-01	-6.976957e+00
8.600000e-07	1.001767e-07	-3.740643e-11	6.517213e-01	-4.288298e+00
8.700000e-07	1.251279e-07	-6.669639e-13	8.140467e-01	-1.645848e+00
8.800000e-07	1.499900e-07	2.662770e-11	9.757923e-01	9.192030e-01
8.900000e-07	1.747695e-07	6.481147e-11	1.137001e+00	3.408766e+00
9.000000e-07	1.995252e-07	1.150133e-10	1.298054e+00	5.853760e+00
9.100000e-07	2.242292e-07	1.582094e-10	1.458771e+00	8.300408e+00
9.200000e-07	2.488494e-07	1.867303e-10	1.618943e+00	1.079342e+01
9.300000e-07	2.734066e-07	2.152311e-10	1.778706e+00	1.336190e+01
9.400000e-07	2.978932e-07	2.597126e-10	1.938008e+00	1.601148e+01
9.500000e-07	3.222962e-07	3.127717e-10	2.096768e+00	1.872354e+01
9.600000e-07	3.466602e-07	3.562363e-10	2.255273e+00	2.146098e+01
9.700000e-07	3.709629e-07	3.888466e-10	2.413379e+00	2.417901e+01
9.800000e-07	3.951767e-07	4.263437e-10	2.570907e+00	2.683863e+01
9.900000e-07	4.193179e-07	4.735114e-10	2.727963e+00	2.941972e+01
1.000000e-06	4.433825e-07	5.158928e-10	2.884521e+00	3.192938e+01
1.010000e-06	4.673332e-07	5.465011e-10	3.040337e+00	3.440189e+01
1.020000e-06	4.910854e-07	5.758051e-10	3.194862e+00	3.688854e+01
1.030000e-06	5.146361e-07	6.175117e-10	3.348076e+00	3.943972e+01
1.040000e-06	5.379927e-07	6.679091e-10	3.500027e+00	4.208503e+01
1.050000e-06	5.610471e-07	7.120008e-10	3.650013e+00	4.481949e+01
1.060000e-06	5.838477e-07	7.474886e-10	3.798347e+00	4.760214e+01
1.070000e-06	6.064680e-07	7.830515e-10	3.945509e+00	5.036869e+01
1.080000e-06	6.288742e-07	8.280737e-10	4.091277e+00	5.305436e+01
1.090000e-06	6.511500e-07	8.728858e-10	4.236197e+00	5.561831e+01
1.100000e-06	6.733094e-07	9.059390e-10	4.380359e+00	5.806017e+01
1.110000e-06	6.952125e-07	9.327382e-10	4.522855e+00	6.042194e+01
1.120000e-06	7.168123e-07	9.702078e-10	4.663377e+00	6.277364e+01
1.130000e-06	7.381601e-07	1.016460e-09	4.802260e+00	6.518726e+01
1.140000e-06	7.592125e-07	1.056660e-09	4.939221e+00	6.770804e+01
1.150000e-06	7.799408e-07	1.088895e-09	5.074073e+00	7.033381e+01
1.160000e-06	8.004437e-07	1.122426e-09	5.207459e+00	7.301155e+01
1.170000e-06	8.208199e-07	1.165067e-09	5.340021e+00	7.565444e+01
1.180000e-06	8.411019e-07	1.208553e-09	5.471970e+00	7.817534e+01
1.190000e-06	8.612476e-07	1.244213e-09	5.603033e+00	8.052402e+01
1.200000e-06	8.811740e-07	1.272632e-09	5.732668e+00	8.271216e+01
1.210000e-06	9.007750e-07	1.303173e-09	5.860186e+00	8.481239e+01
1.220000e-06	9.199289e-07	1.338008e-09	5.984796e+00	8.692853e+01
1.230000e-06	9.386521e-07	1.372878e-09	6.106604e+00	8.914832e+01
1.240000e-06	9.570107e-07	1.403023e-09	6.226040e+00	9.150034e+01
1.250000e-06	9.750298e-07	1.433724e-09	6.343267e+00	9.393749e+01
1.260000e-06	9.927642e-07	1.470815e-09	6.458642e+00	9.635721e+01
1.270000e-06	1.010231e-06	1.509728e-09	6.572275e+00	9.864955e+01
1.280000e-06	1.027478e-06	1.541224e-09	6.684482e+00	1.007487e+02
1.290000e-06	1.044440e-06	1.565045e-09	6.794828e+00	1.026610e+02
1.300000e-06	1.060917e-06	1.589411e-09	6.902024e+00	1.044554e+02
1.310000e-06	1.076821e-06	1.618353e-09	7.005491e+00	1.062232e+02
1.320000e-06	1.092191e-06	1.648216e-09	7.105484e+00	1.080320e+02
1.330000e-06	1.107039e-06	1.672902e-09	7.202080e+00	1.098990e+02
1.340000e-06	1.121428e-06	1.697402e-09	7.295694e+00	1.117952e+02
1.350000e-06	1.135475e-06	1.726518e-09	7.387075e+00	1.136729e+02
1.360000e-06	1.149154e-06	1.759014e-09	7.476071e+00	1.154945e+02
1.370000e-06	1.162384e-06	1.787142e-09	7.562138e+00	1.172433e+02
1.380000e-06	1.175161e-06	1.806928e-09	7.645266e+00	1.189142e+02
1.390000e-06	1.187566e-06	1.825883e-09	7.725965e+00	1.204986e+02
1.400000e-06	1.199591e-06	1.849017e-09	7.804196e+00	1.219803e+02
1.410000e-06	1.211130e-06	1.872898e-09	7.879268e+00	1.233502e+02
1.420000e-06	1.222068e-06	1.891412e-09	7.950427e+00	1.246295e+02
1.430000e-06	1.232301e-06	1.908232e-09	8.017001e+00	1.258771e+02
1.440000e-06	1.241829e-06	1.928966e-09	8.078989e+00	1.271686e+02
1.450000e-06	1.250777e-06	1.952511e-09	8.137203e+00	1.285513e+02
1.460000e-06	1.259300e-06	1.973873e-09	8.192651e+00	1.300038e+02
1.470000e-06	1.267547e-06	1.990723e-09	8.246301e+00	1.314298e+02
1.480000e-06	1.275540e-06	2.005802e-09	8.298299e+00	1.326987e+02
1.490000e-06	1.283136e-06	2.021016e-09	8.347718e+00	1.337151e+02
1.500000e-06	1.290191e-06	2.035185e-09	8.393619e+00	1.344763e+02
1.510000e-06	1.296815e-06	2.046028e-09	8.436712e+00	1.350819e+02
1.520000e-06	1.303101e-06	2.055767e-09	8.477608e+00	1.356852e+02
1.530000e-06	1.308898e-06	2.067088e-09	8.515320e+00	1.364132e+02
1.540000e-06	1.314145e-06	2.080740e-09	8.549456e+00	1.373011e+02
1.550000e-06	1.318984e-06	2.094255e-09	8.580936e+00	1.382795e+02
1.560000e-06	1.323483e-06	2.104838e-09	8.610207e+00	1.392176e+02
1.570000e-06	1.327680e-06	2.113917e-09	8.637511e+00	1.399967e+02
1.580000e-06	1.331510e-06	2.123383e-09	8.662424e+00	1.405671e+02
1.590000e-06	1.334782e-06	2.131569e-09	8.683710e+00	1.409616e+02
1.600000e-06	1.337397e-06	2.137789e-09	8.700725e+00	1.412622e+02
1.610000e-06	1.339329e-06	2.142790e-09	8.713293e+00	1.415496e+02
1.620000e-06	1.340600e-06	2.146974e-09	8.721560e+00	1.418666e+02
1.630000e-06	1.341338e-06	2.153250e-09	8.726366e+00	1.422128e+02
1.640000e-06	1.341727e-06	2.160181e-09	8.728897e+00	1.425627e+02
1.650000e-06	1.341835e-06	2.164278e-09	8.729600e+00	1.428877e+02
1.660000e-06	1.341552e-06	2.165633e-09	8.727758e+00	1.431631e+02
1.670000e-06	1.340780e-06	2.170842e-09	8.722733e+00	1.433630e+02
1.680000e-06	1.339553e-06	2.176369e-09	8.714752e+00	1.434552e+02
1.690000e-06	1.337881e-06	2.177570e-09	8.703877e+00	1.434101e+02
1.700000e-06	1.335797e-06	2.185876e-09	8.690314e+00	1.432229e+02
1.710000e-06	1.333247e-06	2.145569e-09	8.673728e+00	1.429313e+02
1.720000e-06	1.330136e-06	2.133393e-09	8.653486e+00	1.426112e+02
1.730000e-06	1.326606e-06	2.201323e-09	8.630519e+00	1.423430e+02
1.740000e-06	1.322855e-06	2.148312e-09	8.606120e+00	1.421658e+02
1.750000e-06	1.318843e-06	2.091871e-09	8.580019e+00	1.420488e+02
1.760000e-06	1.314307e-06	2.147048e-09	8.550510e+00	1.418998e+02
1.770000e-06	1.309018e-06	2.216863e-09	8.516102e+00	1.416103e+02
1.780000e-06	1.303157e-06	2.149898e-09	8.477971e+00	1.411117e+02
1.790000e-06	1.296766e-06	2.072862e-09	8.436392e+00	1.404099e+02
1.800000e-06	1.289662e-06	2.116862e-09	8.390173e+00	1.395789e+02
1.810000e-06	1.282080e-06	2.153422e-09	8.340850e+00	1.387200e+02
1.820000e-06	1.274290e-06	2.094080e-09	8.290170e+00	1.379114e+02
1.830000e-06	1.266236e-06	2.040695e-09	8.237772e+00	1.371792e+02
1.840000e-06	1.257611e-06	2.082779e-09	8.181662e+00	1.364977e+02
1.850000e-06	1.248384e-06	2.076355e-09	8.121631e+00	1.358147e+02
1.860000e-06	1.238858e-06	2.026340e-09	8.059655e+00	1.350775e+02
1.870000e-06	1.229030e-06	2.031403e-09	7.995721e+00	1.342478e+02
1.880000e-06	1.218660e-06	2.077336e-09	7.928253e+00	1.333020e+02
1.890000e-06	1.207765e-06	1.996011e-09	7.857376e+00	1.322280e+02
1.900000e-06	1.196552e-06	1.925117e-09	7.784428e+00	1.310297e+02
1.910000e-06	1.184989e-06	1.992367e-09	7.709202e+00	1.297358e+02
1.920000e-06	1.172846e-06	2.030191e-09	7.630202e+00	1.284037e+02
1.930000e-06	1.160196e-06	1.898033e-09	7.547908e+00	1.271049e+02
1.940000e-06	1.147150e-06	1.830047e-09	7.463030e+00	1.258936e+02
1.950000e-06	1.133342e-06	1.938406e-09	7.373204e+00	1.247735e+02
1.960000e-06	1.118636e-06	1.945590e-09	7.277526e+00	1.236852e+02
1.970000e-06	1.103452e-06	1.818561e-09	7.178747e+00	1.225287e+02
1.980000e-06	1.088041e-06	1.794530e-09	7.078487e+00	1.212103e+02
1.990000e-06	1.072399e-06	1.864490e-09	6.976725e+00	1.196910e+02
2.000000e-06	1.056552e-06	1.815603e-09	6.873624e+00	1.180075e+02
2.010000e-06	1.040465e-06	1.744631e-09	6.768967e+00	1.162539e+02
2.020000e-06	1.023941e-06	1.752951e-09	6.661470e+00	1.145340e+02
2.030000e-06	1.006911e-06	1.719790e-09	6.550676e+00	1.129120e+02
2.040000e-06	9.895340e-07	1.660964e-09	6.437627e+00	1.113867e+02
2.050000e-06	9.718928e-07	1.687842e-09	6.322859e+00	1.099001e+02
2.060000e-06	9.539893e-07	1.689504e-09	6.206384e+00	1.083706e+02
2.070000e-06	9.357346e-07	1.591626e-09	6.087624e+00	1.067300e+02
2.080000e-06	9.171178e-07	1.561500e-09	5.966508e+00	1.049467e+02
2.090000e-06	8.981962e-07	1.603176e-09	5.843409e+00	1.030281e+02
2.100000e-06	8.789722e-07	1.561289e-09	5.718343e+00	1.010100e+02
2.110000e-06	8.595175e-07	1.474758e-09	5.591777e+00	9.894174e+01
2.120000e-06	8.399353e-07	1.450441e-09	5.464380e+00	9.687291e+01
2.130000e-06	8.202127e-07	1.448963e-09	5.336071e+00	9.484306e+01
2.140000e-06	8.003096e-07	1.423917e-09	5.206587e+00	9.287092e+01
2.150000e-06	7.802359e-07	1.389225e-09	5.075993e+00	9.094549e+01
2.160000e-06	7.597935e-07	1.340415e-09	4.943001e+00	8.902466e+01
2.170000e-06	7.388162e-07	1.310921e-09	4.806528e+00	8.704732e+01
2.180000e-06	7.173355e-07	1.307503e-09	4.666781e+00	8.495796e+01
2.190000e-06	6.953955e-07	1.277872e-09	4.524046e+00	8.273348e+01
2.200000e-06	6.730546e-07	1.214883e-09	4.378702e+00	8.039758e+01
2.210000e-06	6.502993e-07	1.172496e-09	4.230663e+00	7.801282e+01
2.220000e-06	6.272241e-07	1.152716e-09	4.080542e+00	7.565269e+01
2.230000e-06	6.039716e-07	1.131532e-09	3.929267e+00	7.336792e+01
2.240000e-06	5.806111e-07	1.098696e-09	3.777291e+00	7.116483e+01
2.250000e-06	5.571438e-07	1.043839e-09	3.624619e+00	6.900651e+01
2.260000e-06	5.335712e-07	1.001385e-09	3.471263e+00	6.683422e+01
2.270000e-06	5.099295e-07	9.919167e-10	3.317456e+00	6.459600e+01
2.280000e-06	4.862086e-07	9.684323e-10	3.163135e+00	6.226714e+01
2.290000e-06	4.623580e-07	9.084743e-10	3.007970e+00	5.985479e+01
2.300000e-06	4.383634e-07	8.600024e-10	2.851868e+00	5.738864e+01
2.310000e-06	4.142552e-07	8.376905e-10	2.695027e+00	5.490671e+01
2.320000e-06	3.899674e-07	8.155269e-10	2.537017e+00	5.244406e+01
2.330000e-06	3.654896e-07	7.767478e-10	2.377771e+00	5.002683e+01
2.340000e-06	3.408827e-07	7.232167e-10	2.217686e+00	4.766883e+01
2.350000e-06	3.161019e-07	6.810500e-10	2.056469e+00	4.536751e+01
2.360000e-06	2.911324e-07	6.639868e-10	1.894025e+00	4.310002e+01
2.370000e-06	2.660929e-07	6.406538e-10	1.731125e+00	4.082421e+01
2.380000e-06	2.410152e-07	5.894511e-10	1.567977e+00	3.848913e+01
2.390000e-06	2.158025e-07	5.419344e-10	1.403950e+00	3.605435e+01
2.400000e-06	1.904922e-07	5.143595e-10	1.239288e+00	3.350989e+01
2.410000e-06	1.651606e-07	4.877056e-10	1.074488e+00	3.088565e+01
2.420000e-06	1.397877e-07	4.469049e-10	9.094189e-01	2.824262e+01
2.430000e-06	1.144083e-07	3.950136e-10	7.443081e-01	2.564783e+01
2.440000e-06	8.899891e-08	3.515673e-10	5.790016e-01	2.314435e+01
2.450000e-06	6.353148e-08	3.270901e-10	4.133177e-01	2.073140e+01
2.460000e-06	3.805863e-08	3.033159e-10	2.475986e-01	1.836489e+01
2.470000e-06	1.259920e-08	2.596727e-10	8.196680e-02	1.597820e+01
2.480000e-06	-1.285990e-08	2.117022e-10	-8.366288e-02	1.351275e+01
2.490000e-06	-3.831735e-08	1.780503e-10	-2.492818e-01	1.094352e+01
2.500000e-06	-6.376435e-08	1.510320e-10	-4.148328e-01	8.287993e+00
2.510000e-06	-8.922031e-08	1.118924e-10	-5.804420e-01	5.595925e+00
2.520000e-06	-1.146316e-07	5.886914e-11	-7.457608e-01	2.926457e+00
2.530000e-06	-1.399959e-07	1.383415e-11	-9.107735e-01	3.237799e-01
2.540000e-06	-1.653254e-07	-1.264353e-11	-1.075560e+00	-2.198376e+00
2.550000e-06	-1.905819e-07	-3.903498e-11	-1.239872e+00	-4.658722e+00
2.560000e-06	-2.157840e-07	-8.274840e-11	-1.403829e+00	-7.098435e+00
2.570000e-06	-2.409333e-07	-1.315538e-10	-1.567443e+00	-9.564955e+00
2.580000e-06	-2.660074e-07	-1.701739e-10	-1.730569e+00	-1.209604e+01
2.590000e-06	-2.909539e-07	-2.004395e-10	-1.892863e+00	-1.470874e+01
2.600000e-06	-3.157294e-07	-2.373787e-10	-2.054046e+00	-1.739535e+01
2.610000e-06	-3.403517e-07	-2.870463e-10	-2.214231e+00	-2.012628e+01
2.620000e-06	-3.648494e-07	-3.337787e-10	-2.373607e+00	-2.285872e+01
2.630000e-06	-3.891914e-07	-3.667449e-10	-2.531968e+00	-2.554925e+01
2.640000e-06	-4.133739e-07	-3.976578e-10	-2.689293e+00	-2.816755e+01
2.650000e-06	-4.374205e-07	-4.420573e-10	-2.845734e+00	-3.070750e+01
2.660000e-06	-4.613349e-07	-4.910812e-10	-3.001314e+00	-3.319143e+01
2.670000e-06	-4.851451e-07	-5.294626e-10	-3.156217e+00	-3.566458e+01
2.680000e-06	-5.088741e-07	-5.601185e-10	-3.310590e+00	-3.818030e+01
2.690000e-06	-5.325026e-07	-5.955927e-10	-3.464310e+00	-4.078010e+01
2.700000e-06	-5.560235e-07	-6.414693e-10	-3.617331e+00	-4.347608e+01
2.710000e-06	-5.794648e-07	-6.884441e-10	-3.769833e+00	-4.624325e+01
2.720000e-06	-6.028108e-07	-7.269018e-10	-3.921716e+00	-4.902577e+01
2.730000e-06	-6.260080e-07	-7.627550e-10	-4.072630e+00	-5.175591e+01
2.740000e-06	-6.489610e-07	-8.069855e-10	-4.221956e+00	-5.437898e+01
2.750000e-06	-6.715856e-07	-8.547344e-10	-4.369145e+00	-5.687458e+01
2.760000e-06	-6.938573e-07	-8.928786e-10	-4.514039e+00	-5.926589e+01
2.770000e-06	-7.157008e-07	-9.197968e-10	-4.656146e+00	-6.161261e+01
2.780000e-06	-7.371220e-07	-9.509387e-10	-4.795507e+00	-6.398947e+01
2.790000e-06	-7.580990e-07	-9.951846e-10	-4.931977e+00	-6.645745e+01
2.800000e-06	-7.786149e-07	-1.042587e-09	-5.065448e+00	-6.903801e+01
2.810000e-06	-7.987961e-07	-1.081009e-09	-5.196741e+00	-7.170087e+01
2.820000e-06	-8.186826e-07	-1.115157e-09	-5.326116e+00	-7.437153e+01
2.830000e-06	-8.383592e-07	-1.156370e-09	-5.454127e+00	-7.695822e+01
2.840000e-06	-8.579135e-07	-1.201106e-09	-5.581342e+00	-7.938935e+01
2.850000e-06	-8.773392e-07	-1.238153e-09	-5.707720e+00	-8.164619e+01
2.860000e-06	-8.965478e-07	-1.264279e-09	-5.832686e+00	-8.377509e+01
2.870000e-06	-9.154655e-07	-1.291671e-09	-5.955759e+00	-8.587065e+01
2.880000e-06	-9.339716e-07	-1.330056e-09	-6.076154e+00	-8.803426e+01
2.890000e-06	-9.520469e-07	-1.373910e-09	-6.193747e+00	-9.032606e+01
2.900000e-06	-9.698336e-07	-1.412269e-09	-6.309462e+00	-9.273383e+01
2.910000e-06	-9.873923e-07	-1.445847e-09	-6.423694e+00	-9.517605e+01
2.920000e-06	-1.004654e-06	-1.481499e-09	-6.535993e+00	-9.753930e+01
2.930000e-06	-1.021507e-06	-1.520309e-09	-6.645633e+00	-9.973183e+01
2.940000e-06	-1.037952e-06	-1.553383e-09	-6.752621e+00	-1.017253e+02
