# Temperatura_=_20.0
# Concentracion g/m^3_=_10000.0
# C_Vs_to_Am_M_A/Vsm_=_65563218390.804596
# pendiente_HvsI_1/m_=_3716.3
# ordenada_HvsI_A/m_=_1297.0
# frecuencia_Hz_=_302192.40520577005

Tiempo_(s)	Campo_(V.s)	Magnetizacion_(V.s)	Campo_(kA/m)	Magnetizacion_(A/m)
0.000000e+00	-1.340968e-06	-2.193148e-09	-8.729028e+00	-1.424763e+02
1.000000e-08	-1.340651e-06	-2.193603e-09	-8.726965e+00	-1.426634e+02
2.000000e-08	-1.340082e-06	-2.190191e-09	-8.723261e+00	-1.427453e+02
3.000000e-08	-1.339189e-06	-2.185110e-09	-8.717451e+00	-1.427093e+02
4.000000e-08	-1.337789e-06	-2.183738e-09	-8.708336e+00	-1.425597e+02
5.000000e-08	-1.335636e-06	-2.191692e-09	-8.694320e+00	-1.423288e+02
6.000000e-08	-1.332553e-06	-2.229840e-09	-8.674252e+00	-1.420741e+02
7.000000e-08	-1.328735e-06	-2.186159e-09	-8.649402e+00	-1.418552e+02
8.000000e-08	-1.324544e-06	-2.121255e-09	-8.622114e+00	-1.416994e+02
9.000000e-08	-1.320126e-06	-2.193873e-09	-8.593355e+00	-1.415780e+02
1.000000e-07	-1.315464e-06	-2.252965e-09	-8.563013e+00	-1.414125e+02
1.100000e-07	-1.310386e-06	-2.164586e-09	-8.529957e+00	-1.411110e+02
1.200000e-07	-1.304821e-06	-2.060801e-09	-8.493734e+00	-1.406169e+02
1.300000e-07	-1.298762e-06	-2.140754e-09	-8.454289e+00	-1.399407e+02
1.400000e-07	-1.292186e-06	-2.201182e-09	-8.411482e+00	-1.391560e+02
1.500000e-07	-1.285173e-06	-2.128784e-09	-8.365832e+00	-1.383605e+02
1.600000e-07	-1.277750e-06	-2.068389e-09	-8.317510e+00	-1.376260e+02
1.700000e-07	-1.269891e-06	-2.100917e-09	-8.266354e+00	-1.369645e+02
1.800000e-07	-1.261653e-06	-2.118512e-09	-8.212729e+00	-1.363293e+02
1.900000e-07	-1.253192e-06	-2.068345e-09	-8.157649e+00	-1.356456e+02
2.000000e-07	-1.244426e-06	-2.075270e-09	-8.100592e+00	-1.348507e+02
2.100000e-07	-1.234974e-06	-2.086017e-09	-8.039064e+00	-1.339210e+02
2.200000e-07	-1.224575e-06	-2.011865e-09	-7.971369e+00	-1.328747e+02
2.300000e-07	-1.213506e-06	-1.958615e-09	-7.899318e+00	-1.317541e+02
2.400000e-07	-1.202046e-06	-2.036891e-09	-7.824718e+00	-1.306025e+02
2.500000e-07	-1.190097e-06	-2.051142e-09	-7.746932e+00	-1.294476e+02
2.600000e-07	-1.177680e-06	-1.919026e-09	-7.666108e+00	-1.282966e+02
2.700000e-07	-1.164936e-06	-1.870991e-09	-7.583148e+00	-1.271402e+02
2.800000e-07	-1.151808e-06	-1.973000e-09	-7.497691e+00	-1.259600e+02
2.900000e-07	-1.138152e-06	-1.983381e-09	-7.408798e+00	-1.247350e+02
3.000000e-07	-1.124010e-06	-1.857535e-09	-7.316743e+00	-1.234481e+02
3.100000e-07	-1.109509e-06	-1.814510e-09	-7.222347e+00	-1.220921e+02
3.200000e-07	-1.094572e-06	-1.864695e-09	-7.125117e+00	-1.206728e+02
3.300000e-07	-1.079015e-06	-1.850506e-09	-7.023844e+00	-1.192065e+02
3.400000e-07	-1.062844e-06	-1.791415e-09	-6.918582e+00	-1.177124e+02
3.500000e-07	-1.046127e-06	-1.767583e-09	-6.809764e+00	-1.162016e+02
3.600000e-07	-1.028927e-06	-1.738472e-09	-6.697802e+00	-1.146726e+02
3.700000e-07	-1.011390e-06	-1.712841e-09	-6.583645e+00	-1.131148e+02
3.800000e-07	-9.936300e-07	-1.736964e-09	-6.468033e+00	-1.115195e+02
3.900000e-07	-9.756267e-07	-1.712922e-09	-6.350841e+00	-1.098881e+02
4.000000e-07	-9.573768e-07	-1.611895e-09	-6.232043e+00	-1.082309e+02
4.100000e-07	-9.389063e-07	-1.580967e-09	-6.111809e+00	-1.065555e+02
4.200000e-07	-9.201851e-07	-1.634088e-09	-5.989944e+00	-1.048531e+02
4.300000e-07	-9.010342e-07	-1.611767e-09	-5.865281e+00	-1.030974e+02
4.400000e-07	-8.813394e-07	-1.516590e-09	-5.737078e+00	-1.012578e+02
4.500000e-07	-8.613306e-07	-1.480279e-09	-5.606831e+00	-9.932309e+01
4.600000e-07	-8.411666e-07	-1.498305e-09	-5.475573e+00	-9.731639e+01
4.700000e-07	-8.208733e-07	-1.484808e-09	-5.343473e+00	-9.528997e+01
4.800000e-07	-8.004748e-07	-1.428655e-09	-5.210690e+00	-9.329782e+01
4.900000e-07	-7.799145e-07	-1.370623e-09	-5.076852e+00	-9.136248e+01
5.000000e-07	-7.591176e-07	-1.340566e-09	-4.941475e+00	-8.945785e+01
5.100000e-07	-7.380422e-07	-1.342865e-09	-4.804285e+00	-8.752121e+01
5.200000e-07	-7.166266e-07	-1.327542e-09	-4.664880e+00	-8.548890e+01
5.300000e-07	-6.948761e-07	-1.265474e-09	-4.523295e+00	-8.333400e+01
5.400000e-07	-6.728540e-07	-1.206497e-09	-4.379942e+00	-8.108227e+01
5.500000e-07	-6.506422e-07	-1.195649e-09	-4.235354e+00	-7.879634e+01
5.600000e-07	-6.282642e-07	-1.190796e-09	-4.089685e+00	-7.653880e+01
5.700000e-07	-6.056746e-07	-1.143311e-09	-3.942638e+00	-7.433796e+01
5.800000e-07	-5.828724e-07	-1.077433e-09	-3.794207e+00	-7.217695e+01
5.900000e-07	-5.598568e-07	-1.041600e-09	-3.644387e+00	-7.001093e+01
6.000000e-07	-5.366406e-07	-1.037576e-09	-3.493262e+00	-6.779812e+01
6.100000e-07	-5.132550e-07	-1.017663e-09	-3.341033e+00	-6.552357e+01
6.200000e-07	-4.896673e-07	-9.599911e-10	-3.187489e+00	-6.320139e+01
6.300000e-07	-4.658208e-07	-9.011992e-10	-3.032260e+00	-6.085752e+01
6.400000e-07	-4.418132e-07	-8.784188e-10	-2.875983e+00	-5.850827e+01
6.500000e-07	-4.176992e-07	-8.677960e-10	-2.719012e+00	-5.615054e+01
6.600000e-07	-3.934647e-07	-8.278706e-10	-2.561258e+00	-5.376949e+01
6.700000e-07	-3.691585e-07	-7.647456e-10	-2.403036e+00	-5.135558e+01
6.800000e-07	-3.448136e-07	-7.186970e-10	-2.244564e+00	-4.891679e+01
6.900000e-07	-3.204223e-07	-7.030907e-10	-2.085789e+00	-4.647615e+01
7.000000e-07	-2.959713e-07	-6.831169e-10	-1.926625e+00	-4.405649e+01
7.100000e-07	-2.714968e-07	-6.334627e-10	-1.767308e+00	-4.166370e+01
7.200000e-07	-2.469561e-07	-5.758717e-10	-1.607561e+00	-3.928083e+01
7.300000e-07	-2.222888e-07	-5.433674e-10	-1.446988e+00	-3.687714e+01
7.400000e-07	-1.975193e-07	-5.255889e-10	-1.285751e+00	-3.442626e+01
7.500000e-07	-1.726917e-07	-4.900047e-10	-1.124137e+00	-3.192150e+01
7.600000e-07	-1.478659e-07	-4.337501e-10	-9.625332e-01	-2.937945e+01
7.700000e-07	-1.229799e-07	-3.842262e-10	-8.005376e-01	-2.683054e+01
7.800000e-07	-9.797743e-08	-3.585050e-10	-6.377840e-01	-2.430314e+01
7.900000e-07	-7.293433e-08	-3.340581e-10	-4.747659e-01	-2.181036e+01
8.000000e-07	-4.790648e-08	-2.890704e-10	-3.118472e-01	-1.934560e+01
8.100000e-07	-2.286843e-08	-2.332358e-10	-1.488620e-01	-1.688759e+01
8.200000e-07	2.214664e-09	-1.938026e-10	1.441636e-02	-1.441106e+01
8.300000e-07	2.726417e-08	-1.711918e-10	1.774761e-01	-1.189804e+01
8.400000e-07	5.226895e-08	-1.376322e-10	3.402447e-01	-9.345467e+00
8.500000e-07	7.726456e-08	-8.469529e-11	5.029535e-01	-6.766694e+00
8.600000e-07	1.022873e-07	-3.374428e-11	6.658390e-01	-4.186298e+00
8.700000e-07	1.272664e-07	-2.550943e-12	8.284404e-01	-1.629420e+00
8.800000e-07	1.521175e-07	2.507732e-11	9.902085e-01	8.905322e-01
8.900000e-07	1.768989e-07	6.858785e-11	1.151523e+00	3.380158e+00
9.000000e-07	2.015892e-07	1.205579e-10	1.312244e+00	5.865232e+00
9.100000e-07	2.262300e-07	1.604304e-10	1.472644e+00	8.379568e+00
9.200000e-07	2.508714e-07	1.869913e-10	1.633047e+00	1.094825e+01
9.300000e-07	2.754540e-07	2.196491e-10	1.793067e+00	1.357401e+01
9.400000e-07	2.999207e-07	2.694287e-10	1.952333e+00	1.623475e+01
9.500000e-07	3.242958e-07	3.213704e-10	2.111003e+00	1.889413e+01
9.600000e-07	3.486408e-07	3.579135e-10	2.269477e+00	2.151956e+01
9.700000e-07	3.729548e-07	3.865736e-10	2.427749e+00	2.409724e+01
9.800000e-07	3.972038e-07	4.248741e-10	2.585598e+00	2.663623e+01
9.900000e-07	4.213638e-07	4.731542e-10	2.742867e+00	2.916041e+01
1.000000e-06	4.453987e-07	5.138389e-10	2.899322e+00	3.169463e+01
1.010000e-06	4.692776e-07	5.429425e-10	3.054762e+00	3.425381e+01
1.020000e-06	4.930129e-07	5.756059e-10	3.209267e+00	3.684053e+01
1.030000e-06	5.165644e-07	6.219383e-10	3.362575e+00	3.944969e+01
1.040000e-06	5.398338e-07	6.712092e-10	3.514047e+00	4.207434e+01
1.050000e-06	5.628381e-07	7.081981e-10	3.663794e+00	4.470761e+01
1.060000e-06	5.856537e-07	7.391536e-10	3.812312e+00	4.733985e+01
1.070000e-06	6.082712e-07	7.764487e-10	3.959540e+00	4.995567e+01
1.080000e-06	6.306832e-07	8.224155e-10	4.105432e+00	5.253555e+01
1.090000e-06	6.529312e-07	8.643654e-10	4.250255e+00	5.506353e+01
1.100000e-06	6.750077e-07	8.957839e-10	4.393962e+00	5.753677e+01
1.110000e-06	6.968651e-07	9.269915e-10	4.536242e+00	5.997043e+01
1.120000e-06	7.184381e-07	9.677894e-10	4.676672e+00	6.239333e+01
1.130000e-06	7.397039e-07	1.011301e-09	4.815102e+00	6.483596e+01
1.140000e-06	7.607293e-07	1.045894e-09	4.951966e+00	6.731662e+01
1.150000e-06	7.814824e-07	1.076052e-09	5.087058e+00	6.983289e+01
1.160000e-06	8.019807e-07	1.112073e-09	5.220492e+00	7.236221e+01
1.170000e-06	8.223565e-07	1.155315e-09	5.353129e+00	7.487053e+01
1.180000e-06	8.426224e-07	1.195532e-09	5.485049e+00	7.732472e+01
1.190000e-06	8.627139e-07	1.227913e-09	5.615835e+00	7.970409e+01
1.200000e-06	8.825710e-07	1.258247e-09	5.745095e+00	8.200735e+01
1.210000e-06	9.021127e-07	1.292728e-09	5.872301e+00	8.425348e+01
1.220000e-06	9.212702e-07	1.328013e-09	5.997007e+00	8.647548e+01
1.230000e-06	9.400100e-07	1.359119e-09	6.118994e+00	8.870780e+01
1.240000e-06	9.583527e-07	1.387304e-09	6.238396e+00	9.097075e+01
1.250000e-06	9.763898e-07	1.419447e-09	6.355808e+00	9.325798e+01
1.260000e-06	9.941075e-07	1.457746e-09	6.471142e+00	9.553428e+01
1.270000e-06	1.011570e-06	1.494577e-09	6.584814e+00	9.774723e+01
1.280000e-06	1.028827e-06	1.523827e-09	6.697145e+00	9.984939e+01
1.290000e-06	1.045771e-06	1.549007e-09	6.807445e+00	1.018208e+02
1.300000e-06	1.062205e-06	1.576634e-09	6.914425e+00	1.036792e+02
1.310000e-06	1.077995e-06	1.605460e-09	7.017207e+00	1.054726e+02
1.320000e-06	1.093244e-06	1.630875e-09	7.116468e+00	1.072562e+02
1.330000e-06	1.108013e-06	1.652859e-09	7.212612e+00	1.090673e+02
1.340000e-06	1.122379e-06	1.678397e-09	7.306124e+00	1.109104e+02
1.350000e-06	1.136386e-06	1.710180e-09	7.397303e+00	1.127600e+02
1.360000e-06	1.149966e-06	1.742135e-09	7.485704e+00	1.145750e+02
1.370000e-06	1.163123e-06	1.767614e-09	7.571347e+00	1.163175e+02
1.380000e-06	1.175893e-06	1.787431e-09	7.654474e+00	1.179632e+02
1.390000e-06	1.188285e-06	1.809162e-09	7.735140e+00	1.195053e+02
1.400000e-06	1.200288e-06	1.832890e-09	7.813276e+00	1.209523e+02
1.410000e-06	1.211788e-06	1.853325e-09	7.888131e+00	1.223268e+02
1.420000e-06	1.222665e-06	1.871458e-09	7.958935e+00	1.236643e+02
1.430000e-06	1.232837e-06	1.891803e-09	8.025149e+00	1.250066e+02
1.440000e-06	1.242300e-06	1.915030e-09	8.086748e+00	1.263870e+02
1.450000e-06	1.251180e-06	1.937231e-09	8.144552e+00	1.278095e+02
1.460000e-06	1.259672e-06	1.955643e-09	8.199830e+00	1.292356e+02
1.470000e-06	1.267894e-06	1.971921e-09	8.253353e+00	1.305905e+02
1.480000e-06	1.275786e-06	1.988825e-09	8.304728e+00	1.317931e+02
1.490000e-06	1.283293e-06	2.005553e-09	8.353594e+00	1.327968e+02
1.500000e-06	1.290341e-06	2.019204e-09	8.399470e+00	1.336191e+02
1.510000e-06	1.296919e-06	2.029885e-09	8.442290e+00	1.343383e+02
1.520000e-06	1.303088e-06	2.040816e-09	8.482447e+00	1.350571e+02
1.530000e-06	1.308793e-06	2.053846e-09	8.519587e+00	1.358503e+02
1.540000e-06	1.314016e-06	2.066981e-09	8.553584e+00	1.367275e+02
1.550000e-06	1.318823e-06	2.077953e-09	8.584877e+00	1.376317e+02
1.560000e-06	1.323319e-06	2.086820e-09	8.614143e+00	1.384740e+02
1.570000e-06	1.327549e-06	2.096887e-09	8.641676e+00	1.391835e+02
1.580000e-06	1.331372e-06	2.108849e-09	8.666564e+00	1.397412e+02
1.590000e-06	1.334624e-06	2.117658e-09	8.687734e+00	1.401820e+02
1.600000e-06	1.337160e-06	2.122438e-09	8.704238e+00	1.405670e+02
1.610000e-06	1.338934e-06	2.127959e-09	8.715791e+00	1.409472e+02
1.620000e-06	1.340032e-06	2.137136e-09	8.722939e+00	1.413411e+02
1.630000e-06	1.340657e-06	2.146040e-09	8.727005e+00	1.417354e+02
1.640000e-06	1.341002e-06	2.150476e-09	8.729252e+00	1.421012e+02
1.650000e-06	1.341056e-06	2.151473e-09	8.729600e+00	1.424102e+02
1.660000e-06	1.340733e-06	2.153388e-09	8.727501e+00	1.426404e+02
1.670000e-06	1.339922e-06	2.161393e-09	8.722222e+00	1.427733e+02
1.680000e-06	1.338637e-06	2.170124e-09	8.713854e+00	1.427929e+02
1.690000e-06	1.336951e-06	2.167686e-09	8.702878e+00	1.426941e+02
1.700000e-06	1.334837e-06	2.154958e-09	8.689118e+00	1.424951e+02
1.710000e-06	1.332218e-06	2.119765e-09	8.672068e+00	1.422435e+02
1.720000e-06	1.329085e-06	2.149868e-09	8.651676e+00	1.420020e+02
1.730000e-06	1.325597e-06	2.179898e-09	8.628975e+00	1.418169e+02
1.740000e-06	1.321891e-06	2.108148e-09	8.604847e+00	1.416869e+02
1.750000e-06	1.317836e-06	2.082726e-09	8.578453e+00	1.415537e+02
1.760000e-06	1.313104e-06	2.177433e-09	8.547651e+00	1.413258e+02
1.770000e-06	1.307682e-06	2.203550e-09	8.512357e+00	1.409244e+02
1.780000e-06	1.301833e-06	2.103759e-09	8.474278e+00	1.403269e+02
1.790000e-06	1.295471e-06	2.061600e-09	8.432864e+00	1.395808e+02
1.800000e-06	1.288405e-06	2.126577e-09	8.386870e+00	1.387789e+02
1.810000e-06	1.280867e-06	2.139931e-09	8.337800e+00	1.380107e+02
1.820000e-06	1.273106e-06	2.063898e-09	8.287282e+00	1.373180e+02
1.830000e-06	1.264971e-06	2.043286e-09	8.234330e+00	1.366793e+02
1.840000e-06	1.256255e-06	2.074218e-09	8.177592e+00	1.360276e+02
1.850000e-06	1.247039e-06	2.046783e-09	8.117596e+00	1.352902e+02
1.860000e-06	1.237532e-06	2.014716e-09	8.055713e+00	1.344232e+02
1.870000e-06	1.227639e-06	2.056707e-09	7.991317e+00	1.334268e+02
1.880000e-06	1.217208e-06	2.049806e-09	7.923417e+00	1.323350e+02
1.890000e-06	1.206324e-06	1.942638e-09	7.852567e+00	1.311933e+02
1.900000e-06	1.195111e-06	1.925426e-09	7.779572e+00	1.300379e+02
1.910000e-06	1.183449e-06	2.026815e-09	7.703657e+00	1.288855e+02
1.920000e-06	1.171274e-06	1.997369e-09	7.624410e+00	1.277337e+02
1.930000e-06	1.158744e-06	1.848253e-09	7.542840e+00	1.265673e+02
1.940000e-06	1.145677e-06	1.847356e-09	7.457785e+00	1.253656e+02
1.950000e-06	1.131779e-06	1.958309e-09	7.367311e+00	1.241092e+02
1.960000e-06	1.117078e-06	1.906910e-09	7.271618e+00	1.227855e+02
1.970000e-06	1.101923e-06	1.782173e-09	7.172967e+00	1.213942e+02
1.980000e-06	1.086555e-06	1.802544e-09	7.072931e+00	1.199474e+02
1.990000e-06	1.070945e-06	1.851373e-09	6.971314e+00	1.184642e+02
2.000000e-06	1.055087e-06	1.788060e-09	6.868089e+00	1.169607e+02
2.010000e-06	1.038969e-06	1.741297e-09	6.763167e+00	1.154413e+02
2.020000e-06	1.022409e-06	1.745615e-09	6.655373e+00	1.138984e+02
2.030000e-06	1.005318e-06	1.694255e-09	6.544116e+00	1.123212e+02
2.040000e-06	9.878890e-07	1.662193e-09	6.430662e+00	1.107057e+02
2.050000e-06	9.702064e-07	1.698626e-09	6.315558e+00	1.090592e+02
2.060000e-06	9.522231e-07	1.663000e-09	6.198495e+00	1.073922e+02
2.070000e-06	9.339601e-07	1.565625e-09	6.079612e+00	1.057048e+02
2.080000e-06	9.153648e-07	1.569818e-09	5.958566e+00	1.039780e+02
2.090000e-06	8.964265e-07	1.608296e-09	5.835287e+00	1.021806e+02
2.100000e-06	8.771809e-07	1.542800e-09	5.710008e+00	1.002896e+02
2.110000e-06	8.577325e-07	1.461711e-09	5.583409e+00	9.831122e+01
2.120000e-06	8.381577e-07	1.452068e-09	5.455986e+00	9.628666e+01
2.130000e-06	8.184335e-07	1.454043e-09	5.327592e+00	9.427332e+01
2.140000e-06	7.985530e-07	1.425199e-09	5.198180e+00	9.231193e+01
2.150000e-06	7.784218e-07	1.382825e-09	5.067136e+00	9.039938e+01
2.160000e-06	7.579492e-07	1.335197e-09	4.933869e+00	8.848657e+01
2.170000e-06	7.369662e-07	1.312354e-09	4.797281e+00	8.650509e+01
2.180000e-06	7.154145e-07	1.308409e-09	4.656990e+00	8.440721e+01
2.190000e-06	6.934988e-07	1.270191e-09	4.514330e+00	8.219429e+01
2.200000e-06	6.712008e-07	1.206986e-09	4.369181e+00	7.991561e+01
2.210000e-06	6.484222e-07	1.169218e-09	4.220904e+00	7.763882e+01
2.220000e-06	6.253135e-07	1.157492e-09	4.070477e+00	7.541123e+01
2.230000e-06	6.020367e-07	1.138566e-09	3.918957e+00	7.323639e+01
2.240000e-06	5.786657e-07	1.096168e-09	3.766824e+00	7.107894e+01
2.250000e-06	5.552010e-07	1.040069e-09	3.614080e+00	6.889178e+01
2.260000e-06	5.316206e-07	1.008286e-09	3.460584e+00	6.664580e+01
2.270000e-06	5.079744e-07	9.998697e-10	3.306658e+00	6.434281e+01
2.280000e-06	4.842264e-07	9.670343e-10	3.152071e+00	6.200609e+01
2.290000e-06	4.603719e-07	9.068604e-10	2.996790e+00	5.965865e+01
2.300000e-06	4.363798e-07	8.631414e-10	2.840614e+00	5.730646e+01
2.310000e-06	4.122265e-07	8.444988e-10	2.683388e+00	5.493828e+01
2.320000e-06	3.879306e-07	8.232761e-10	2.525234e+00	5.253994e+01
2.330000e-06	3.634765e-07	7.812927e-10	2.366050e+00	5.011062e+01
2.340000e-06	3.388755e-07	7.248947e-10	2.205909e+00	4.766767e+01
2.350000e-06	3.140929e-07	6.847544e-10	2.044587e+00	4.523632e+01
2.360000e-06	2.891754e-07	6.675597e-10	1.882387e+00	4.283194e+01
2.370000e-06	2.641470e-07	6.380733e-10	1.719465e+00	4.044794e+01
2.380000e-06	2.390204e-07	5.849807e-10	1.555903e+00	3.805803e+01
2.390000e-06	2.138049e-07	5.407415e-10	1.391763e+00	3.563145e+01
2.400000e-06	1.884750e-07	5.153949e-10	1.226878e+00	3.315109e+01
2.410000e-06	1.631048e-07	4.871716e-10	1.061730e+00	3.062318e+01
2.420000e-06	1.377607e-07	4.440982e-10	8.967532e-01	2.807354e+01
2.430000e-06	1.123922e-07	3.930672e-10	7.316168e-01	2.553349e+01
2.440000e-06	8.696991e-08	3.531200e-10	5.661305e-01	2.302441e+01
2.450000e-06	6.152972e-08	3.287040e-10	4.005277e-01	2.054872e+01
2.460000e-06	3.606910e-08	3.001684e-10	2.347918e-01	1.809087e+01
2.470000e-06	1.059644e-08	2.543791e-10	6.897752e-02	1.562597e+01
2.480000e-06	-1.486271e-08	2.068434e-10	-9.674880e-02	1.313141e+01
2.490000e-06	-4.034670e-08	1.737804e-10	-2.626368e-01	1.059662e+01
2.500000e-06	-6.585158e-08	1.463782e-10	-4.286608e-01	8.027551e+00
2.510000e-06	-9.131989e-08	1.075896e-10	-5.944467e-01	5.444643e+00
2.520000e-06	-1.167208e-07	5.810683e-11	-7.597941e-01	2.874316e+00
2.530000e-06	-1.420419e-07	1.780769e-11	-9.246218e-01	3.368405e-01
2.540000e-06	-1.673461e-07	-8.754523e-12	-1.089339e+00	-2.164556e+00
2.550000e-06	-1.926344e-07	-3.909909e-11	-1.253954e+00	-4.647544e+00
2.560000e-06	-2.178568e-07	-8.332298e-11	-1.418138e+00	-7.144125e+00
2.570000e-06	-2.430191e-07	-1.308650e-10	-1.581933e+00	-9.685546e+00
2.580000e-06	-2.680781e-07	-1.694805e-10	-1.745054e+00	-1.228604e+01
2.590000e-06	-2.929678e-07	-2.008599e-10	-1.907074e+00	-1.493445e+01
2.600000e-06	-3.177202e-07	-2.381673e-10	-2.068199e+00	-1.759906e+01
2.610000e-06	-3.423485e-07	-2.861376e-10	-2.228517e+00	-2.024324e+01
2.620000e-06	-3.668028e-07	-3.299961e-10	-2.387702e+00	-2.284316e+01
2.630000e-06	-3.911092e-07	-3.619231e-10	-2.545925e+00	-2.539763e+01
2.640000e-06	-4.153088e-07	-3.945632e-10	-2.703452e+00	-2.792521e+01
2.650000e-06	-4.393625e-07	-4.391240e-10	-2.860030e+00	-3.045203e+01
2.660000e-06	-4.632462e-07	-4.864656e-10	-3.015501e+00	-3.299847e+01
2.670000e-06	-4.870110e-07	-5.248719e-10	-3.170198e+00	-3.557261e+01
2.680000e-06	-5.106883e-07	-5.573128e-10	-3.324325e+00	-3.817209e+01
2.690000e-06	-5.342927e-07	-5.948356e-10	-3.477978e+00	-4.079027e+01
2.700000e-06	-5.577979e-07	-6.409940e-10	-3.630985e+00	-4.342036e+01
2.710000e-06	-5.812302e-07	-6.860942e-10	-3.783517e+00	-4.605449e+01
2.720000e-06	-6.045759e-07	-7.223718e-10	-3.935486e+00	-4.868011e+01
2.730000e-06	-6.277130e-07	-7.575001e-10	-4.086097e+00	-5.127899e+01
2.740000e-06	-6.505556e-07	-8.001673e-10	-4.234791e+00	-5.383229e+01
2.750000e-06	-6.730734e-07	-8.445647e-10	-4.381370e+00	-5.633005e+01
2.760000e-06	-6.953171e-07	-8.824018e-10	-4.526166e+00	-5.877900e+01
2.770000e-06	-7.171960e-07	-9.135407e-10	-4.668587e+00	-6.120275e+01
2.780000e-06	-7.385289e-07	-9.481567e-10	-4.807453e+00	-6.363280e+01
2.790000e-06	-7.593694e-07	-9.918879e-10	-4.943114e+00	-6.609462e+01
2.800000e-06	-7.797898e-07	-1.036112e-09	-5.076040e+00	-6.859595e+01
2.810000e-06	-7.998757e-07	-1.072899e-09	-5.206790e+00	-7.112290e+01
2.820000e-06	-8.197486e-07	-1.106802e-09	-5.336153e+00	-7.364532e+01
2.830000e-06	-8.394333e-07	-1.146548e-09	-5.464290e+00	-7.612809e+01
2.840000e-06	-8.589803e-07	-1.188772e-09	-5.591531e+00	-7.854351e+01
2.850000e-06	-8.783892e-07	-1.226341e-09	-5.717873e+00	-8.088079e+01
2.860000e-06	-8.975815e-07	-1.257697e-09	-5.842806e+00	-8.314985e+01
2.870000e-06	-9.164607e-07	-1.289644e-09	-5.965699e+00	-8.537839e+01
2.880000e-06	-9.349155e-07	-1.329171e-09	-6.085831e+00	-8.760205e+01
2.890000e-06	-9.529521e-07	-1.372259e-09	-6.203240e+00	-8.984963e+01
2.900000e-06	-9.706922e-07	-1.408188e-09	-6.318720e+00	-9.212820e+01
2.910000e-06	-9.882342e-07	-1.437282e-09	-6.432909e+00	-9.441537e+01
2.920000e-06	-1.005493e-06	-1.469673e-09	-6.545254e+00	-9.666439e+01
2.930000e-06	-1.022344e-06	-1.508211e-09	-6.654946e+00	-9.882246e+01
2.940000e-06	-1.038785e-06	-1.542978e-09	-6.761969e+00	-1.008545e+02
