# Temperatura_=_20.0
# Concentracion g/m^3_=_10000.0
# C_Vs_to_Am_M_A/Vsm_=_65563218390.804596
# pendiente_HvsI_1/m_=_3716.3
# ordenada_HvsI_A/m_=_1297.0
# frecuencia_Hz_=_302194.1113405149

Tiempo_(s)	Campo_(V.s)	Magnetizacion_(V.s)	Campo_(kA/m)	Magnetizacion_(A/m)
0.000000e+00	-1.341292e-06	-2.192314e-09	-8.728201e+00	-1.422245e+02
1.000000e-08	-1.341137e-06	-2.193371e-09	-8.727189e+00	-1.424450e+02
2.000000e-08	-1.340679e-06	-2.192914e-09	-8.724213e+00	-1.425821e+02
3.000000e-08	-1.339910e-06	-2.189021e-09	-8.719205e+00	-1.426271e+02
4.000000e-08	-1.338700e-06	-2.195942e-09	-8.711333e+00	-1.425758e+02
5.000000e-08	-1.336831e-06	-2.209215e-09	-8.699173e+00	-1.424401e+02
6.000000e-08	-1.334210e-06	-2.197590e-09	-8.682114e+00	-1.422530e+02
7.000000e-08	-1.330869e-06	-2.173753e-09	-8.660376e+00	-1.420570e+02
8.000000e-08	-1.326957e-06	-2.166681e-09	-8.634916e+00	-1.418809e+02
9.000000e-08	-1.322698e-06	-2.198585e-09	-8.607200e+00	-1.417211e+02
1.000000e-07	-1.318123e-06	-2.202173e-09	-8.577434e+00	-1.415389e+02
1.100000e-07	-1.313220e-06	-2.153154e-09	-8.545528e+00	-1.412790e+02
1.200000e-07	-1.307862e-06	-2.132102e-09	-8.510664e+00	-1.408977e+02
1.300000e-07	-1.301997e-06	-2.163137e-09	-8.472495e+00	-1.403837e+02
1.400000e-07	-1.295659e-06	-2.175475e-09	-8.431253e+00	-1.397609e+02
1.500000e-07	-1.288827e-06	-2.128442e-09	-8.386794e+00	-1.390726e+02
1.600000e-07	-1.281533e-06	-2.106368e-09	-8.339329e+00	-1.383600e+02
1.700000e-07	-1.273811e-06	-2.115392e-09	-8.289077e+00	-1.376465e+02
1.800000e-07	-1.265752e-06	-2.107868e-09	-8.236637e+00	-1.369355e+02
1.900000e-07	-1.257466e-06	-2.089997e-09	-8.182720e+00	-1.362157e+02
2.000000e-07	-1.248827e-06	-2.085394e-09	-8.126502e+00	-1.354684e+02
2.100000e-07	-1.239578e-06	-2.069478e-09	-8.066313e+00	-1.346701e+02
2.200000e-07	-1.229578e-06	-2.029864e-09	-8.001244e+00	-1.337942e+02
2.300000e-07	-1.218857e-06	-2.027236e-09	-7.931480e+00	-1.328158e+02
2.400000e-07	-1.207596e-06	-2.046413e-09	-7.858198e+00	-1.317230e+02
2.500000e-07	-1.195870e-06	-2.013936e-09	-7.781896e+00	-1.305284e+02
2.600000e-07	-1.183689e-06	-1.949564e-09	-7.702631e+00	-1.292723e+02
2.700000e-07	-1.171097e-06	-1.941604e-09	-7.620686e+00	-1.280094e+02
2.800000e-07	-1.158085e-06	-1.972186e-09	-7.536015e+00	-1.267842e+02
2.900000e-07	-1.144624e-06	-1.943817e-09	-7.448422e+00	-1.256074e+02
3.000000e-07	-1.130735e-06	-1.885014e-09	-7.358039e+00	-1.244478e+02
3.100000e-07	-1.116406e-06	-1.868283e-09	-7.264797e+00	-1.232471e+02
3.200000e-07	-1.101565e-06	-1.878306e-09	-7.168223e+00	-1.219490e+02
3.300000e-07	-1.086239e-06	-1.856474e-09	-7.068489e+00	-1.205277e+02
3.400000e-07	-1.070369e-06	-1.817933e-09	-6.965219e+00	-1.189996e+02
3.500000e-07	-1.053913e-06	-1.788789e-09	-6.858135e+00	-1.174121e+02
3.600000e-07	-1.036970e-06	-1.761507e-09	-6.747881e+00	-1.158183e+02
3.700000e-07	-1.019628e-06	-1.749303e-09	-6.635030e+00	-1.142517e+02
3.800000e-07	-1.002008e-06	-1.741530e-09	-6.520373e+00	-1.127135e+02
3.900000e-07	-9.841100e-07	-1.707757e-09	-6.403907e+00	-1.111770e+02
4.000000e-07	-9.659398e-07	-1.652932e-09	-6.285668e+00	-1.096027e+02
4.100000e-07	-9.475189e-07	-1.639779e-09	-6.165797e+00	-1.079553e+02
4.200000e-07	-9.287917e-07	-1.645518e-09	-6.043934e+00	-1.062150e+02
4.300000e-07	-9.097046e-07	-1.606942e-09	-5.919728e+00	-1.043813e+02
4.400000e-07	-8.901880e-07	-1.545677e-09	-5.792727e+00	-1.024708e+02
4.500000e-07	-8.703202e-07	-1.523925e-09	-5.663442e+00	-1.005115e+02
4.600000e-07	-8.502420e-07	-1.520960e-09	-5.532786e+00	-9.853583e+01
4.700000e-07	-8.300188e-07	-1.488479e-09	-5.401188e+00	-9.657007e+01
4.800000e-07	-8.096658e-07	-1.441278e-09	-5.268745e+00	-9.462557e+01
4.900000e-07	-7.891276e-07	-1.402804e-09	-5.135096e+00	-9.269322e+01
5.000000e-07	-7.683344e-07	-1.379114e-09	-4.999789e+00	-9.074608e+01
5.100000e-07	-7.472985e-07	-1.360632e-09	-4.862901e+00	-8.875038e+01
5.200000e-07	-7.259852e-07	-1.333733e-09	-4.724209e+00	-8.668055e+01
5.300000e-07	-7.043993e-07	-1.284393e-09	-4.583743e+00	-8.453092e+01
5.400000e-07	-6.825400e-07	-1.239640e-09	-4.441498e+00	-8.231801e+01
5.500000e-07	-6.604299e-07	-1.219542e-09	-4.297621e+00	-8.007274e+01
5.600000e-07	-6.381214e-07	-1.198299e-09	-4.152452e+00	-7.782690e+01
5.700000e-07	-6.156251e-07	-1.150325e-09	-4.006062e+00	-7.560110e+01
5.800000e-07	-5.929807e-07	-1.100044e-09	-3.858708e+00	-7.339930e+01
5.900000e-07	-5.700870e-07	-1.075710e-09	-3.709731e+00	-7.121062e+01
6.000000e-07	-5.469467e-07	-1.058360e-09	-3.559151e+00	-6.901564e+01
6.100000e-07	-5.235897e-07	-1.023841e-09	-3.407159e+00	-6.679360e+01
6.200000e-07	-4.999840e-07	-9.739454e-10	-3.253550e+00	-6.452823e+01
6.300000e-07	-4.761882e-07	-9.334403e-10	-3.098703e+00	-6.221219e+01
6.400000e-07	-4.522355e-07	-9.080592e-10	-2.942835e+00	-5.984990e+01
6.500000e-07	-4.281559e-07	-8.804829e-10	-2.786142e+00	-5.745789e+01
6.600000e-07	-4.040104e-07	-8.361697e-10	-2.629020e+00	-5.506101e+01
6.700000e-07	-3.798007e-07	-7.882100e-10	-2.471480e+00	-5.268435e+01
6.800000e-07	-3.555172e-07	-7.547369e-10	-2.313460e+00	-5.034335e+01
6.900000e-07	-3.311705e-07	-7.295904e-10	-2.155028e+00	-4.803686e+01
7.000000e-07	-3.067323e-07	-6.969763e-10	-1.996002e+00	-4.574705e+01
7.100000e-07	-2.822264e-07	-6.520048e-10	-1.836534e+00	-4.344664e+01
7.200000e-07	-2.576813e-07	-6.106179e-10	-1.676812e+00	-4.110987e+01
7.300000e-07	-2.330598e-07	-5.801252e-10	-1.516592e+00	-3.872145e+01
7.400000e-07	-2.083816e-07	-5.507428e-10	-1.356004e+00	-3.627995e+01
7.500000e-07	-1.836382e-07	-5.095405e-10	-1.194991e+00	-3.379533e+01
7.600000e-07	-1.588711e-07	-4.623280e-10	-1.033823e+00	-3.128393e+01
7.700000e-07	-1.340735e-07	-4.232796e-10	-8.724574e-01	-2.876381e+01
7.800000e-07	-1.091651e-07	-3.922498e-10	-7.103709e-01	-2.625145e+01
7.900000e-07	-8.416682e-08	-3.575211e-10	-5.476994e-01	-2.375854e+01
8.000000e-07	-5.911283e-08	-3.116529e-10	-3.846654e-01	-2.128796e+01
8.100000e-07	-3.403701e-08	-2.668374e-10	-2.214893e-01	-1.883024e+01
8.200000e-07	-8.942015e-09	-2.317431e-10	-5.818844e-02	-1.636432e+01
8.300000e-07	1.613655e-08	-2.010982e-10	1.050055e-01	-1.386501e+01
8.400000e-07	4.118230e-08	-1.603926e-10	2.679859e-01	-1.131568e+01
8.500000e-07	6.622426e-08	-1.110624e-10	4.309416e-01	-8.719684e+00
8.600000e-07	9.123910e-08	-6.833176e-11	5.937209e-01	-6.102921e+00
8.700000e-07	1.161941e-07	-3.439366e-11	7.561108e-01	-3.503866e+00
8.800000e-07	1.410691e-07	8.246365e-13	9.179801e-01	-9.549736e-01
8.900000e-07	1.659371e-07	4.546761e-11	1.079804e+00	1.534747e+00
9.000000e-07	1.907694e-07	8.929738e-11	1.241395e+00	3.986031e+00
9.100000e-07	2.154687e-07	1.244958e-10	1.402121e+00	6.440661e+00
9.200000e-07	2.401093e-07	1.552856e-10	1.562465e+00	8.942412e+00
9.300000e-07	2.647118e-07	1.931116e-10	1.722561e+00	1.151768e+01
9.400000e-07	2.892296e-07	2.397021e-10	1.882106e+00	1.416516e+01
9.500000e-07	3.136718e-07	2.856082e-10	2.041159e+00	1.685815e+01
9.600000e-07	3.380561e-07	3.246600e-10	2.199835e+00	1.955635e+01
9.700000e-07	3.623960e-07	3.609692e-10	2.358222e+00	2.222075e+01
9.800000e-07	3.866654e-07	4.031337e-10	2.516151e+00	2.482602e+01
9.900000e-07	4.108479e-07	4.467211e-10	2.673514e+00	2.736764e+01
1.000000e-06	4.349461e-07	4.845194e-10	2.830328e+00	2.986321e+01
1.010000e-06	4.588988e-07	5.165384e-10	2.986196e+00	3.234795e+01
1.020000e-06	4.826672e-07	5.529974e-10	3.140864e+00	3.486384e+01
1.030000e-06	5.062616e-07	5.970748e-10	3.294400e+00	3.744419e+01
1.040000e-06	5.296565e-07	6.400330e-10	3.446638e+00	4.009846e+01
1.050000e-06	5.527842e-07	6.771988e-10	3.597137e+00	4.280498e+01
1.060000e-06	5.757146e-07	7.132284e-10	3.746352e+00	4.551738e+01
1.070000e-06	5.984750e-07	7.551058e-10	3.894461e+00	4.818416e+01
1.080000e-06	6.210347e-07	7.968833e-10	4.041264e+00	5.077243e+01
1.090000e-06	6.434283e-07	8.346967e-10	4.186986e+00	5.328326e+01
1.100000e-06	6.656623e-07	8.681807e-10	4.331670e+00	5.574938e+01
1.110000e-06	6.876849e-07	9.028832e-10	4.474978e+00	5.821651e+01
1.120000e-06	7.094068e-07	9.444258e-10	4.616328e+00	6.071917e+01
1.130000e-06	7.307988e-07	9.864002e-10	4.755533e+00	6.326498e+01
1.140000e-06	7.518319e-07	1.023379e-09	4.892401e+00	6.583534e+01
1.150000e-06	7.726149e-07	1.057178e-09	5.027643e+00	6.839953e+01
1.160000e-06	7.932265e-07	1.094770e-09	5.161769e+00	7.093125e+01
1.170000e-06	8.136650e-07	1.134363e-09	5.294769e+00	7.341715e+01
1.180000e-06	8.339648e-07	1.171860e-09	5.426866e+00	7.585457e+01
1.190000e-06	8.541335e-07	1.206130e-09	5.558110e+00	7.824437e+01
1.200000e-06	8.741226e-07	1.240355e-09	5.688185e+00	8.058743e+01
1.210000e-06	8.938237e-07	1.276395e-09	5.816386e+00	8.288829e+01
1.220000e-06	9.131718e-07	1.310782e-09	5.942290e+00	8.516086e+01
1.230000e-06	9.321066e-07	1.340711e-09	6.065505e+00	8.742774e+01
1.240000e-06	9.506569e-07	1.369926e-09	6.186217e+00	8.970891e+01
1.250000e-06	9.688728e-07	1.403841e-09	6.304754e+00	9.200509e+01
1.260000e-06	9.867705e-07	1.440549e-09	6.421220e+00	9.428818e+01
1.270000e-06	1.004338e-06	1.474279e-09	6.535536e+00	9.650870e+01
1.280000e-06	1.021695e-06	1.502745e-09	6.648483e+00	9.861921e+01
1.290000e-06	1.038772e-06	1.530753e-09	6.759612e+00	1.006005e+02
1.300000e-06	1.055344e-06	1.560573e-09	6.867450e+00	1.024738e+02
1.310000e-06	1.071344e-06	1.589681e-09	6.971565e+00	1.042900e+02
1.320000e-06	1.086790e-06	1.615159e-09	7.072080e+00	1.061024e+02
1.330000e-06	1.101802e-06	1.639603e-09	7.169764e+00	1.079396e+02
1.340000e-06	1.116435e-06	1.666358e-09	7.264983e+00	1.097949e+02
1.350000e-06	1.130676e-06	1.695671e-09	7.357658e+00	1.116366e+02
1.360000e-06	1.144442e-06	1.724255e-09	7.447237e+00	1.134296e+02
1.370000e-06	1.157711e-06	1.748909e-09	7.533582e+00	1.151528e+02
1.380000e-06	1.170577e-06	1.771573e-09	7.617305e+00	1.168015e+02
1.390000e-06	1.183093e-06	1.795321e-09	7.698753e+00	1.183791e+02
1.400000e-06	1.195269e-06	1.819388e-09	7.777981e+00	1.198879e+02
1.410000e-06	1.206996e-06	1.839179e-09	7.854295e+00	1.213299e+02
1.420000e-06	1.218088e-06	1.856729e-09	7.926474e+00	1.227153e+02
1.430000e-06	1.228518e-06	1.877511e-09	7.994345e+00	1.240688e+02
1.440000e-06	1.238260e-06	1.901093e-09	8.057739e+00	1.254228e+02
1.450000e-06	1.247351e-06	1.923314e-09	8.116896e+00	1.267967e+02
1.460000e-06	1.256008e-06	1.940952e-09	8.173232e+00	1.281753e+02
1.470000e-06	1.264389e-06	1.957114e-09	8.227772e+00	1.295062e+02
1.480000e-06	1.272481e-06	1.975979e-09	8.280424e+00	1.307209e+02
1.490000e-06	1.280142e-06	1.994065e-09	8.330278e+00	1.317739e+02
1.500000e-06	1.287351e-06	2.007661e-09	8.377190e+00	1.326728e+02
1.510000e-06	1.294174e-06	2.017852e-09	8.421586e+00	1.334799e+02
1.520000e-06	1.300537e-06	2.029795e-09	8.462995e+00	1.342801e+02
1.530000e-06	1.306382e-06	2.044760e-09	8.501029e+00	1.351337e+02
1.540000e-06	1.311771e-06	2.058901e-09	8.536100e+00	1.360437e+02
1.550000e-06	1.316776e-06	2.069947e-09	8.568665e+00	1.369562e+02
1.560000e-06	1.321453e-06	2.079510e-09	8.599100e+00	1.377948e+02
1.570000e-06	1.325822e-06	2.090474e-09	8.627529e+00	1.385055e+02
1.580000e-06	1.329830e-06	2.100840e-09	8.653611e+00	1.390844e+02
1.590000e-06	1.333345e-06	2.108971e-09	8.676489e+00	1.395730e+02
1.600000e-06	1.336207e-06	2.114535e-09	8.695109e+00	1.400283e+02
1.610000e-06	1.338354e-06	2.120144e-09	8.709082e+00	1.404884e+02
1.620000e-06	1.339825e-06	2.128387e-09	8.718655e+00	1.409564e+02
1.630000e-06	1.340750e-06	2.137215e-09	8.724674e+00	1.414078e+02
1.640000e-06	1.341298e-06	2.143803e-09	8.728238e+00	1.418114e+02
1.650000e-06	1.341507e-06	2.146355e-09	8.729600e+00	1.421459e+02
1.660000e-06	1.341327e-06	2.147524e-09	8.728428e+00	1.424035e+02
1.670000e-06	1.340698e-06	2.153141e-09	8.724334e+00	1.425803e+02
1.680000e-06	1.339622e-06	2.162294e-09	8.717336e+00	1.426693e+02
1.690000e-06	1.338143e-06	2.157888e-09	8.707708e+00	1.426626e+02
1.700000e-06	1.336250e-06	2.142749e-09	8.695392e+00	1.425633e+02
1.710000e-06	1.333871e-06	2.146479e-09	8.679911e+00	1.423951e+02
1.720000e-06	1.330948e-06	2.156631e-09	8.660887e+00	1.421983e+02
1.730000e-06	1.327624e-06	2.152619e-09	8.639261e+00	1.420113e+02
1.740000e-06	1.324060e-06	2.126948e-09	8.616066e+00	1.418469e+02
1.750000e-06	1.320113e-06	2.132201e-09	8.590382e+00	1.416818e+02
1.760000e-06	1.315608e-06	2.160762e-09	8.561069e+00	1.414649e+02
1.770000e-06	1.310558e-06	2.158478e-09	8.528201e+00	1.411437e+02
1.780000e-06	1.304974e-06	2.111517e-09	8.491871e+00	1.406904e+02
1.790000e-06	1.298758e-06	2.107275e-09	8.451419e+00	1.401135e+02
1.800000e-06	1.291888e-06	2.125418e-09	8.406714e+00	1.394501e+02
1.810000e-06	1.284564e-06	2.116605e-09	8.359056e+00	1.387447e+02
1.820000e-06	1.276930e-06	2.086522e-09	8.309374e+00	1.380302e+02
1.830000e-06	1.268903e-06	2.073764e-09	8.257140e+00	1.373188e+02
1.840000e-06	1.260409e-06	2.069511e-09	8.201869e+00	1.366052e+02
1.850000e-06	1.251455e-06	2.052947e-09	8.143605e+00	1.358735e+02
1.860000e-06	1.242118e-06	2.053128e-09	8.082845e+00	1.351022e+02
1.870000e-06	1.232347e-06	2.055862e-09	8.019260e+00	1.342659e+02
1.880000e-06	1.222072e-06	2.022822e-09	7.952399e+00	1.333377e+02
1.890000e-06	1.211400e-06	1.978445e-09	7.882953e+00	1.322983e+02
1.900000e-06	1.200346e-06	1.991220e-09	7.811019e+00	1.311476e+02
1.910000e-06	1.188867e-06	2.004261e-09	7.736324e+00	1.299138e+02
1.920000e-06	1.176946e-06	1.958646e-09	7.658750e+00	1.286474e+02
1.930000e-06	1.164604e-06	1.898561e-09	7.578437e+00	1.274010e+02
1.940000e-06	1.151683e-06	1.913764e-09	7.494354e+00	1.262033e+02
1.950000e-06	1.138030e-06	1.928986e-09	7.405509e+00	1.250420e+02
1.960000e-06	1.123660e-06	1.887141e-09	7.312004e+00	1.238684e+02
1.970000e-06	1.108730e-06	1.837328e-09	7.214845e+00	1.226212e+02
1.980000e-06	1.093488e-06	1.839698e-09	7.115666e+00	1.212578e+02
1.990000e-06	1.078000e-06	1.838087e-09	7.014875e+00	1.197749e+02
2.000000e-06	1.062248e-06	1.801651e-09	6.912378e+00	1.182081e+02
2.010000e-06	1.046187e-06	1.771136e-09	6.807861e+00	1.166116e+02
2.020000e-06	1.029769e-06	1.746790e-09	6.701027e+00	1.150303e+02
2.030000e-06	1.012933e-06	1.717223e-09	6.591468e+00	1.134810e+02
2.040000e-06	9.956961e-07	1.701467e-09	6.479301e+00	1.119484e+02
2.050000e-06	9.781572e-07	1.697366e-09	6.365170e+00	1.103967e+02
2.060000e-06	9.602975e-07	1.655497e-09	6.248951e+00	1.087869e+02
2.070000e-06	9.421644e-07	1.607304e-09	6.130954e+00	1.070912e+02
2.080000e-06	9.237089e-07	1.604379e-09	6.010858e+00	1.052999e+02
2.090000e-06	9.049078e-07	1.599288e-09	5.888513e+00	1.034221e+02
2.100000e-06	8.858392e-07	1.543356e-09	5.764429e+00	1.014817e+02
2.110000e-06	8.665151e-07	1.491878e-09	5.638681e+00	9.950987e+01
2.120000e-06	8.470128e-07	1.484437e-09	5.511773e+00	9.753710e+01
2.130000e-06	8.273838e-07	1.469520e-09	5.384042e+00	9.558271e+01
2.140000e-06	8.075853e-07	1.430437e-09	5.255206e+00	9.364728e+01
2.150000e-06	7.875767e-07	1.392940e-09	5.125004e+00	9.171126e+01
2.160000e-06	7.672120e-07	1.364029e-09	4.992485e+00	8.974226e+01
2.170000e-06	7.463177e-07	1.335929e-09	4.856519e+00	8.770907e+01
2.180000e-06	7.249773e-07	1.313390e-09	4.717651e+00	8.559583e+01
2.190000e-06	7.032739e-07	1.280610e-09	4.576420e+00	8.340917e+01
2.200000e-06	6.811445e-07	1.231302e-09	4.432417e+00	8.117483e+01
2.210000e-06	6.585379e-07	1.197429e-09	4.285309e+00	7.892592e+01
2.220000e-06	6.355540e-07	1.181946e-09	4.135746e+00	7.668941e+01
2.230000e-06	6.123967e-07	1.153850e-09	3.985054e+00	7.447716e+01
2.240000e-06	5.891146e-07	1.103575e-09	3.833550e+00	7.228459e+01
2.250000e-06	5.657096e-07	1.061782e-09	3.681247e+00	7.009532e+01
2.260000e-06	5.421924e-07	1.038931e-09	3.528213e+00	6.788838e+01
2.270000e-06	5.185836e-07	1.016646e-09	3.374583e+00	6.564479e+01
2.280000e-06	4.948929e-07	9.762140e-10	3.220421e+00	6.335261e+01
2.290000e-06	4.711228e-07	9.270659e-10	3.065741e+00	6.101057e+01
2.300000e-06	4.472175e-07	8.923964e-10	2.910182e+00	5.862977e+01
2.310000e-06	4.231037e-07	8.687354e-10	2.753266e+00	5.623194e+01
2.320000e-06	3.988458e-07	8.373869e-10	2.595412e+00	5.384329e+01
2.330000e-06	3.744178e-07	7.921334e-10	2.436452e+00	5.148490e+01
2.340000e-06	3.498082e-07	7.499482e-10	2.276310e+00	4.916382e+01
2.350000e-06	3.250385e-07	7.197289e-10	2.115126e+00	4.686945e+01
2.360000e-06	3.001602e-07	6.943615e-10	1.953235e+00	4.457764e+01
2.370000e-06	2.752172e-07	6.591827e-10	1.790923e+00	4.226057e+01
2.380000e-06	2.501562e-07	6.133211e-10	1.627844e+00	3.989728e+01
2.390000e-06	2.249702e-07	5.740091e-10	1.463950e+00	3.747990e+01
2.400000e-06	1.996969e-07	5.453578e-10	1.299489e+00	3.501366e+01
2.410000e-06	1.743950e-07	5.132311e-10	1.134842e+00	3.251259e+01
2.420000e-06	1.490820e-07	4.682628e-10	9.701223e-01	2.999443e+01
2.430000e-06	1.237116e-07	4.225434e-10	8.050298e-01	2.747676e+01
2.440000e-06	9.828490e-08	3.884269e-10	6.395701e-01	2.497396e+01
2.450000e-06	7.283265e-08	3.607518e-10	4.739445e-01	2.249352e+01
2.460000e-06	4.738171e-08	3.245196e-10	3.083274e-01	2.003196e+01
2.470000e-06	2.194338e-08	2.792982e-10	1.427923e-01	1.757312e+01
2.480000e-06	-3.520671e-09	2.386069e-10	-2.291009e-02	1.509235e+01
2.490000e-06	-2.899208e-08	2.088525e-10	-1.886604e-01	1.256736e+01
2.500000e-06	-5.447655e-08	1.768389e-10	-3.544957e-01	9.991218e+00
2.510000e-06	-7.994803e-08	1.326775e-10	-5.202464e-01	7.379831e+00
2.520000e-06	-1.053580e-07	8.689027e-11	-6.855970e-01	4.767806e+00
2.530000e-06	-1.307270e-07	5.097091e-11	-8.506811e-01	2.192895e+00
2.540000e-06	-1.560692e-07	2.133068e-11	-1.015591e+00	-3.233647e-01
2.550000e-06	-1.813624e-07	-1.474740e-11	-1.180181e+00	-2.788080e+00
2.560000e-06	-2.065700e-07	-5.846492e-11	-1.344215e+00	-5.235204e+00
2.570000e-06	-2.317056e-07	-1.003413e-10	-1.507780e+00	-7.710233e+00
2.580000e-06	-2.567648e-07	-1.347609e-10	-1.670848e+00	-1.024963e+01
2.590000e-06	-2.816939e-07	-1.689959e-10	-1.833069e+00	-1.286542e+01
2.600000e-06	-3.065212e-07	-2.117458e-10	-1.994628e+00	-1.554169e+01
2.610000e-06	-3.312539e-07	-2.584579e-10	-2.155571e+00	-1.824261e+01
2.620000e-06	-3.558330e-07	-2.973761e-10	-2.315515e+00	-2.092679e+01
2.630000e-06	-3.802640e-07	-3.290445e-10	-2.474495e+00	-2.356131e+01
2.640000e-06	-4.045412e-07	-3.667477e-10	-2.632474e+00	-2.613147e+01
2.650000e-06	-4.286505e-07	-4.129832e-10	-2.789361e+00	-2.864480e+01
2.660000e-06	-4.525825e-07	-4.555931e-10	-2.945094e+00	-3.112931e+01
2.670000e-06	-4.763731e-07	-4.880937e-10	-3.099906e+00	-3.362555e+01
2.680000e-06	-5.000858e-07	-5.214001e-10	-3.254212e+00	-3.617292e+01
2.690000e-06	-5.237181e-07	-5.649426e-10	-3.407995e+00	-3.879352e+01
2.700000e-06	-5.472687e-07	-6.128175e-10	-3.561246e+00	-4.148025e+01
2.710000e-06	-5.707250e-07	-6.551018e-10	-3.713884e+00	-4.419645e+01
2.720000e-06	-5.940633e-07	-6.904126e-10	-3.865753e+00	-4.689002e+01
2.730000e-06	-6.172991e-07	-7.290640e-10	-4.016955e+00	-4.951672e+01
2.740000e-06	-6.403135e-07	-7.746811e-10	-4.166717e+00	-5.206094e+01
2.750000e-06	-6.630160e-07	-8.184534e-10	-4.314449e+00	-5.454223e+01
2.760000e-06	-6.854234e-07	-8.528291e-10	-4.460261e+00	-5.700326e+01
2.770000e-06	-7.074728e-07	-8.845688e-10	-4.603744e+00	-5.948653e+01
2.780000e-06	-7.290824e-07	-9.241540e-10	-4.744363e+00	-6.201312e+01
2.790000e-06	-7.502141e-07	-9.698999e-10	-4.881874e+00	-6.457545e+01
2.800000e-06	-7.708850e-07	-1.012004e-09	-5.016386e+00	-6.714625e+01
2.810000e-06	-7.911846e-07	-1.046260e-09	-5.148482e+00	-6.969542e+01
2.820000e-06	-8.112085e-07	-1.081890e-09	-5.278784e+00	-7.220329e+01
2.830000e-06	-8.309977e-07	-1.124511e-09	-5.407558e+00	-7.466304e+01
2.840000e-06	-8.506161e-07	-1.167058e-09	-5.535221e+00	-7.707471e+01
2.850000e-06	-8.700865e-07	-1.201116e-09	-5.661921e+00	-7.943916e+01
2.860000e-06	-8.893495e-07	-1.231305e-09	-5.787271e+00	-8.175842e+01
2.870000e-06	-9.083337e-07	-1.267141e-09	-5.910807e+00	-8.404157e+01
2.880000e-06	-9.269598e-07	-1.309480e-09	-6.032013e+00	-8.630794e+01
2.890000e-06	-9.451951e-07	-1.350280e-09	-6.150676e+00	-8.858072e+01
2.900000e-06	-9.631436e-07	-1.384183e-09	-6.267472e+00	-9.087150e+01
2.910000e-06	-9.808331e-07	-1.415721e-09	-6.382583e+00	-9.316580e+01
2.920000e-06	-9.982092e-07	-1.452282e-09	-6.495655e+00	-9.542192e+01
2.930000e-06	-1.015266e-06	-1.491393e-09	-6.606646e+00	-9.758800e+01
2.940000e-06	-1.031937e-06	-1.523648e-09	-6.715134e+00	-9.962901e+01
